time_sec,bts_raw,diy_raw,bts_rms,diy_rms,bts_norm_rms,diy_norm_rms
0.0,-0.0,0.84,0.029945751112197484,0.8752596229655436,0.06684827902623773,0.014386206753945396
0.0009999999999998899,0.008,-0.16,0.029856738255739815,0.8754798586764979,0.06661637526748904,0.014424960957227388
0.0020000000000000018,-0.0086,-1.16,0.029932582902445444,0.9026100971165968,0.06681397210183358,0.019198985891878524
0.0029999999999998916,-0.0241,-0.16,0.029905510544102586,0.9028236609500592,0.06674344092344267,0.01923656606532006
0.0040000000000000036,-0.0183,0.84,0.029790306294930614,0.906393360284934,0.06644330115184117,0.019864715120166253
0.004999999999999893,0.0094,-1.16,0.029246748286237703,0.9241645252923705,0.06502717824184566,0.02299185257790075
0.006000000000000005,0.0214,-0.16,0.0283919779517597,0.9276521064527473,0.06280025888074639,0.02360555154918034
0.006999999999999895,0.0251,0.84,0.02814489996991903,0.9278599064301972,0.06215655060114361,0.02364211747453909
0.008000000000000007,0.0022,-0.16,0.02818306305366746,0.9280676598799732,0.06225597626749003,0.023678675212565614
0.008999999999999897,0.0109,0.8400000000000017,0.02821845522973401,0.9315406282671929,0.06234818293276014,0.02428980281892444
0.010000000000000009,-0.0026,1.84,0.02805577418683308,0.9350006967429398,0.06192435263647226,0.02489866046738513
0.010999999999999899,-0.0048,1.84,0.02790023462978644,0.9352068638885292,0.06151912793805605,0.024934939068324183
0.01200000000000001,-0.0204,-0.16,0.027622165732028775,0.9428280162233946,0.06079467952523853,0.026276009894434085
0.0129999999999999,-0.0386,-1.16,0.02701207494357031,0.950388056578609,0.05920521983759486,0.02760632703272426
0.014000000000000012,-0.0364,-1.16,0.026835400650819376,0.9505908864709889,0.058744933153247254,0.027642018387440955
0.014999999999999902,-0.0208,-0.16,0.02700070972123742,0.9507936730942921,0.059175610207223485,0.0276777021282308
0.016000000000000014,0.0093,-1.16,0.027063194637271124,0.9582908737474543,0.05933840115080143,0.02899696155668382
0.016999999999999904,0.031,-0.16,0.027080918236446663,0.9584920312981712,0.059384576157771554,0.029032358634561932
0.018000000000000016,0.0111,-1.159999999999993,0.027192931005249953,0.965929481884479,0.059676401217061574,0.03034110402681732
0.018999999999999906,0.0074,0.84,0.027250256115932906,0.9692667975180852,0.05982574940301024,0.030928361233745826
0.020000000000000018,-0.0155,-0.16,0.027196742454485043,0.9766221964928344,0.05968633112425781,0.03222266825531111
0.020999999999999908,-0.0007,-1.16,0.02720998847667959,0.9931374833942915,0.059720840772162935,0.03512881269058966
0.02200000000000002,-0.0058,-0.16,0.027009141598533508,0.9933315842543123,0.05919757764109861,0.03516296802422679
0.02299999999999991,0.0021,0.84,0.026197448753483094,0.9935256471936782,0.05708288736817005,0.03519711668508246
0.02400000000000002,0.009,-0.16,0.026104706967718324,0.9967705716106209,0.05684126869006208,0.03576811609268981
0.02499999999999991,0.0112,0.84,0.026118449597434777,1.0000049666008217,0.056877072141531496,0.03633726266933424
0.026000000000000023,0.0055,1.8399999999999965,0.02608909971292324,1.0032289340044263,0.05680060736096013,0.03690457433551415
0.026999999999999913,-0.0221,0.84,0.026096369662343973,1.0064425740304332,0.05681954764288876,0.037470068724700004
0.028000000000000025,-0.0101,-0.16,0.02608514255133054,1.0096459852930386,0.056790297831709614,0.03803376318972972
0.028999999999999915,0.0008,1.84,0.026085179930627606,1.0128392648469438,0.056790395215389165,0.03859567480902175
0.030000000000000027,0.0106,-0.16,0.026036269189977167,1.013029590767285,0.0566629688519243,0.03862916587808942
0.030999999999999917,0.0077,-1.16,0.02604588067613729,1.013219880936299,0.05668800950174048,0.03866265065610558
0.03200000000000003,0.0483,-2.16,0.026050097115052764,1.0291480327750844,0.05669899452201672,0.04146547873331407
0.03299999999999992,0.0657,-1.16,0.026050369735628482,1.0322809860508781,0.05669970477600403,0.042016774922279
0.03400000000000003,0.0392,-1.16,0.026048574618732737,1.0479194532035518,0.056695027986918896,0.044768628072830045
0.03499999999999992,0.044,1.84,0.026042830893115966,1.0547264907614462,0.05668006395124183,0.04596644161598208
0.03600000000000003,0.0396,1.8399999999999863,0.026005148100521843,1.0614898775897388,0.05658188957969046,0.04715657407398646
0.03699999999999992,0.0595,-0.16,0.026000078737895112,1.0616714819471764,0.05656868245103081,0.04718853043635175
0.038000000000000034,0.0124,-0.16,0.025982445110975062,1.0683909048150106,0.05652274184732625,0.04837092669093435
0.038999999999999924,-0.0457,-1.16,0.025901174279360603,1.0685713363392604,0.056311008260987644,0.04840267667343698
0.040000000000000036,-0.0689,-2.16,0.025908206996194654,1.0715890357983415,0.05632933048468584,0.04893369200139826
0.040999999999999925,-0.048,1.84,0.026133413481510274,1.0782466561760082,0.05691605730727818,0.050105213061141164
0.04200000000000004,-0.0419,3.84,0.026427265544183596,1.0848634206508516,0.05768162534499653,0.051269544832841615
0.04299999999999993,-0.0595,-0.16,0.02661776127086211,1.091440072279642,0.05817792078815335,0.052426818069922866
0.04400000000000004,-0.1074,-0.16,0.02676004988152468,1.1062425491808061,0.05854862300975291,0.055031564577285204
0.04499999999999993,-0.0757,-1.16,0.026770174178934774,1.1064168079763086,0.058574999678444664,0.055062228363622644
0.04600000000000004,-0.0348,1.84,0.026952531634399753,1.112866093869342,0.059050092614916026,0.0561970894424154
0.04699999999999993,-0.0084,0.84,0.02808240425408543,1.119278219566311,0.06199373152102123,0.057325411555360875
0.04800000000000004,-0.0037,-1.16,0.028719011300767212,1.1194504491713628,0.06365227358838678,0.05735571827127192
0.04899999999999993,0.0007,-1.16,0.0288276874345315,1.1196226522826345,0.06393540576624471,0.05738602032515362
0.050000000000000044,0.0206,-0.16,0.028804541595246872,1.1259963025764894,0.06387510428460369,0.05850757203929695
0.050999999999999934,0.0314,-2.1599999999999864,0.02882220883955863,1.1232964381555803,0.06392113247115645,0.05803248516919606
0.052000000000000046,0.0216,-0.15999999999999306,0.028849110115993403,1.1294786861778763,0.06399121793261256,0.059120356412045744
0.052999999999999936,0.0066,0.84,0.028959862649996664,1.1259963025764894,0.06427975972251133,0.05850757203929695
0.05400000000000005,-0.0069,1.84,0.02932762843118641,1.1286897088477579,0.06523789397851755,0.05898152248859254
0.05499999999999994,-0.0002,0.84,0.02931392704691455,1.1286897088477577,0.06520219798313943,0.0589815224885925
0.05600000000000005,0.02,-0.16,0.02934941378184142,1.1225031154975684,0.06529465100108268,0.05789288661170698
0.05699999999999994,0.0225,-0.16,0.02952892438746309,1.1225031154975686,0.06576232708558985,0.05789288661170702
0.05800000000000005,0.0156,0.84,0.029544782306920047,1.1197948289123487,0.06580364146729101,0.05741631771915681
0.05899999999999994,0.0134,0.8399999999999931,0.02963278784239755,1.1225031154975686,0.06603292086894273,0.05789288661170702
0.06000000000000005,-0.0004,-0.16,0.02962042305341425,1.1643548009649385,0.06600070708370458,0.0652573994750769
0.06099999999999994,0.0013,-1.16,0.02980355434114082,1.1531042091186685,0.06647781607288164,0.06327766729829329
0.062000000000000055,0.0162,-1.16,0.02983661313853989,1.1417427607146358,0.06656394362435734,0.061278428032690756
0.06299999999999994,0.018,-0.16,0.029802591989250723,1.1443991074302662,0.06647530887302948,0.06174585722552656
0.06400000000000006,0.0306,-0.16,0.029550357357088268,1.1591274872266115,0.06581816605554346,0.06433756509237819
0.06499999999999995,0.0291,-1.16,0.029355617930726444,1.155734442910698,0.06531081457007182,0.06374050147996975
0.06600000000000006,0.0214,-0.16,0.02928321224510263,1.1557344429106982,0.06512217720554768,0.06374050147996979
0.06699999999999995,0.025,-1.16,0.02937390660973959,1.1557344429106982,0.06535846177042555,0.06374050147996979
0.06800000000000006,0.0189,0.84,0.029339281368318565,1.1557344429106982,0.0652682531876133,0.06374050147996979
0.06899999999999995,0.0065,-1.16,0.030007152954752588,1.1496933886793528,0.06700824825595678,0.06267747567591359
0.07000000000000006,-0.0118,1.84,0.03132792471808783,1.1496933886793526,0.07044923362094453,0.06267747567591354
0.07099999999999995,-0.0142,-0.16,0.03198516625880638,1.1496933886793526,0.07216153440269625,0.06267747567591354
0.07200000000000006,-0.0165,-0.15999999999998613,0.03242432401142832,1.1436204236615943,0.07330566500999895,0.06160883462854293
0.07299999999999995,-0.0149,0.84,0.032432072391872846,1.1436204236615943,0.0733258517405546,0.06160883462854293
0.07400000000000007,-0.0132,0.84,0.032543781164104384,1.140962264044264,0.07361688480248106,0.0611410864249495
0.07499999999999996,-0.0086,0.84,0.03269691317004462,1.1409622640442643,0.07401583714684445,0.06114108642494954
0.07600000000000007,-0.0162,0.84,0.03303502571712002,1.1409622640442643,0.0748967163104535,0.06114108642494954
0.07699999999999996,-0.0173,0.84,0.03345500205713756,1.1294786861778763,0.07599087389298101,0.059120356412045744
0.07800000000000007,-0.0061,0.84,0.03373548227049381,1.1267871658335438,0.07672160446742207,0.05864673782353483
0.07899999999999996,-0.0018,-0.16,0.03426540230810868,1.1267871658335438,0.07810219659141018,0.05864673782353483
0.08000000000000007,0.0074,-0.16,0.0342935641117646,1.1124314568553728,0.07817556608409754,0.056120607698740624
0.08099999999999996,0.0063,1.84,0.03428670524101652,1.1124314568553728,0.0781576967788022,0.056120607698740624
0.08200000000000007,-0.006000000000000333,0.84,0.03429193682586845,1.1124314568553728,0.07817132654240778,0.056120607698740624
0.08299999999999996,-0.0075,1.84,0.03398437311518929,1.1053483107025643,0.07737003576937079,0.05487420817210371
0.08400000000000007,-0.0030999999999992006,-1.16,0.03334737884782555,1.134057330889695,0.07571048488221016,0.05992604649359048
0.08499999999999996,0.0005,-1.16,0.03314224112256565,1.1340573308896948,0.07517604287639099,0.05992604649359044
0.08600000000000008,-0.0030999999999983124,-0.16000000000001388,0.033204922840678844,1.1197948289123487,0.07533934654525135,0.05741631771915681
0.08699999999999997,0.0045,-1.1599999999999862,0.03325625702344395,1.119794828912349,0.07547308666335645,0.05741631771915685
0.08800000000000008,0.007200000000003042,-0.16,0.032796016266903684,1.1225031154975686,0.07427402884610965,0.05789288661170702
0.08899999999999997,0.0209,0.84,0.03294623327298936,1.1436204236615946,0.07466538678838411,0.06160883462854297
0.09000000000000008,0.03470000000000122,-1.16,0.03303518148114989,1.1375150367616407,0.07489712211996734,0.06053448840189896
0.09099999999999997,0.0402,-1.16,0.032380491917576575,1.1225031154975689,0.07319146996309715,0.05789288661170706
0.09200000000000008,0.032299999999999045,-1.16,0.03204888729145339,1.1143585096247137,0.07232754578094268,0.05645970527031319
0.09299999999999997,0.028,1.84,0.03189326484991854,1.0476181299506833,0.07192210514490666,0.044715605143239474
0.09400000000000008,0.007699999999991385,-0.16,0.031595125779477484,1.0951188930306284,0.07114536823501987,0.05307416888602785
0.09499999999999997,-0.0311,-1.16,0.03004199038376724,1.1014593067516003,0.06709900964768316,0.05418987206227365
0.09600000000000009,-0.0788999999999958,-1.16,0.02946562003255364,1.097888052269237,0.06559740127113017,0.053561449352888674
0.09699999999999998,-0.06,-0.16,0.029430231223244518,1.097888052269237,0.06550520337721887,0.053561449352888674
0.09800000000000009,-0.030599999999994094,-0.16,0.02946610023812039,1.097888052269237,0.06559865234294533,0.053561449352888674
0.09899999999999998,-0.004,-1.16,0.029559540645060396,1.0943051430937176,0.06584209112752923,0.05293097580285757
0.10000000000000009,0.010300000000001022,-0.16,0.02970840818980668,1.0943051430937176,0.0662299333399491,0.05293097580285757
0.10099999999999998,0.0149,-1.16,0.029671895064256788,1.1006502445184168,0.06613480628307603,0.054047503859965706
0.10200000000000009,0.027000000000005662,0.84,0.029523400621181146,1.0851284468676334,0.06574793610641885,0.05131618068420157
0.10299999999999998,0.0525,0.84,0.029479021855036185,1.091526894198421,0.06563231682301186,0.052442095856958935
0.10400000000000009,0.016399999999992608,0.8399999999999861,0.029526959447406114,1.091526894198421,0.06575720785896279,0.052442095856958935
0.10499999999999998,-0.0169,-0.16,0.029526683727862393,1.0767011608949941,0.06575648953128413,0.04983325699174511
0.1060000000000001,-0.03859999999999732,-0.16,0.029541959318290553,1.0767011608949941,0.06579628678056217,0.04983325699174511
0.10699999999999998,-0.0265,-0.16,0.029630990774740358,1.0795175660060097,0.06602823899757028,0.05032885117001795
0.1080000000000001,-0.022699999999996338,0.84,0.029729704969005292,1.07951756600601,0.06628541749518176,0.050328851170017994
0.10899999999999999,-0.0062,-3.16,0.02973458531277782,1.07951756600601,0.06629813217607027,0.050328851170017994
0.10999999999999988,-0.0329,0.84,0.02971687773120165,1.0767011608949943,0.06625199889949335,0.049833256991745144
0.11099999999999999,-0.0147,0.84,0.02981839905010369,1.083149391556731,0.06651649075363024,0.0509679323847197
0.11199999999999988,0.0151,0.84,0.03000347877076819,1.0986991485328481,0.06699867596370344,0.05370417547729896
0.11299999999999999,0.0032,-2.16,0.030175051921147018,1.0923427138172876,0.06744567272413353,0.052585653135721735
0.11399999999999988,0.0141,0.84,0.030578220557794248,1.0923427138172876,0.06849604146825473,0.052585653135721735
0.11499999999999999,0.0043,-0.16,0.03055438527288229,1.0923427138172879,0.06843394378504468,0.05258565313572178
0.11599999999999988,0.025,-1.16,0.030417955147191266,1.1077634309665605,0.06807850457981761,0.05529918948533307
0.11699999999999999,0.0275,-0.16,0.030399127358639318,1.1077634309665605,0.0680294528460807,0.05529918948533307
0.11799999999999988,0.0641,-0.15999999999998613,0.030333463490576543,1.1077634309665605,0.0678583798300723,0.05529918948533307
0.119,0.0905,0.8399999999999861,0.030297619075948405,1.1077634309665603,0.06776499495497433,0.05529918948533303
0.11999999999999988,0.0666,-0.16,0.03032525627331117,1.1159561708756933,0.06783699769935041,0.05674084082561407
0.121,0.0534,-0.16,0.030301605098101696,1.1042125655292228,0.06777537967417772,0.05467435457373177
0.12199999999999989,0.0095,-0.16,0.030341541225699407,1.1186737508131899,0.06787942462305746,0.05721904504089073
0.123,-0.0268,-0.16,0.030586733318296512,1.121384744947675,0.0685182196258419,0.057696090372589555
0.12399999999999989,-0.0326,-0.16,0.030807667517681873,1.1186737508131899,0.06909381593083147,0.05721904504089073
0.125,-0.0482,0.84,0.030806376473861984,1.1371950599741967,0.0690904523951979,0.06047818306698125
0.1259999999999999,-0.0529,0.84,0.03090925164328922,1.1554195117363129,0.06935847141426432,0.06368508400612288
0.127,-0.0486,-0.16,0.03131896519202809,1.1527885593889575,0.07042589151225881,0.06322212338246729
0.1279999999999999,-0.0607,-0.16,0.031405958877019025,1.1561902489522409,0.0706525347561636,0.06382070827256743
0.129,-0.0137,-0.16,0.03140832425725825,1.1535610544437314,0.07065869724313657,0.06335805697042773
0.1299999999999999,-0.0076,-0.16,0.031432577968153706,1.1535610544437314,0.0707218850448103,0.06335805697042773
0.131,0.0098,-1.16,0.03157112568535051,1.1561902489522409,0.07108284117702106,0.06382070827256743
0.1319999999999999,0.0148,1.84,0.03190602635697571,1.1448594264490874,0.0719553524933418,0.06182685815290871
0.133,0.0007,2.84,0.03259615817623355,1.142204150266677,0.07375334178710279,0.061359617338523666
0.1339999999999999,-0.0123,-1.16,0.03321551275801792,1.1280446578042018,0.07536693628603151,0.0588680148328136
0.135,-0.0481,-0.16,0.033328407532702095,1.1245578335000925,0.07566105922101224,0.0582544490432125
0.1359999999999999,-0.0433,1.84,0.03334966022088137,1.1183483832551167,0.0757164285066236,0.057161791108582036
0.137,-0.0216,0.84,0.03334880762698389,1.1245578335000925,0.0757142072574987,0.0582544490432125
0.1379999999999999,-0.0335,-2.16,0.03338201367096152,1.1245578335000925,0.07580071842810976,0.0582544490432125
0.139,-0.0517,-0.16,0.033394815837052436,1.1307331849041622,0.07583407170486951,0.059341106709283276
0.1399999999999999,-0.022,-1.16,0.03334046902610445,1.1342010247560559,0.07569248283516689,0.05995133186299398
0.14100000000000001,0.0139,-1.1599999999999722,0.0331619595627761,1.142204150266677,0.07522741501052355,0.061359617338523666
0.1419999999999999,0.0281,-0.16000000000008327,0.03292756829686663,1.1360911522977957,0.07461675922724216,0.060283931815399844
0.14300000000000002,0.0411,-3.1599999999999446,0.032835438687321486,1.1326290995798918,0.07437673544196198,0.05967472500592627
0.1439999999999999,0.045,-1.1599999999999444,0.03283291306325959,1.1210601642071871,0.07437015547434328,0.05763897489416064
0.14500000000000002,0.0485,0.84,0.03292166194666578,1.1353067702863697,0.07460137150836005,0.060145906516097476
0.1459999999999999,0.0321,1.84,0.03278035031420902,1.1291564320770526,0.074233214592317,0.05906365034527001
0.14700000000000002,0.0171,0.84,0.03181151619434538,1.1291564320770526,0.0717091266915179,0.05906365034527001
0.1479999999999999,-0.0236,0.84,0.03124214875170864,1.17336093840397,0.0702257628796916,0.06684218188654602
0.14900000000000002,-0.0295,-1.16,0.031133065276726497,1.17336093840397,0.06994156946233103,0.06684218188654602
0.1499999999999999,-0.0139,-1.16,0.031288103869472,1.17336093840397,0.07034548900653631,0.06684218188654602
0.15100000000000002,0.0099,-1.16,0.03132411540003163,1.1935787870460928,0.07043930926607425,0.07039985476714399
0.1519999999999999,0.0142,-1.16,0.03133048203259469,1.1877302329777304,0.07045589615116818,0.06937070262697151
0.15300000000000002,0.0182,0.84,0.031545464178128244,1.1851710091317718,0.0710159856662912,0.06892036384793955
0.15399999999999991,0.0072,-0.16,0.03150183213862325,1.1826062470000362,0.07090231181775124,0.06846905051372804
0.15500000000000003,-0.0093,0.84,0.031461257650466354,1.182606247000036,0.0707966037584063,0.068469050513728
0.15599999999999992,-0.0301,0.84,0.03145649207487838,1.182606247000036,0.07078418808121725,0.068469050513728
0.15700000000000003,-0.0327,-0.16,0.031395511994247574,1.196120021707408,0.07062531766103468,0.07084702804447086
0.15799999999999992,-0.0161,0.84,0.03128955455788296,1.201927751941196,0.07034926846164721,0.0718689965395524
0.15900000000000003,0.0085,-0.16,0.03146483302692292,1.201927751941196,0.07080591862900158,0.0718689965395524
0.15999999999999992,0.0248,-1.16,0.031906774767757475,1.1614307825514456,0.07195730231587627,0.0647428689136808
0.16100000000000003,0.0335,-2.16,0.032115316958407136,1.1588134781815198,0.07250061392044593,0.06428230988279779
0.16199999999999992,0.0361,-0.16,0.03212365711506599,1.1588134781815198,0.07252234239602476,0.06428230988279779
0.16300000000000003,0.0528,-0.16,0.03209331936254145,1.1561902489522389,0.0724433039388579,0.06382070827256707
0.16399999999999992,0.0281,-0.16,0.03217145799919025,1.135306770286368,0.07264687726818897,0.060145906516097164
0.16500000000000004,-0.0015,-2.16,0.032398209212602856,1.13262909957989,0.07323762854596892,0.05967472500592596
0.16599999999999993,0.0185,-0.16,0.03244508229458815,1.138760682396543,0.07335974623019015,0.060753680847770504
0.16700000000000004,0.0149,-1.16,0.03241761355655098,1.138760682396543,0.07328818237017702,0.060753680847770504
0.16799999999999993,0.0117,0.84,0.03281719263997239,1.1448594264490852,0.07432919930919475,0.061826858152908316
0.16900000000000004,0.0146,1.84,0.032368204466166166,1.1655717633176885,0.07315945766418985,0.06547154461167008
0.16999999999999993,0.0011,0.84,0.03143654659569413,1.1689362534191856,0.07073222444610944,0.06606358362645419
0.17100000000000004,-0.021,1.84,0.03204358235312676,1.189229327620144,0.07231372491071299,0.06963449371815879
0.17199999999999993,-0.0419,0.8399999999999722,0.03244238166673279,1.1950705452938535,0.07335271032801194,0.07066235489544198
0.17300000000000004,-0.0396,-0.16000000000005551,0.03246463791685636,1.1950705452938535,0.07341069417736476,0.07066235489544198
0.17399999999999993,-0.0129,-2.16,0.03281977269207833,1.1950705452938535,0.07433592107731844,0.07066235489544198
0.17500000000000004,0.0269,-2.1599999999999446,0.03313898507964872,1.1950705452938535,0.07516755996031424,0.07066235489544198
0.17599999999999993,0.0533,-0.16,0.03290379446655874,1.2059296802350707,0.07455482165072055,0.07257320360001841
0.17700000000000005,0.0294,-1.16,0.0325327348448959,1.2619369041281718,0.07358810600527435,0.0824286231893672
0.17799999999999994,0.0076,-0.16,0.03300946481877711,1.2746098700725714,0.07483012291441377,0.08465864617822257
0.17900000000000005,-0.0123,-0.16,0.033813649487703525,1.2769898614825919,0.07692525225722735,0.08507744597464822
0.17999999999999994,-0.0302,0.84,0.034376750402298824,1.2793654254247455,0.07839228998465478,0.08549546668311858
0.18100000000000005,-0.0463,0.84,0.03444281890729533,1.2817365865165713,0.078564417194738,0.08591271263550652
0.18199999999999994,-0.0668,-0.16,0.03443721373569036,1.2817365865165713,0.07854981413159237,0.08591271263550652
0.18300000000000005,-0.0641,-0.16,0.034412791408909064,1.269134786509821,0.0784861870376718,0.08369521249865577
0.18399999999999994,-0.0274,0.84,0.034430307687822084,1.2403860429090234,0.07853182191650698,0.0786363841697736
0.18500000000000005,-0.0117,-0.16,0.03443979452328708,1.234759215752779,0.07855653781587833,0.07764624863498303
0.18599999999999994,0.0025,-1.16,0.03410164882208952,1.2403860429090232,0.07767557227636974,0.07863638416977357
0.18700000000000006,0.0157,-1.16,0.03385067207007384,1.2273597535187808,0.07702170659373483,0.07634418793669202
0.18799999999999994,0.0118,-1.16,0.03379758799270699,1.2248833328585915,0.07688340750345753,0.0759084197805613
0.18900000000000006,0.0083,-1.16,0.03394212307784813,1.224883332858591,0.0772599624287703,0.07590841978056122
0.18999999999999995,-0.0014,1.84,0.03446732094800711,1.2305553192245595,0.07862825196607554,0.07690650184312477
0.19100000000000006,0.0073,-0.16,0.03539690719212405,1.2248833328585906,0.08105008800943773,0.07590841978056113
0.19199999999999995,0.0208,0.84,0.03608569928818026,1.2248833328585909,0.08284458694395733,0.07590841978056118
0.19300000000000006,0.0277,0.84,0.03637176441288346,1.2273597535187801,0.08358986779782068,0.0763441879366919
0.19399999999999995,0.0255,1.84,0.0362695637705277,1.187730232977729,0.0833236061132504,0.06937070262697129
0.19500000000000006,0.0074,-0.16,0.03601994430142975,1.1953750301299029,0.08267327653790191,0.07071593415913818
0.19599999999999995,0.0006,-1.16,0.036690710032855095,1.1986558687848,0.08442081167549562,0.07129325328516165
0.19700000000000006,-0.0057,-3.16,0.03775386292185864,1.1851710091317709,0.08719062674374604,0.06892036384793938
0.19799999999999995,0.0166,-0.16,0.03834576627396263,1.1884800166601865,0.08873270299690111,0.06950263976433002
0.19900000000000007,0.0316,-1.16,0.0383939844710976,1.1993988225121404,0.08885832508791898,0.07142398857624456
0.19999999999999996,0.0183,-2.16,0.03829093407987137,1.1961200217074086,0.08858984956632676,0.07084702804447097
0.20100000000000007,0.0162,-0.16,0.0382975742811008,1.2037115363151032,0.08860714917545329,0.07218288361053692
0.20199999999999996,0.0457,-0.16,0.038298648282198526,1.200444514979301,0.08860994725318468,0.07160799587582006
0.20300000000000007,0.0498,-0.16,0.03830328157612213,1.1946295739629087,0.08862201829908783,0.07058475852141656
0.20399999999999996,0.0028,0.8399999999999722,0.038261160928394204,1.1920851620349486,0.08851228205515906,0.07013702615021294
0.20500000000000007,-0.016,-0.1599999999999445,0.03825602095341019,1.1920851620349486,0.08849889096126429,0.07013702615021294
0.20599999999999996,-0.0333,1.8399999999999168,0.038250414389590634,1.1920851620349486,0.08848428427100445,0.07013702615021294
0.20700000000000007,-0.006800000000007394,-1.1599999999999444,0.03817071505143818,1.1920851620349486,0.0882766448712271,0.07013702615021294
0.20799999999999996,-0.0401,0.84,0.03808431051488419,1.194629573962909,0.08805153652623943,0.0705847585214166
0.20900000000000007,-0.05309999999999911,0.84,0.03812060569481929,1.1920851620349486,0.08814609577291874,0.07013702615021294
0.20999999999999996,-0.0491,-0.16,0.03819741615653328,1.194629573962909,0.08834620882952161,0.0705847585214166
0.21100000000000008,-0.01639999999999516,0.84,0.03812830767797489,1.194629573962909,0.08816616162536617,0.0705847585214166
0.21199999999999997,0.0054,-0.16,0.037998296188289205,1.1770123938665795,0.08782744478896212,0.06748471731669914
0.21300000000000008,-0.022400000000004017,-0.16,0.03786477254989848,1.1770123938665795,0.0874795778082037,0.06748471731669914
0.21399999999999997,-0.0405,-0.16,0.03750487396221206,1.182913940180191,0.08654193982449826,0.06852319433990647
0.21500000000000008,-0.017699999999991386,-1.16,0.03741605309930072,1.182913940180191,0.08631053626343808,0.06852319433990647
0.21599999999999997,0.0211,-1.16,0.03742360161908482,1.1625106282346185,0.08633020230023979,0.06493288605003679
0.21700000000000008,0.05809999999999469,-1.16,0.037382497177376385,1.1762553003681941,0.08622311356145759,0.06735149389342793
0.21799999999999997,0.0342,-2.16,0.03739276958012368,1.1729118050945235,0.08624987608659473,0.06676314927417093
0.21900000000000008,0.04720000000000975,-1.16,0.03756084623117105,1.1729118050945235,0.08668776347373096,0.06676314927417093
0.21999999999999997,0.0911,-2.16,0.03760932859353043,1.165119627420875,0.0868140737901458,0.06539198364319558
0.22100000000000009,0.07369999999998705,-1.16,0.03760961046934235,1.1684854193850842,0.08681480815665066,0.06598425174277239
0.22199999999999998,0.0154,-0.16,0.03759776825743795,1.1572749845532064,0.08678395583304463,0.06401158587277529
0.2230000000000001,-0.055000000000000264,-0.16,0.03736541576721053,1.1606635253107602,0.08617861163915298,0.0646078570078175
0.22399999999999998,-0.0562,-0.16,0.03716093282534639,1.1606635253107602,0.08564587552995018,0.0646078570078175
0.2250000000000001,-0.02789999999999816,1.84,0.037185830309950436,1.1425227242009397,0.08571074054487993,0.061415675817665216
0.22599999999999998,-0.0196,3.84,0.03717068625048951,1.1213847449476748,0.08567128597110864,0.05769609037258951
0.2270000000000001,-0.07400000000000469,1.84,0.03697607865413894,1.1213847449476748,0.08516427794023829,0.05769609037258951
0.22799999999999998,-0.0951,0.84,0.03713423686150208,1.1151576263669065,0.08557632496607338,0.05660032339504323
0.2290000000000001,-0.06329999999999093,0.84,0.03731470091284069,1.1151576263669067,0.08604648504732351,0.05660032339504326
0.22999999999999998,-0.0225,0.84,0.037332879919060445,1.129478686177874,0.08609384651891813,0.05912035641204535
0.2310000000000001,-0.007099999999996892,-1.16,0.03722176157583941,1.1294786861778738,0.08580435169216644,0.05912035641204531
0.23199999999999998,0.0069,-0.16,0.03717161934565995,1.1267871658335413,0.08567371694890112,0.0586467378235344
0.2330000000000001,0.011200000000000866,0.84,0.03661958045282727,1.1329503659226516,0.08423549892829135,0.05973125725994188
0.23399999999999999,0.0151,-0.16,0.036050526803349726,1.1356272791225035,0.08275295263671979,0.060202305473992995
0.2350000000000001,0.004200000000002153,-1.1599999999999722,0.035946894584227264,1.1390802193881489,0.08248296128829702,0.06080990879316205
0.236,0.0139,-0.16,0.035934196628812025,1.1531042091186616,0.08244987950992923,0.06327766729829207
0.23699999999999988,0.011,-0.16000000000005551,0.035935590254317674,1.149693388679345,0.0824535102999736,0.06267747567591221
0.238,0.0462,-2.1599999999999726,0.03590238336892529,1.1496933886793443,0.08236699693723826,0.0626774756759121
0.23899999999999988,0.0795,-1.1599999999999722,0.03588509749396212,1.143620423661586,0.08232196232609615,0.06160883462854144
0.24,0.0838,-0.16,0.03587777053569347,1.151558087872531,0.08230287351993586,0.06300560107973237
0.24099999999999988,0.0717,-1.16,0.03588243998943882,1.143620423661586,0.08231503877243918,0.06160883462854144
0.242,0.0536,0.84,0.035905977065633365,1.1496933886793441,0.08237635953728921,0.06267747567591206
0.24299999999999988,0.0307,0.84,0.035846884750649274,1.1677227974327893,0.0822224072824878,0.0658500554944052
0.244,-0.014,1.84,0.03574649714844687,1.1651196274208704,0.08196086908217648,0.06539198364319476
0.24499999999999988,-0.0847,-1.16,0.03567574636528089,1.1538764928528686,0.08177654320832468,0.06341356370081982
0.246,-0.0943,-0.16,0.03572226420012707,1.1538764928528686,0.08189773537290611,0.06341356370081982
0.2469999999999999,-0.069,-1.16,0.03572226593315319,1.1478256601946777,0.08189773988793109,0.06234881721695149
0.248,-0.0304,1.84,0.03584489286197881,1.1170799762845565,0.08221721784707281,0.05693859342021268
0.2489999999999999,-0.0094,0.84,0.03585416314422416,1.1232964381555717,0.08224136956383499,0.058032485169194535
0.25,-0.0156,1.84,0.03574633035919585,1.11979482891234,0.08196043454883188,0.057416317719155285
0.2509999999999999,-0.0099,0.84,0.03570375300104913,1.1009808423344847,0.08184950844461782,0.05410567814474887
0.252,-0.015,-0.16,0.03566837721636558,1.1154839246145032,0.08175734448355336,0.056657741097935845
0.2529999999999999,-0.0009,-0.16,0.03537714611019685,1.121709231766621,0.08099860478152852,0.05775318932393251
0.254,0.0033,-0.16,0.03522578133358413,1.1359476975267329,0.0806042565712187,0.060258688518863374
0.2549999999999999,0.0071,0.84,0.035797807177198125,1.1332715411909782,0.08209454627221902,0.0597877734878685
0.256,0.0178,0.84,0.03610469913204808,1.1393996667677517,0.08289408693063263,0.060866120969804004
0.2569999999999999,0.0208,0.84,0.03600007004280657,1.1313767030930644,0.08262149845257274,0.05945434463332525
0.258,0.0235,-0.16,0.03600063513175313,1.1252048834521848,0.08262297066968778,0.05836830844080216
0.2589999999999999,0.0258,0.84,0.03579029405754933,1.1225031154975622,0.08207497246281864,0.05789288661170589
0.26,0.009,-1.16,0.03549245761209172,1.1225031154975622,0.08129902397691853,0.05789288661170589
0.2609999999999999,0.0111,0.84,0.035325180545603456,1.1225031154975622,0.08086321973453324,0.05789288661170589
0.262,0.0168,-0.16,0.03569703865787483,1.1197948289123423,0.08183201567467857,0.057416317719155674
0.2629999999999999,-0.0071,-1.16,0.03588667066125483,1.1197948289123423,0.08232606087346155,0.057416317719155674
0.264,-0.0104,-0.16,0.035945936756492186,1.125996302576483,0.08248046587515293,0.05850757203929582
0.2649999999999999,-0.0075,-0.16,0.03571472732061774,1.1286897088477514,0.08187809966232444,0.05898152248859141
0.266,-0.005,1.84,0.03567181925691175,1.1286897088477514,0.0817663119762526,0.05898152248859141
0.2669999999999999,-0.0169,0.84,0.03564699728662274,1.1225031154975622,0.08170164369754943,0.05789288661170589
0.268,-0.0371,0.84,0.03527652959075782,1.1162822357023536,0.08073647018683411,0.05679821745413969
0.2689999999999999,-0.0237,-1.16,0.03515402606623987,1.0974080308041216,0.0804173137309441,0.053476981446397995
0.27,-0.0015,-1.16,0.034839224493420286,1.0974080308041216,0.07959716627245216,0.053476981446397995
0.2709999999999999,0.0192,0.84,0.03365130307129157,1.0753836324582975,0.07650229375793216,0.049601415549481734
0.272,0.0058,-1.16,0.032851296488866547,1.0753836324582975,0.07441804951646919,0.049601415549481734
0.2729999999999999,0.008,-0.16,0.03298865437952966,1.0818397161854851,0.07477590581280899,0.0507374728223229
0.274,0.0191,0.84,0.03313545174225308,1.0965959795668203,0.07515835461340611,0.05333408727819338
0.2749999999999999,0.0247,-0.16,0.03305376647312683,1.0965959795668203,0.07494554129970478,0.05333408727819338
0.276,0.0373,-0.16,0.0329341900504743,1.0818397161854851,0.07463401077507734,0.0507374728223229
0.2769999999999999,0.0452,-0.16,0.03302616993469732,1.0198103962510547,0.07487364448339152,0.03982236344352953
0.278,0.0376,-0.16,0.032196613695059974,1.0069461052404054,0.07271241499676306,0.03755867356896223
0.2789999999999999,0.0173,1.84,0.030806224989374957,1.0069461052404056,0.06909005773510797,0.03755867356896227
0.28,-0.0096,0.84,0.030153605349153696,1.0039261294616804,0.06738979831614966,0.03702725768400758
0.2809999999999999,-0.0421,-0.16,0.030601771331965247,1.016828628068084,0.0685573979202218,0.039297670832136485
0.28200000000000003,-0.0202,-1.159999999999889,0.03066429917944951,1.0129590464301332,0.06872030071241522,0.03861675240721983
0.2829999999999999,-0.0002,0.839999999999889,0.030812249167431142,1.0129590464301332,0.06910575242900048,0.03861675240721983
0.28400000000000003,-0.0038,-1.1599999999998334,0.030993261349619126,1.0099570507213331,0.06957734054670864,0.03808850042008119
0.2849999999999999,-0.0069,1.8399999999999446,0.03238547936469151,1.0257479296530685,0.07320446367859558,0.04086717300442311
0.28600000000000003,-0.0037,0.839999999999889,0.03287062855698457,1.0219121224808816,0.07446841504162327,0.040192197768766195
0.2869999999999999,-0.001,-1.1599999999999444,0.03303348961839062,1.0219121224808816,0.07489271433721803,0.040192197768766195
0.28800000000000003,-0.003,-0.15999999999988898,0.03314656630910625,1.0219121224808814,0.07518731121510037,0.040192197768766154
0.2889999999999999,0.0038,1.84,0.03284825642504577,1.0051751944394034,0.07441012928724691,0.03724705182115883
0.29000000000000004,-0.0058,-1.16,0.03187857764413386,1.0141969867067382,0.07188384080464696,0.03883458896480003
0.2909999999999999,-0.0146,-1.16,0.030773201468645872,1.0171864692808,0.06900402208937143,0.03936063905395744
0.29200000000000004,0.0004,-2.16,0.03007715933150775,1.0103173257600064,0.06719063473979711,0.03815189691479893
0.2929999999999999,0.0063,-0.16,0.029651695637598167,1.0231392301020241,0.06608218104271053,0.04040812813715457
0.29400000000000004,0.0118,0.84,0.029630836626726477,1.0269704539508133,0.06602783739823682,0.041082296859435916
0.29499999999999993,0.0198,-0.16,0.029764888556442503,1.0180618630315172,0.06637708072786133,0.039514679410174336
0.29600000000000004,-0.0002,-0.16,0.028902902442517378,1.0111986661394066,0.06413136221299164,0.03830698368104542
0.29699999999999993,-0.03,1.84,0.02774824635396718,1.0269704539508115,0.06112315533532328,0.0410822968594356
0.29800000000000004,-0.0181,-1.16,0.027273975470913647,1.0231392301020215,0.05988754505584095,0.040408128137154095
0.29899999999999993,-0.0144,0.84,0.027333100953862544,1.0141969867067344,0.06004158372260593,0.03883458896479936
0.30000000000000004,-0.0046,0.84,0.02732133601592816,1.014196986706734,0.060010932719627215,0.038834588964799285
0.30099999999999993,-0.0016,1.84,0.027336836394703398,0.9982234003263977,0.060051315606359026,0.036023765910519805
0.30200000000000005,0.0009,-1.16,0.027705923745175505,0.9982234003263972,0.06101289292549367,0.03602376591051973
0.30299999999999994,0.0375,1.84,0.02774143389164883,0.9982234003263972,0.06110540693716116,0.03602376591051973
0.30400000000000005,0.064,-0.16,0.027907199414125512,1.0012605766742773,0.06153727317832112,0.03655820852692819
0.30499999999999994,0.0499,-1.16,0.027921967572880062,1.0171864692807948,0.06157574842404707,0.039360639053956537
0.30600000000000005,0.0194,-1.16,0.028030676109130275,1.0520522250220055,0.06185896501957879,0.045495859267428024
0.30699999999999994,0.0075,-0.16,0.0285930266659691,1.0491620936398918,0.06332404785204994,0.0449872917031181
0.30800000000000005,-0.0105,-0.16,0.030175414204135227,1.0462639787777888,0.06744661657415744,0.04447731931029484
0.30899999999999994,-0.0266,0.84,0.03150800556830933,1.0615149005896019,0.07091839535450699,0.04716097729460503
0.31000000000000005,-0.0351,-0.16,0.031977726772766064,1.0615149005896019,0.072142152429748,0.04716097729460503
0.31099999999999994,-0.0538,-0.16,0.03196756189034358,1.0615149005896019,0.0721156700255783,0.04716097729460503
0.31200000000000006,-0.037,-0.16,0.0320090169596357,1.0615149005896019,0.07222367224874705,0.04716097729460503
0.31299999999999994,-0.0304,-1.16,0.032075575357406884,1.0680548200962536,0.07239707576857196,0.04831178689269617
0.31400000000000006,-0.0003,0.84,0.03213139061545598,1.0615149005896019,0.0725424903598144,0.04716097729460503
0.31499999999999995,0.004,-1.16,0.03211517824177361,1.0615149005896019,0.07250025252423874,0.04716097729460503
0.31600000000000006,-0.0159,-0.16,0.03213106670103126,1.061514900589602,0.0725416464707899,0.04716097729460507
0.31699999999999995,-0.0267,-0.16,0.032127147801671016,1.046263978777789,0.07253143662551624,0.04447731931029488
0.31800000000000006,-0.0169,0.84,0.03208288372559361,1.0500108296594404,0.07241611614229178,0.04513664118005719
0.31899999999999995,-0.002,-1.16,0.031878197045413594,1.0537443577624903,0.07188284923694183,0.04579361868128833
0.32000000000000006,0.0114,-0.16,0.03185122529048275,1.0471150638584066,0.07181258015899705,0.04462708214431305
0.32099999999999995,0.0092,-1.16,0.031895002575289655,1.0433578139090243,0.07192663241277863,0.04396593038246357
0.32200000000000006,0.0339,-1.16,0.03194109841257856,1.0404435315778104,0.07204672515393283,0.04345311304963598
0.32299999999999995,0.0636,1.84,0.03206039722183094,1.0366621017901299,0.07235753241684802,0.042787706435725145
0.32400000000000007,0.0516,-0.16,0.03205295671835457,1.0395869846871117,0.07233814779319005,0.04330238911763214
0.32499999999999996,0.0012,-0.16,0.03217744740763715,1.0395869846871117,0.07266248137737939,0.04330238911763214
0.32600000000000007,-0.0314,-1.16,0.03215949033227832,1.0395869846871117,0.07261569809867598,0.04330238911763214
0.32699999999999996,-0.0096,0.84,0.03210766826356789,1.0462639787777888,0.07248068689918932,0.04447731931029484
0.32800000000000007,0.0182,0.84,0.03204018181355187,1.046263978777789,0.07230486553982464,0.04447731931029488
0.32899999999999996,-0.0072,-0.16,0.031991816635340724,1.046263978777789,0.07217886052138048,0.04447731931029488
0.33000000000000007,-0.0567,1.84,0.031977191808168555,1.0307874380308029,0.07214075869511352,0.04175395985323045
0.33099999999999996,0.0211,0.84,0.0319637572018794,1.0278375148627312,0.07210575773210941,0.04123487091154005
0.3320000000000001,0.031099999999985323,-0.16,0.031683030933699514,1.0345903399492398,0.07137438611500631,0.042423144852202554
0.33299999999999996,-0.035,-0.16,0.03172226503287283,1.0345903399492409,0.07147660208055887,0.04242314485220275
0.3340000000000001,-0.09489999999999141,1.84,0.03172558508279745,1.0345903399492418,0.07148525175306004,0.04242314485220291
0.33499999999999996,-0.0562,0.84,0.03188917778437752,1.0345903399492438,0.0719114571789955,0.042423144852203255
0.3360000000000001,-0.035299999999998645,-0.16,0.03188940224025124,1.0257479296530698,0.07191204195026181,0.04086717300442334
0.33699999999999997,-0.0292,-0.16,0.03196694189097257,1.038379314427282,0.0721140547512204,0.043089879082160325
0.3380000000000001,-0.011899999999996582,-1.16,0.03207713003498494,1.0345903399492462,0.07240112614498209,0.042423144852203686
0.33899999999999997,0.0035,1.84,0.03208115185953681,1.0345903399492464,0.07241160413959684,0.04242314485220373
0.3400000000000001,0.008100000000004819,0.84,0.032398918011531275,1.0257479296530714,0.073239475168381,0.040867173004423614
0.34099999999999997,0.0298,-0.16,0.03296098428655554,1.0189365047099226,0.07470381736602744,0.03966858742653075
0.3420000000000001,0.017800000000002397,1.84,0.03293696102792785,1.0278375148627379,0.07464122995792866,0.041234870911541224
0.34299999999999997,0.0286,-1.16,0.03293708050209048,1.0201671915577637,0.0746415412220369,0.03988514762047497
0.3440000000000001,0.03180000000000329,-1.1599999999999444,0.03293890100588807,1.0358024278870357,0.07464628415120778,0.04263643225293085
0.345,0.0466,-0.15999999999988898,0.03300812105655898,1.0358024278870357,0.07482662203238784,0.04263643225293085
0.3460000000000001,0.04909999999999951,1.8399999999999446,0.03333781990395292,1.0425036614677985,0.07568558111996784,0.04381562779439718
0.347,0.0469,0.839999999999889,0.03344460504138619,1.0425036614677987,0.07596378671559491,0.043815627794397224
0.3480000000000001,0.0356999999999933,-1.159999999999889,0.033311520390361136,1.0337289431205028,0.07561706342153743,0.042271567491461715
0.349,0.0055,0.8399999999999445,0.03329494461488421,1.0269704539508153,0.07557387882112972,0.04108229685943626
0.3500000000000001,0.018500000000006196,-0.1599999999999445,0.03342709162378181,1.024009535036189,0.07591815929128096,0.04056127302991425
0.351,0.0464,0.8399999999999445,0.03369645511649713,1.0278375148627379,0.07661992765279925,0.041234870911541224
0.3520000000000001,0.020900000000002153,-0.16,0.0338095699725868,1.012079239028934,0.07691462396231481,0.03846193539445049
0.353,0.0306,0.84,0.03412766521912871,1.012079239028934,0.07774335237581365,0.03846193539445049
0.3540000000000001,0.009799999999992183,1.84,0.034010168263425684,0.9960716917910891,0.07743723945287853,0.03564513635212705
0.355,-0.0254,2.84,0.03344244489644049,0.9991154090646756,0.0759581589248208,0.0361807299551915
0.3560000000000001,-0.05890000000000877,-0.16,0.033166366960764845,0.9951769548760144,0.07523889753339234,0.03548769223854322
0.357,-0.0984,-0.16,0.033254734269053,0.9881548243869523,0.07546911945591063,0.0342520294513114
0.3580000000000001,-0.0933999999999926,1.84,0.03334675357753371,0.9881548243869522,0.07570885587560726,0.03425202945131138
0.359,-0.0601,0.84,0.033330047955504746,0.9912228520378856,0.07566533298807254,0.03479190087699362
0.3600000000000001,-0.003299999999994871,-1.16,0.03330513002494351,0.9912228520378855,0.0756004147056204,0.034791900876993596
0.361,0.0198,0.84,0.0333061916384221,0.9942814128027485,0.07560318051008755,0.03533010644373938
0.3620000000000001,0.026699999999998624,-1.16,0.0328803235406886,1.0012605766742833,0.0744936732262434,0.036558208526929245
0.363,0.0205,-0.16,0.032669121793091456,1.0081914287273048,0.07394343272086915,0.03777780932743671
0.3639999999999999,0.0031,-0.16,0.03255949902471231,1.0042885680147042,0.07365783429112262,0.037091034885716856
0.365,-0.0125,-0.16,0.0326405398188764,1.0081914287273046,0.07386896856460334,0.03777780932743667
0.3659999999999999,0.0016,-0.16,0.03264459583557646,1.0248791009266824,0.07387953563947008,0.04071428787542337
0.367,-0.0027,-1.16,0.032718987922633745,1.0278375148627317,0.07407334814359919,0.041234870911540135
0.3679999999999999,0.0093,-1.16,0.032764872348348746,1.0307874380308037,0.0741928900975909,0.04175395985323061
0.369,0.0202,-0.16,0.032736097691954215,1.0307874380308035,0.07411792394955175,0.04175395985323057
0.3699999999999999,0.017,0.84,0.032735843856864066,1.0471150638584072,0.0741172626370869,0.04462708214431317
0.371,0.0258,-0.16,0.032741704680583,1.053744357762491,0.07413253174656022,0.045793618681288444
0.3719999999999999,0.0284,0.84,0.03274340746668073,1.0471150638584072,0.07413696798770697,0.04462708214431317
0.373,-0.0034,0.84,0.032593936524389897,1.0631919730304047,0.07374755375339982,0.04745608659367317
0.3739999999999999,-0.0338,0.84,0.03203777960894192,1.050858880189616,0.07229860711491277,0.04528587003353156
0.375,-0.0218,-0.16,0.03170492940641654,1.050858880189616,0.07143143785265445,0.04528587003353156
0.3759999999999999,0.0325,-1.16,0.03174660738881321,1.0537443577624912,0.0715400208277379,0.045793618681288485
0.377,0.0401,-0.16,0.03162209426724327,1.0500108296594413,0.07121562880107224,0.04513664118005734
0.3779999999999999,0.0332,-0.16,0.0316323546948829,1.0471150638584075,0.07124236012765461,0.044627082144313206
0.379,0.0143,-0.16,0.03160067194415531,1.0471150638584072,0.07115981756837027,0.04462708214431317
0.3799999999999999,-0.003,-0.16,0.031592258913077785,1.0471150638584075,0.07113789923424427,0.044627082144313206
0.381,0.002,-1.16,0.031084278527597722,1.0345903399492404,0.06981446613197703,0.04242314485220267
0.3819999999999999,0.026,-1.16,0.03101769113526854,1.031651290927983,0.06964098707309797,0.04190596940081013
0.383,-0.0044,0.84,0.03091196246165798,1.038379314427277,0.06936553386562269,0.043089879082159464
0.3839999999999999,-0.0323,-1.16,0.030711749328330956,1.0450640244442204,0.06884392181971027,0.04426616702272663
0.385,-0.007,-1.16,0.02922053965737185,1.0450640244442204,0.06495889732392533,0.04426616702272663
0.3859999999999999,0.0228,1.84,0.028677823031897746,1.0421545133734433,0.06354496645605447,0.043754189273979546
0.387,0.0268,0.84,0.028491607647066052,1.0488151621242547,0.06305982251844987,0.04492624322726617
0.3879999999999999,-0.0058,-0.16,0.028339499800910786,1.0488151621242547,0.06266353840104992,0.04492624322726617
0.389,-0.0452,-1.16,0.028314071212559494,1.0450640244442204,0.06259728971009658,0.04426616702272663
0.3899999999999999,-0.0607,-0.16,0.028312222311736156,1.0363109855920738,0.06259247279861267,0.04272592159412929
0.391,-0.0076,1.84,0.02831582148740019,1.0400936919205848,0.0626018496728992,0.04339155283701888
0.3919999999999999,-0.0007,1.84,0.028170205853987728,1.0467674538932132,0.06222247961260928,0.04456591428377138
0.393,-0.0068,1.84,0.028128964784073552,1.0467674538932135,0.06211503491856709,0.04456591428377142
0.3939999999999999,-0.0241,0.84,0.02798560619434215,1.0628496211069416,0.0617415450977631,0.047395843974624784
0.395,-0.0505,-1.16,0.027807673414643404,1.0591481898077313,0.061277979697675455,0.04674451444962472
0.3959999999999999,-0.0265,-0.16,0.027468720344714592,1.0591481898077313,0.060394910733437855,0.04674451444962472
0.397,-0.0047,-1.16,0.02704406809434917,1.0467674538932155,0.059288571077124624,0.044565914283771775
0.3979999999999999,0.0152,-0.16,0.02681647375108675,1.059148189807733,0.05869562320675043,0.04674451444962503
0.399,0.0333,-0.16,0.027631812710730397,1.055433777580964,0.06081981264320042,0.04609090071057437
0.3999999999999999,0.043,-1.16,0.028202431075208884,1.0554337775809643,0.06230643546151801,0.04609090071057445
0.401,0.0279,-0.16,0.02827603950615406,1.0554337775809643,0.06249820631902214,0.04609090071057445
0.4019999999999999,0.0467,-1.16,0.027896361872374556,1.0525529314081616,0.061509038305655975,0.04558396703609826
0.403,0.0245,-0.16,0.028006485114593013,1.055433777580965,0.06179594061182114,0.04609090071057457
0.4039999999999999,0.0157,0.84,0.028208951415598937,1.067714027397663,0.062323422799133596,0.04825181864567134
0.405,-0.0249,0.84,0.029130140238618006,1.0525529314081616,0.06472338117679792,0.04558396703609826
0.4059999999999999,-0.0307,-0.16,0.03141636106278273,1.0177043296213744,0.07067963540289941,0.03945176535142909
0.40700000000000003,-0.0256,-0.1599999999999445,0.03209963695491085,1.0177043296213744,0.07245976306032653,0.03945176535142909
0.4079999999999999,-0.0016,0.84,0.030754364603860097,1.0177043296213746,0.06895494670946897,0.03945176535142913
0.40900000000000003,-0.0233,0.84,0.029295196154183228,1.008713907012963,0.06515339869052064,0.03786974823055593
0.4099999999999999,-0.0352,0.839999999999889,0.028673572980675407,1.0125997112954028,0.06353389386617748,0.038553521304519174
0.41100000000000003,-0.0097,-1.16,0.02867142734128277,1.008713907012963,0.06352830386648672,0.03786974823055593
0.4119999999999999,0.0002,-1.159999999999889,0.02860894073428143,1.008713907012963,0.06336550851745806,0.03786974823055593
0.41300000000000003,0.0151,0.839999999999889,0.02855059578628203,1.001786669727776,0.06321350336580345,0.036650783509669126
0.4139999999999999,0.0232,-1.1600000000000554,0.028575122475515604,1.008713907012963,0.06327740235353711,0.03786974823055593
0.41500000000000004,0.0066,-2.1599999999998336,0.028640749638367456,1.008713907012963,0.06344837974205171,0.03786974823055593
0.4159999999999999,-0.0271,0.84,0.02870638402235444,1.011719591410717,0.06361937594367317,0.03839864930498814
0.41700000000000004,-0.0318,0.84,0.028737268944879435,1.0147163727304196,0.06369983993401387,0.03892598373205351
0.4179999999999999,-0.01,0.84,0.02873962856693838,1.0078303937320463,0.06370598741929266,0.03771427910548708
0.41900000000000004,0.002,-2.16,0.028760357374072336,1.0168286280680858,0.06375999184606923,0.0392976708321368
0.41999999999999993,0.013,-1.16,0.028737665003921897,1.0198103962510567,0.06370087178024698,0.039822363443529886
0.42100000000000004,0.0098,-0.16,0.02869328832317156,1.019810396251057,0.06358525792988495,0.03982236344352993
0.42199999999999993,0.0128,-2.16,0.02858261788126874,1.0354510201779499,0.06329693001321092,0.04257459611503223
0.42300000000000004,0.0208,0.84,0.028460788143395893,1.0325144210831374,0.06297952896279616,0.04205785176968996
0.42399999999999993,0.023,-0.16,0.028496402044288306,1.0525529314081559,0.06307231328417766,0.045583967036097246
0.42500000000000004,0.0165,0.84,0.02831146363579553,1.064866404230506,0.06259049623242544,0.047750731121707496
0.42599999999999993,0.0147,0.84,0.02823349335109369,1.071385865790611,0.062387361507705526,0.048897940797625376
0.42700000000000005,0.0129,-0.16,0.028089869666483625,1.087103899345861,0.06201318103949134,0.05166379500425628
0.42799999999999994,-0.0109,0.84,0.027840847166015415,1.1017896618042833,0.06136440673688212,0.05424800362872777
0.42900000000000005,-0.0011,-0.16,0.02766813535337765,1.104542097116135,0.060914443438040596,0.05473234123743721
0.42999999999999994,0.0076,0.84,0.027637101718113233,1.1189990237652259,0.06083359200879928,0.05727628232566491
0.43100000000000005,0.005,-0.16,0.027649866241900228,1.1189990237652259,0.060866847216671974,0.05727628232566491
0.43199999999999994,-0.0171,-1.16,0.02764943437163586,1.1127585545078682,0.06086572207204023,0.056178166070464
0.43300000000000005,-0.0022,-1.16,0.027529679241280438,1.1064828900951662,0.06055372596311781,0.055073856631610685
0.43399999999999994,-0.0102,1.84,0.027606634941931052,1.1064828900951662,0.060754217408378906,0.055073856631610685
0.43500000000000005,0.0065,-0.16,0.027446852665676657,1.1001714282402826,0.06033793922206502,0.05396324802653555
0.43599999999999994,-0.0138,-1.16,0.02749963351913757,1.1084202848400952,0.060475448327992544,0.05541477404894097
0.43700000000000006,-0.0004,-0.16,0.02744287993676624,1.093823549279853,0.06032758913553282,0.052846231214974934
0.43799999999999994,0.0018,0.84,0.02733200739773669,1.0910440740484608,0.06003873469847525,0.0523571354744709
0.43900000000000006,-0.0004,-1.16,0.027337727939275327,1.0910440740484608,0.06005363833304763,0.0523571354744709
0.43999999999999995,0.0093,-1.16,0.02701805929762478,1.0874386154639195,0.05922081077865825,0.05172269397402276
0.44100000000000006,0.0075,-1.16,0.026365895391350796,1.0874386154639195,0.05752173867599972,0.05172269397402276
0.44199999999999995,0.009,1.84,0.0264554438207727,1.0753836324582846,0.05775503775435092,0.04960141554947947
0.44300000000000006,0.0015,-2.16,0.02662493026344491,1.0631919730303945,0.058196598048860994,0.04745608659367137
0.44399999999999995,-0.0021,0.84,0.026655216605781896,1.0545894059715983,0.0582755025678957,0.04594231922552318
0.44500000000000006,0.0169,-0.16,0.026544273115468156,1.0545894059715981,0.05798646328260221,0.045942319225523144
0.44599999999999995,0.0089,0.84,0.02608210616808349,1.0479654577467905,0.056782387191426684,0.04477672335135159
0.44700000000000006,0.0311,1.84,0.025978521645356106,1.0479654577467905,0.056512520105652456,0.04477672335135159
0.44799999999999995,0.0757,0.84,0.02598910254443963,1.0479654577467905,0.056540086351316944,0.04477672335135159
0.44900000000000007,0.0569,0.84,0.02597587992711727,1.0508588801896055,0.0565056376797477,0.04528587003352972
0.44999999999999996,0.0276,-0.16,0.02585123748952192,1.0508588801896055,0.056180908748127485,0.04528587003352972
0.45100000000000007,0.0012,-0.16,0.025518287587440746,1.0442112676639068,0.05531347974022506,0.04411611002483483
0.45199999999999996,-0.0321,0.84,0.025386478128351306,1.0594917377696187,0.0549700786831428,0.04680496753189011
0.45300000000000007,-0.0452,1.84,0.024980446293375307,1.0557785342049295,0.053912250494612006,0.04615156647740248
0.45399999999999996,-0.0731,-0.16,0.02486212108896992,1.062353767746412,0.05360397974869603,0.04730859017800501
0.45500000000000007,-0.1202,0.84,0.024892738467069735,1.0660440689573647,0.05368374670986251,0.047957961175475565
0.45599999999999996,-0.0883,-0.16,0.025452120316977234,1.0854637721409406,0.05514109521806418,0.05137518684515079
0.4570000000000001,-0.03539999999999219,-0.16,0.025356849267104544,1.0882574998929948,0.05489288708898432,0.0518667905580478
0.45799999999999996,-0.0002,-1.16,0.025226126758211755,1.094637657232036,0.054552317845711976,0.05298948729699578
0.4590000000000001,0.005999999999998712,-1.16,0.025233832182969824,1.1064828900951662,0.05457239266451076,0.055073856631610685
0.45999999999999996,0.0002,0.84,0.025125432278195296,1.1182026522577484,0.05428998014158303,0.05713614727147667
0.4610000000000001,0.005300000000003131,0.84,0.024882397568840843,1.1154839246144936,0.0536568057345523,0.056657741097934165
0.46199999999999997,0.0194,-0.16,0.025032292599381608,1.111957713656044,0.05404732483913453,0.05603724455944455
0.4630000000000001,0.02369999999999913,-1.16,0.025046693539151284,1.1119577136560452,0.0540848433751641,0.05603724455944479
0.46399999999999997,0.0198,-0.16,0.025009802462469973,1.1154839246144956,0.05398873164830641,0.05665774109793452
0.4650000000000001,0.023399999999997825,0.84,0.024925629149490126,1.115483924614495,0.053769436274096714,0.0566577410979344
0.46599999999999997,0.0136,0.84,0.02492018963943249,1.1001714282402881,0.053755264806307476,0.05396324802653653
0.4670000000000001,0.0048999999999958035,-0.16,0.02477108770277187,1.1037352946383714,0.05336681193641501,0.0545903706773669
0.46799999999999997,-0.014,1.84,0.02457578129318328,1.1359476975267284,0.05285798329869067,0.060258688518862596
0.4690000000000001,-0.01619999999999751,0.84,0.02455677985380522,1.1332715411909733,0.05280847915525827,0.05978777348786764
0.47,-0.005,0.8400000000000555,0.024568170946386737,1.1332715411909735,0.052838156184970994,0.05978777348786768
0.4710000000000001,0.004800000000001198,1.839999999999889,0.024550953693291865,1.127110097335782,0.05279330035327519,0.058703563090561996
0.472,0.0102,-0.16000000000011103,0.024544899477438077,1.1332715411909735,0.05277752740239322,0.05978777348786768
0.4730000000000001,0.014899999999999023,-2.159999999999778,0.024522547931734143,1.118202652257754,0.05271929528100242,0.05713614727147765
0.474,0.0105,1.8399999999998335,0.024448356552291807,1.1217092317666162,0.05252600567718421,0.05775318932393165
0.4750000000000001,0.006800000000001931,-1.1600000000000554,0.02443657994294107,1.1279001796203159,0.05249532426685278,0.05884259144945825
0.476,0.0155,-2.159999999999778,0.02443265299080674,1.1393996667677468,0.05248509344181673,0.06086612096980314
0.4770000000000001,0.0142999999999994,1.8399999999999446,0.024429167505885363,1.1393996667677466,0.052476012764187716,0.0608661209698031
0.478,0.0116,0.8400000000000555,0.02440619198511248,1.1534197724663278,0.05241615501061731,0.0633331960137343
0.4790000000000001,0.005400000000000844,1.839999999999889,0.02440892210811275,1.150784248273048,0.052423267756020686,0.06286943089635894
0.48,0.0092,-0.16,0.024412002022101052,1.150784248273048,0.05243129180624144,0.06286943089635894
0.4810000000000001,-0.0007000000000002665,-0.16,0.024457154757899394,1.168796829968592,0.05254892750029877,0.06603904970902923
0.482,-0.0019,-0.16,0.02457681506924406,1.1713918282058917,0.05286067657878234,0.06649568359809722
0.4830000000000001,-0.020899999999998267,0.84,0.024656380330807033,1.1791425577580836,0.053067966670984366,0.06785955573013171
0.484,-0.0131,-0.16,0.024662730495233397,1.1934422424538877,0.05308451065190746,0.0703758274336092
0.4850000000000001,0.018699999999999023,1.84,0.024938296032684524,1.1934422424538877,0.053802437100508894,0.0703758274336092
0.486,0.0143,-0.16,0.02532453496673444,1.2068346850166294,0.054808699163606076,0.07273245451860798
0.4870000000000001,0.010199999999995959,-0.16,0.025578809170872116,1.2143592192131296,0.05547115564505159,0.07405652374693564
0.488,-0.008,-0.16,0.025681110372209798,1.2143592192131296,0.05573767931431502,0.07405652374693564
0.4890000000000001,-0.017799999999999355,0.84,0.026101919571068954,1.2118562323332789,0.056834006730544805,0.07361608081452665
0.49,-0.0149,-0.16,0.026221372612036914,1.2118562323332789,0.057145215810860135,0.07361608081452665
0.4910000000000001,-0.022900000000001534,0.84,0.026210388472947724,1.206096311779421,0.057116599010514975,0.07260252524233955
0.492,-0.0298,0.84,0.02620686705005952,1.2003087514180815,0.05710742470428084,0.0715841059779148
0.4929999999999999,-0.0143,-1.16,0.026349891559522057,1.1868426719009602,0.05748004415115058,0.06921452122366825
0.494,-0.0006,0.84,0.02636230675210637,1.1724624997363122,0.05751238925207721,0.06668408638690183
0.4949999999999999,0.012,-0.16,0.026361312844633382,1.1724624997363122,0.057509799840974055,0.06668408638690183
0.496,0.0134,-0.16,0.026398641508625236,1.1724624997363122,0.05760705160699165,0.06668408638690183
0.4969999999999999,0.0091,-1.16,0.026451276522120468,1.172462499736312,0.057744180758409654,0.06668408638690179
0.498,0.0127,0.84,0.026293250266060695,1.172462499736312,0.05733247750317625,0.06668408638690179
0.4989999999999999,0.0214,-0.16,0.025290012858943556,1.1698698764584934,0.05471875927317642,0.0662278704121771
0.5,0.0112,-0.16,0.024651050341091503,1.1732220407745446,0.053054080534775366,0.06681774049626096
0.5009999999999999,0.01,1.84,0.02449884061414588,1.1732220407745446,0.0526575309889961,0.06681774049626096
0.502,0.011,0.84,0.024499044121823094,1.17580727264382,0.052658061184264054,0.06727265582747066
0.5029999999999999,0.0008,-1.16,0.024293759648190368,1.1868426719009602,0.05212323685727687,0.06921452122366825
0.504,-0.0196,-1.16,0.023951872017464168,1.1732220407745446,0.0512325225291416,0.06681774049626096
0.5049999999999999,-0.0585,-2.16,0.023583927698042118,1.1791425577580836,0.05027392313035942,0.06785955573013171
0.506,-0.0215,0.84,0.020298522570667575,1.1765646544382353,0.0417145101604729,0.06740592998131095
0.5069999999999999,0.0024,-1.16,0.018642061690778595,1.1824684353632668,0.03739895935631329,0.06844480022224332
0.508,0.0067,1.84,0.018523965476005017,1.1883428862022698,0.037091285193390416,0.06947850933780096
0.5089999999999999,0.0028,1.84,0.019242444532369084,1.2025331719934504,0.03896312708661497,0.0719755304512164
0.51,0.0064,-0.16,0.019483414893812438,1.2100844541077966,0.039590923281340194,0.07330430642869515
0.5109999999999999,0.0293,0.84,0.019666977493628,1.220810047270367,0.040069155960943695,0.07519165619563835
0.512,0.0087,-1.16,0.020286410020240522,1.220810047270367,0.04168295352827559,0.07519165619563835
0.5129999999999999,0.0063,-1.16,0.020648284629576085,1.223294713860559,0.042625739609301376,0.07562887536280717
0.514,-0.0102,-1.16,0.0208435746980785,1.2200801317311123,0.04313452567385755,0.07506321519456552
0.5149999999999999,-0.0035,-1.16,0.020983158794257366,1.220080131731112,0.04349818186750879,0.07506321519456549
0.516,0.0024,-1.16,0.02101614064527771,1.220080131731112,0.04358410895182547,0.07506321519456549
0.5169999999999999,0.008,2.84,0.021353476245474998,1.2200801317311114,0.04446296394826864,0.07506321519456537
0.518,0.0035,-0.16,0.021370380821134904,1.2200801317311112,0.044507005166488034,0.07506321519456532
0.5189999999999999,0.0079,-2.16,0.02140056452347073,1.2093480650342532,0.044585642279183754,0.07317472629962761
0.52,0.0091,-0.16,0.02138741134599517,1.2068346850166267,0.044551374518127004,0.0727324545186075
0.5209999999999999,0.0081,-1.16,0.021386440012127802,1.2068346850166263,0.044548843917674365,0.07273245451860742
0.522,0.0072,-1.16,0.021613644709490662,1.1959837672461413,0.04514077664987317,0.07082305176438837
0.5229999999999999,0.008,-1.16,0.02323630759517286,1.1985199026128777,0.04936827408504056,0.07126932773447181
0.524,0.0217,-1.16,0.02447259003095208,1.1783868328545661,0.05258914076814208,0.0677265731343062
0.5249999999999999,0.0159,1.84,0.02510863635547923,1.2075726067737913,0.05424622199512517,0.0728623043493159
0.526,0.0141,0.84,0.025387383567566355,1.2075726067737895,0.054972437609320926,0.0728623043493156
0.5269999999999999,0.0072,1.84,0.025356187920948268,1.1875930159428687,0.05489116409451388,0.06934655696576271
0.528,0.0119,-0.16,0.025380252530105393,1.1798977986196713,0.05495385923247982,0.06799245315058186
0.5289999999999999,0.0043,-0.16,0.026087707558896084,1.1832215533456623,0.05679698040453493,0.06857732408614625
0.53,0.0168,-2.16,0.026937004407215227,1.189841208956086,0.05900963978045666,0.0697421646021167
0.5309999999999999,0.0249,0.84,0.027633605292602087,1.189841208956086,0.06082448282782827,0.0697421646021167
0.532,0.0265,1.84,0.027649465763450454,1.189841208956086,0.0608658038566283,0.0697421646021167
0.5329999999999999,0.0063,-2.16,0.02769671378926883,1.1956794374275945,0.0609888983759683,0.07076949977864715
0.534,-0.0382,1.84,0.02763502429421895,1.198959443101119,0.060828179729845756,0.07134667232749063
0.5349999999999999,-0.0443,1.84,0.027606809327616423,1.2047534854726232,0.06075467173259137,0.07236623221138397
0.536,-0.0384,1.84,0.02756554966711039,1.1971685781165904,0.06064717860478017,0.07103153930314916
0.5369999999999999,-0.0227,-0.16,0.027571392025140466,1.1997022088304292,0.06066239960589224,0.07147737453713617
0.538,-0.0465,-0.16,0.027621437387922918,1.2022305000770535,0.060792781982091045,0.07192227020143686
0.5389999999999999,-0.0248,-1.16,0.027619134471916842,1.2080088533916506,0.060786782232176866,0.0729390693300556
0.54,-0.0048,-0.16,0.027562839666651243,1.2251804085700506,0.06064011828430855,0.07596069528330397
0.5409999999999999,0.0061,-0.16,0.02753003315600086,1.2251804085700506,0.06055464801142867,0.07596069528330397
0.542,0.029,-0.16,0.02743335375115505,1.222699573935055,0.060302770717860485,0.07552415041355044
0.5429999999999999,0.0084,-1.16,0.027276468777424748,1.220213695488644,0.059894040827066,0.07508671799975575
0.544,0.0005,0.84,0.027300561195464514,1.2144934121274453,0.0599568084150652,0.07408013726291748
0.5449999999999999,-0.0216,-0.16,0.0273267682052509,1.2177227423412693,0.06002508511482393,0.07464839260638073
0.546,-0.0186,0.84,0.027319960169277156,1.2234279266766104,0.060007348248545984,0.07565231641390036
0.5469999999999999,0.0112,1.84,0.027547176476170002,1.229106629356997,0.06059931122686596,0.07665158032573412
0.548,0.0231,-0.16,0.027550228538382623,1.2364956379454206,0.060607262715304915,0.07795180152804203
0.5489999999999999,0.005,-1.16,0.027554943980129344,1.2364956379454206,0.06061954777960621,0.07795180152804203
0.55,0.0017,-0.16,0.02752460024654072,1.2364956379454206,0.060540493740069604,0.07795180152804203
0.5509999999999999,-0.0012,0.84,0.02757305155838156,1.2421145990669062,0.06066672316106948,0.07894055290079664
0.552,0.0067,1.84,0.027645682079270362,1.2347592157527745,0.060855946285281876,0.07764624863498223
0.5529999999999999,-0.0201,-0.16,0.02766215533554923,1.2322976651132207,0.06089886379407699,0.07721309711082286
0.554,-0.06,-1.16,0.027730090753349125,1.2322976651132207,0.061075854841965115,0.07721309711082286
0.5549999999999999,0.0092,-0.16,0.027664158645455045,1.2396676537573406,0.060904082985052135,0.07850997143180637
0.556,0.0374,-1.16,0.027399602028448402,1.2333154639198667,0.06021483789926099,0.07739219604842026
0.5569999999999999,0.029,-1.16,0.027758531911771425,1.2308510259576357,0.06114995213311806,0.07695853645093578
0.558,0.0523,-2.16,0.027873707423349832,1.2382296250815916,0.06145001703513071,0.0782569259316746
0.5589999999999999,0.0313,1.84,0.027892872919505287,1.2276562299710727,0.06149994859303829,0.07639635798963511
0.56,-0.0266,1.84,0.027937566794692958,1.2144934121274453,0.06161638882495013,0.07408013726291748
0.5609999999999999,-0.0498,0.84,0.028138187141329637,1.2144934121274453,0.062139061777127975,0.07408013726291748
0.562,-0.0428,0.84,0.02800982172012257,1.2119907023810264,0.06180463341637274,0.07363974309682939
0.563,-0.0367,0.839999999999889,0.02799937955892008,1.2194834230061464,0.061777428622271244,0.07495821418847409
0.5640000000000001,-0.0309,-0.15999999999988898,0.027993004734268846,1.2162587676447028,0.06176082039446218,0.07439078146446106
0.565,-0.0258,0.84,0.027979472593997922,1.210519795507501,0.06172556532774904,0.07338091212096962
0.5660000000000001,-0.0399,0.839999999999889,0.02798240630759006,1.210519795507501,0.061733208484436544,0.07338091212096962
0.567,-0.0095,-0.15999999999988898,0.027991048094719858,1.210519795507501,0.06175572279301465,0.07338091212096962
0.5680000000000001,0.0184,0.839999999999889,0.027985787713280856,1.1836667747064102,0.06174201800612539,0.06865566832489459
0.569,0.0148,-0.15999999999988898,0.028017328643800816,1.1895353076310784,0.06182419108351101,0.06968833608319848
0.5700000000000001,0.005,0.84,0.02808911120918397,1.1751880843268774,0.062011205042925885,0.06716369915645372
0.571,0.0318,0.84,0.028132626257134002,1.2177227423412693,0.06212457409525533,0.07464839260638073
0.5720000000000001,0.0861,0.839999999999889,0.02836381596937093,1.2119907023810261,0.06272688892240923,0.07363974309682936
0.573,0.0784,-0.16000000000033307,0.028504047711657036,1.2087460583364382,0.06309223241801418,0.07306879302548624
0.5740000000000001,0.0573,-3.159999999999778,0.02866690021474289,1.2087460583364382,0.06351650941675542,0.07306879302548624
0.575,0.0383,-1.159999999999889,0.02859452793018448,1.202971246118039,0.06332795907148807,0.07205261701271601
0.5760000000000001,0.0089,-0.16000000000011103,0.028552917648716033,1.1953750301298973,0.06321955247654061,0.07071593415913721
0.577,-0.0177,-1.16,0.028519101625824425,1.1953750301298973,0.06313145213770667,0.07071593415913721
0.5780000000000001,-0.0612,-1.16,0.02851163144841137,1.1818527369229341,0.06311199020502024,0.06833645765412089
0.579,-0.0671,-2.16,0.02856722309270827,1.187730232977724,0.06325682221896199,0.06937070262697038
0.5800000000000001,-0.0621,-0.16,0.028893736384122484,1.1935787870460863,0.06410748202894546,0.07039985476714286
0.581,-0.0092,-0.16,0.02893766630344252,1.1935787870460863,0.06422193193896142,0.07039985476714286
0.5820000000000001,-0.016099999999998647,-1.16,0.028884534978140634,1.1968645495629753,0.06408350975440129,0.07097804033007493
0.583,-0.01,-1.16,0.029902170267361375,1.2034091607715713,0.06673473855434259,0.07212967551258241
0.5840000000000001,-0.004399999999996603,-1.16,0.030778884022902315,1.2034091607715713,0.06901882675629041,0.07212967551258241
0.585,0.0109,-1.16,0.030941571567478555,1.19581572656501,0.06944267399128808,0.0707934821605853
0.5860000000000001,0.015400000000000934,0.84,0.030654539699932985,1.188173764889407,0.06869487449789542,0.06944874957854302
0.587,0.0196,0.84,0.03055813923001481,1.1771508442542769,0.06844372390899371,0.06750908000722759
0.5880000000000001,0.007599999999999179,-1.16,0.03056736918551915,1.179727466651289,0.06846777056314819,0.06796248035598144
0.589,0.0039,-2.16,0.0308163180254274,1.182298473742726,0.06911635295908902,0.06841489259661787
0.5900000000000001,0.007099999999998113,-0.16,0.03243430459178584,1.1789721166763032,0.07333166725497244,0.06782956373518094
0.591,-0.0014,-0.16,0.033040664671147704,1.1789721166763032,0.07491140738639997,0.06782956373518094
0.5920000000000001,0.006700000000002665,-0.16,0.03313841388058134,1.1789721166763034,0.07516607182460003,0.06782956373518098
0.593,0.0187,-0.16,0.03305887836705645,1.18486390208213,0.07495885923448162,0.06886632316135165
0.5940000000000001,0.01219999999999958,-1.16,0.03313000328029171,1.1789721166763034,0.07514415982336652,0.06782956373518098
0.595,0.0103,-1.16,0.033131543263841504,1.1763938398586127,0.07514817191766189,0.06737587226308923
0.5960000000000001,0.03789999999999381,-1.16,0.03310549317046943,1.1789721166763032,0.0750803040297056,0.06782956373518094
0.597,0.01,1.84,0.03312389080961258,1.1822984737427262,0.07512823510212802,0.06841489259661791
0.5980000000000001,0.013700000000000732,0.84,0.03310619638206468,1.1712202592046759,0.07508213609552872,0.0664654931266192
0.599,0.017,-0.16,0.03316926034281248,1.1738098998621453,0.07524643561495768,0.06692118425877944
0.6000000000000001,0.019900000000000577,-1.16,0.033349883922797655,1.167862349105104,0.07571701131361677,0.06587461197461356
0.601,0.0225,-1.16,0.03342871415609019,1.1738098998621453,0.07592238644852517,0.06692118425877944
0.6020000000000001,-0.014200000000001111,-0.16,0.03344251059224872,1.1738098998621453,0.07595833008105,0.06692118425877944
0.603,-0.0192,-1.16,0.03351458883714114,1.1626508055179199,0.07614611436951974,0.0649575526170937
0.6040000000000001,-0.005000000000008748,1.84,0.033839644151975705,1.1686248799886798,0.07699297573664401,0.06600879219789728
0.605,-0.0444,1.84,0.03433815907823007,1.1652594908493041,0.07829174863071127,0.06541659498217221
0.6060000000000001,-0.04929999999999465,-0.16,0.03451160655574004,1.1678623491051037,0.07874362854537473,0.06587461197461351
0.607,-0.0252,1.84,0.03431295620524267,1.164494756254022,0.07822608799235366,0.06528202697849145
0.6080000000000001,-0.012000000000000843,0.84,0.03419236256511172,1.1584993840248798,0.077911907327442,0.06422703969639902
0.609,-0.0158,-0.16,0.03390978283978182,1.1376582938966555,0.07717570692833063,0.060559696921025606
0.6100000000000001,-0.03389999999999491,-0.16,0.033847176831158635,1.1234415083955311,0.07701260050418307,0.05805801273484316
0.611,-0.011,-0.16,0.03385266718414539,1.1540177189157315,0.07702690443223521,0.06343841481840283
0.6120000000000001,0.0038999999999994447,1.84,0.0335170917310555,1.1540177189157315,0.0761526351186518,0.06343841481840283
0.613,0.0014,0.84,0.03369675242973347,1.1513835634264356,0.07662070223817687,0.06297489054767397
0.6140000000000001,-0.005499999999997513,-0.16,0.03386652712345524,1.1626508055179208,0.07706301350849558,0.06495755261709385
0.615,0.0057,-1.16,0.033764149284710644,1.168624879988681,0.07679629017703243,0.06600879219789747
0.6160000000000001,0.007499999999999622,-1.16,0.03369338266141553,1.1660237238948645,0.07661192303514776,0.06555107472968513
0.617,0.0058,-1.16,0.03362825333006762,1.163416752175564,0.07644224263901811,0.0650923339036747
0.6180000000000001,0.01390000000000173,-1.16,0.03362630538273379,1.1771508442542786,0.07643716768325849,0.0675090800072279
0.619,0.0217,-1.16,0.033582254891934886,1.1745685695972166,0.07632240365031401,0.06705468504759086
0.6200000000000001,0.01820000000000422,-3.16,0.03358275864725735,1.2171248778810322,0.07632371607592776,0.07454318822909464
0.621,0.0372,-0.16,0.033656031175833975,1.2146275902160324,0.07651461181241075,0.0741037481700613
0.6219999999999999,0.0293,0.84,0.0335099267480172,1.2146275902160324,0.07613396830394574,0.0741037481700613
0.623,0.0317,-1.16,0.032597601219944865,1.214627590216033,0.07375710132560105,0.0741037481700614
0.6239999999999999,0.0071,-0.16,0.03173372426432916,1.2146275902160324,0.07150645663138275,0.0741037481700613
0.625,-0.0027,-1.16,0.031217992181247732,1.1719806053185158,0.07016282815642465,0.06659928890266634
0.6259999999999999,0.0002,0.84,0.031019134290904686,1.1719806053185169,0.0696447469031922,0.06659928890266653
0.627,-0.0023,-0.16,0.03105862213643431,1.1779073621468903,0.06974762395003276,0.06764220214291469
0.6279999999999999,-0.0211,-1.16,0.031041742276214167,1.2146275902160393,0.06970364712254981,0.0741037481700625
0.629,-0.0433,-1.16,0.03146981303994443,1.228514304951762,0.07081889297657636,0.0765473508149527
0.6299999999999999,-0.0228,-2.16,0.032599870005426954,1.250269815691077,0.07376301215581176,0.08037560138358951
0.631,0.0176,-1.16,0.033530789945969516,1.2903318393729053,0.07618832285695305,0.08742519294585724
0.6319999999999999,0.0819,-2.16,0.034073394785802666,1.3087439340121665,0.07760196249149716,0.0906651128271758
0.633,0.0734,-2.16,0.03405546875709036,1.3057397350542201,0.07755526009812101,0.09013647314103539
0.6339999999999999,0.05,-1.16,0.03404697381633793,1.3126974563958747,0.07753312836604055,0.09136080204793945
0.635,0.0148,-1.16,0.03437789859885558,1.3614472223493488,0.07839528136261849,0.09993914899959434
0.6359999999999999,-0.0298,0.84,0.036650769448340094,1.3681216669476044,0.08431675511508117,0.10111363056588697
0.637,-0.0239,0.84,0.040026759353246996,1.3681216669476044,0.09311216714433007,0.10111363056588697
0.6379999999999999,-0.0607,0.84,0.04146032151929739,1.3709891774502339,0.09684700352569166,0.1016182176033416
0.639,-0.104,0.84,0.04168561742538527,1.3681216669476044,0.09743396331477922,0.10111363056588697
0.6399999999999999,-0.063,-0.16,0.04172549402326249,1.3527657786550584,0.09753785317183863,0.09841150195156637
0.641,-0.0259,-0.16,0.04173432067077696,1.3550085008379593,0.09756084909419428,0.09880614690267153
0.6419999999999999,0.0176,-1.16,0.04173603249919494,1.3601379532607052,0.09756530889315211,0.09970876092950226
0.643,0.0234,-0.16,0.04175683823839728,1.3601379532607054,0.09761951374980517,0.0997087609295023
0.6439999999999999,-0.003,-0.16,0.04176666511289452,1.3652481336582396,0.09764511554738085,0.1006079837171036
0.645,-0.0172,0.84,0.0417781793878218,1.3601379532607045,0.09767511350207149,0.09970876092950214
0.6459999999999999,-0.0216,-1.16,0.04181477023485424,1.3601379532607045,0.09777044304546904,0.09970876092950214
0.647,-0.0017,0.84,0.041644815724652534,1.3601379532607054,0.09732766330217642,0.0997087609295023
0.6479999999999999,0.0309,0.84,0.04167434978796389,1.3659004759236926,0.0974046079208033,0.10072277438686035
0.649,0.0352,-0.16,0.04175678332851833,1.368772639718789,0.09761937069398349,0.10122818024993327
0.6499999999999999,0.0232,-1.16,0.0418524570624376,1.3709891774502274,0.09786862792931278,0.10161821760334046
0.651,-0.0095,0.84,0.04195989579234718,1.3659004759236903,0.09814853631887296,0.10072277438685996
0.6519999999999999,-0.0227,0.84,0.04199403615659099,1.3659004759236892,0.09823748165899869,0.10072277438685977
0.653,-0.0508,-1.16,0.042159424252294506,1.3659004759236892,0.09866836459627613,0.10072277438685977
0.6539999999999999,-0.0836,0.84,0.042160277718394555,1.3659004759236884,0.09867058811773632,0.1007227743868596
0.655,-0.0355,0.84,0.0421614630723595,1.3540821759563693,0.09867367630129606,0.09864314435140156
0.6559999999999999,-0.0038,0.84,0.04195575118483898,1.3421598147601173,0.09813773843980314,0.09654520298031877
0.657,0.0019,-0.16,0.0416690403804836,1.354082175956369,0.0973907754071597,0.09864314435140152
0.6579999999999999,0.0283,-0.16,0.04159158173574747,1.3421598147601173,0.09718897364978736,0.09654520298031877
0.659,0.0235,-0.16,0.04157481212603319,1.339895586571581,0.09714528405616848,0.09614677368329365
0.6599999999999999,0.0277,-3.16,0.04155169990701447,1.3421598147601173,0.09708507016486377,0.09654520298031877
0.661,0.0157,0.84,0.041411955737444016,1.347338184315282,0.09672099693458815,0.09745642480506528
0.6619999999999999,0.0555,-0.16,0.041423565014710145,1.384594462860973,0.09675124239733938,0.10401229799217865
0.663,0.0503,1.84,0.041611659025353166,1.3729370909475216,0.09724128068845948,0.10196098597329631
0.6639999999999999,0.0168,-1.16,0.04201365225686086,1.382399739996487,0.09828858716853525,0.10362609933407105
0.665,-0.0139,-0.16,0.04228643539519423,1.384594462860973,0.09899926467760789,0.10401229799217865
0.6659999999999999,-0.034,-0.16,0.042415307200333194,1.3845944628609728,0.09933501231225063,0.10401229799217862
0.667,-0.0088,1.84,0.04240934286620282,1.37955594740778,0.09931947352877249,0.10312568586526068
0.6679999999999999,-0.0057,-0.16,0.042549090830351716,1.3767062805529728,0.0996835566450021,0.10262423871984262
0.669,-0.0145,-3.16,0.04279604963384781,1.3767062805529728,0.10032695443118665,0.10262423871984262
0.6699999999999999,-0.0225,-0.16,0.04340910991129565,1.3738507028785274,0.10192415048058304,0.10212175146560284
0.671,0.0043,0.84,0.04352019376499299,1.3362949188440996,0.10221355545233513,0.09551317521528375
0.6719999999999999,0.0369,0.84,0.04341068703770753,1.3362949188440996,0.10192825934257771,0.09551317521528375
0.673,0.0238,-0.16,0.04353913078064121,1.3340207362277572,0.1022628917536636,0.09511299426809673
0.6739999999999999,0.0038,-0.16,0.04348389796394956,1.3408317124137472,0.10211899458749231,0.0963115008795673
0.675,-0.0144,-1.16,0.04349161880264277,1.3430943624545868,0.10213910956396763,0.09670965247477746
0.6759999999999999,-0.0177,-1.16,0.04364028006792262,1.340167167685851,0.10252641435982182,0.09619456297988124
0.677,0.0149,-3.16,0.043881080755901455,1.3430943624545868,0.10315376850700754,0.09670965247477746
0.6779999999999999,0.0805,-2.16,0.04392151297479638,1.345353207117077,0.1032591059145397,0.0971071344492187
0.679,0.1087,-3.16,0.04389614855433247,1.3424309378087305,0.10319302439914804,0.09659291167249616
0.6799999999999999,0.1004,-3.16,0.04374206121494208,1.3424309378087305,0.1027915831399608,0.09659291167249616
0.681,0.0615,-2.16,0.0437629880985079,1.3244872191425068,0.10284610361206944,0.09343541047610768
0.6819999999999999,0.0122,0.84,0.043732519841386576,1.319219155074229,0.10276672515338221,0.09250840538270141
0.683,-0.0066,1.84,0.0429632092126093,1.3009553220616707,0.10076245258469298,0.08929457464557872
0.6839999999999999,-0.0476,3.84,0.0423351702959467,1.2847969124843508,0.09912623292822367,0.08645122881960116
0.685,-0.1273,1.84,0.042042016840770115,1.2793654254247424,0.09836248496134485,0.08549546668311804
0.6859999999999999,-0.1614,0.84,0.04203216868108042,1.2762920757640293,0.09833682770980072,0.08495465875968082
0.687,-0.1096,-1.16,0.0419250852741,1.2793654254247422,0.09805784503733489,0.085495466683118
0.688,-0.0437,0.84,0.041859723454008575,1.2769898614825883,0.09788755894203284,0.0850774459746476
0.6890000000000001,-0.0184,0.84,0.04142677568393287,1.2769898614825883,0.0967596071020627,0.0850774459746476
0.69,-0.0108,0.8399999999997779,0.040129851937333434,1.2769898614825883,0.09338075259030025,0.0850774459746476
0.6910000000000001,-0.0039,-1.159999999999889,0.03978934794456471,1.2793654254247422,0.09249364303181122,0.085495466683118
0.692,0.0149,-0.16000000000011103,0.03984293935658226,1.2817365865165677,0.0926332638728684,0.0859127126355059
0.6930000000000001,0.0208,-1.159999999999889,0.039926989377605894,1.2762920757640293,0.09285223803653382,0.08495465875968082
0.694,0.0157,-0.16000000000011103,0.039965601054182565,1.278668936081958,0.09295283241453782,0.0853729075874244
0.6950000000000001,0.0204,-1.16,0.03996543391549742,1.2810413863509165,0.09295239697081813,0.08579038039236249
0.696,-0.0013,-1.160000000000111,0.0399564558934109,1.2810413863509162,0.09292900667473226,0.08579038039236245
0.6970000000000001,0.0187,-2.159999999999889,0.03997519809610753,1.2779720671554997,0.09297783543302118,0.08525028169755465
0.698,0.0297,-1.1599999999997779,0.0400358288181695,1.2810413863509162,0.09313579567496114,0.08579038039236245
0.6990000000000001,0.0331,0.839999999999889,0.039942930824002396,1.2810413863509162,0.0928937700296229,0.08579038039236245
0.7,0.0361,-0.16000000000011103,0.03979020403727703,1.2864657974858742,0.092495873396342,0.08674489740006458
0.7010000000000001,0.0282,-1.159999999999889,0.03989098579812253,1.2864657974858742,0.0927584384918066,0.08674489740006458
0.702,0.0402,-0.16000000000011103,0.04048700567256038,1.2895148999585633,0.09431123945417992,0.08728143862011555
0.7030000000000001,0.0198,-1.159999999999889,0.040821944616629253,1.2871580679047276,0.09518385048108063,0.08686671410464035
0.704,0.0063,-0.16,0.040557420874089256,1.281736586516568,0.09449469104260702,0.08591271263550593
0.7050000000000001,-0.0159,-0.16,0.03970084767979525,1.2847969124843506,0.0922630747199174,0.08645122881960111
0.706,-0.0071,1.84,0.03976884552511831,1.2949038156450972,0.09244022840922439,0.0882297096025121
0.7070000000000001,0.0010000000000005107,-0.16,0.03995379868560336,1.2925568097106293,0.09292208389410407,0.08781671415915604
0.708,0.0033,-0.16,0.0403552794984612,1.2949038156450972,0.09396805537813901,0.0882297096025121
0.7090000000000001,-0.007799999999997779,0.84,0.04080469017193486,1.2949038156450972,0.09513889775471067,0.0882297096025121
0.71,0.0022,-1.16,0.04093218789601176,1.3002703973902199,0.09547106551813256,0.08917405054966693
0.7110000000000001,0.015100000000005507,-3.16,0.040865517325177125,1.2629308168308215,0.09529736975563531,0.0826035189624284
0.712,0.0399,-0.16,0.04083885444756115,1.2605242808681056,0.09522790539077536,0.08218004820239411
0.7130000000000001,0.05819999999999785,1.84,0.04052308442013537,1.2732113074992217,0.09440523483312346,0.0844125454072108
0.714,0.0485,0.84,0.04021426868381977,1.2732113074992217,0.0936006821778967,0.0844125454072108
0.7150000000000001,0.03369999999999221,-1.16,0.040180084203524036,1.2732113074992217,0.09351162190293269,0.0844125454072108
0.716,-0.0014,-0.16,0.04016582951320072,1.275593908337128,0.09347448438822606,0.08483180437666657
0.7170000000000001,-0.03470000000000289,0.84,0.040116978317487194,1.2810413863509162,0.09334721315622461,0.08579038039236245
0.718,-0.0477,-1.16,0.04021736371626993,1.2684326795924388,0.09360874561600221,0.08357166489557169
0.7190000000000001,-0.07559999999999115,0.84,0.040237360305849165,1.2739107807123478,0.09366084240819746,0.08453562956542626
0.72,-0.0357,-0.16,0.040450403946557995,1.252565951420545,0.09421588156797749,0.08077964535283166
0.7210000000000001,-0.020200000000005307,-0.16,0.04078676187621093,1.252565951420545,0.09509218945512571,0.08077964535283166
0.722,-0.0441,-0.16,0.041033225547303,1.2556973726866802,0.09573429728084677,0.08133067195875088
0.7230000000000001,-0.022399999999997356,1.84,0.04091722618819384,1.2556973726866802,0.09543208602215464,0.08133067195875088
0.724,-0.0105,0.84,0.04085011976529121,1.2684326795924388,0.0952572547412969,0.08357166489557169
0.7250000000000001,-0.03590000000000218,0.84,0.040915552832668435,1.2708242396574618,0.0954277264560031,0.08399250039277324
0.726,-0.0457,-1.16,0.04138587432587186,1.2708242396574618,0.09665304745383048,0.08399250039277324
0.7270000000000001,-0.018799999999999158,0.84,0.04193060231803798,1.2708242396574618,0.0980722185028916,0.08399250039277324
0.728,-0.015,0.84,0.04196156050272246,1.2301270684078538,0.09815287336195438,0.07683114385901593
0.7290000000000001,0.023500000000000756,-1.16,0.041198821695939025,1.2162587676447032,0.09616572225507244,0.07439078146446113
0.73,0.0269,-0.16,0.039776811401500606,1.1736710553648952,0.09246098177843753,0.06689675221800048
0.7310000000000001,0.006199999999998223,-0.16,0.038508081323926704,1.1294786861778676,0.08915557977769574,0.05912035641204422
0.732,-0.0018,-0.16,0.03839606283419394,1.1108287261584553,0.08886373981376047,0.0558385800885702
0.7330000000000001,0.0004000000000004885,0.84,0.03867643891712551,1.1080919065744974,0.0895941990988862,0.0553569903316536
0.734,0.0026,-0.16,0.03868611090999113,1.0998405871248662,0.08961939738584597,0.05390503092911148
0.7350000000000001,-0.011199999999997202,0.84,0.038390901058958996,1.0388866106907972,0.08885029192402369,0.04317914645135889
0.736,0.0014,-1.16,0.03621175667254131,1.023298499454968,0.08317300221355672,0.04043615427721076
0.7370000000000001,0.006000000000000977,-0.16,0.03240694750090383,1.0203269248353088,0.0732603942674913,0.03991325539592183
0.738,0.0104,0.84,0.030489941711103568,1.0134790668715312,0.06826605001330907,0.038708258811015125
0.7390000000000001,0.0170000000000042,0.84,0.030173334805900072,1.0104786160745205,0.0674411991514855,0.03818027867727065
0.74,0.0359,0.84,0.030137822993053936,1.0104786160745205,0.06734868079844383,0.03818027867727065
0.7410000000000001,0.03349999999999954,0.84,0.030220405664912773,1.010478616074522,0.0675638321010052,0.03818027867727092
0.742,0.0314,-0.16,0.030501151799290888,1.0104786160745234,0.068295255475194,0.038180278677271154
0.7430000000000001,0.029299999999994206,0.84,0.030918059121808256,1.0173466705607148,0.06938141739594546,0.0393888291823474
0.744,0.0032,0.84,0.031093601392988966,1.0173466705607164,0.0698387548427608,0.03938882918234767
0.7450000000000001,-0.015000000000002175,0.84,0.031319151694818075,1.0173466705607161,0.07042637740496842,0.03938882918234764
0.746,-0.0248,0.84,0.031334104780432526,1.013479066871535,0.07046533443765876,0.03870825881101579
0.7470000000000001,-0.021899999999998223,-1.16,0.03133712976925563,1.0065846235810014,0.07047321539223284,0.03749506474889145
0.748,-0.0139,0.84,0.031366283006019055,0.9895884952204237,0.07054916784959886,0.034504308115289456
0.7489999999999999,0.0028,-1.16,0.03178552898891226,0.9856119727146434,0.07164142264449429,0.03380457163351428
0.75,0.0367,-1.16,0.03225632883986579,0.9825264247416153,0.07286798990004995,0.033261617210433116
0.7509999999999999,0.0701,-1.16,0.03245772919011382,0.9987510932166052,0.07339269498305147,0.03611662241162468
0.752,0.0572,-0.16,0.03237160544748673,0.9987510932166065,0.0731683181859511,0.036116622411624916
0.7529999999999999,0.0214,-0.16,0.03212374930330739,1.0056992397125766,0.07252258257256267,0.037339266462270024
0.754,-0.012,-1.16,0.03206833988610873,1.001786669727782,0.0723782253119398,0.03665078350967018
0.7549999999999999,-0.0424,1.84,0.03206932873738503,1.008713907012969,0.0723808015502153,0.037869748230556985
0.756,-0.0384,-0.16,0.03207603717580184,1.0117195914107229,0.07239827893658513,0.03839864930498915
0.7569999999999999,-0.0566,0.84,0.032133760172862326,1.0026755084849464,0.07254866372949346,0.03680718974247776
0.758,-0.0664,-0.16,0.03213366431235589,1.0026755084849464,0.07254841398566271,0.03680718974247776
0.7589999999999999,-0.0396,-1.16,0.032141867388932974,1.0026755084849464,0.07256978532871622,0.03680718974247776
0.76,-0.0143,0.84,0.03216592157102762,1.0065846235810094,0.07263245330122452,0.03749506474889286
0.7609999999999999,-0.0045,-0.16,0.03217001975879633,0.9996426310800445,0.07264313024369602,0.03627350359789373
0.762,0.0223,1.84,0.03214522133482158,0.947366743242219,0.07257852330982548,0.027074675781845418
0.7629999999999999,0.0042,1.84,0.03220801316090837,0.9996426310800446,0.07274211384121289,0.036273503597893754
0.764,0.0009,-1.16,0.033313648061510326,0.9834326713033336,0.07562260660885343,0.0334210866412727
0.7649999999999999,0.0094,0.84,0.03391379913753715,0.9834326713033336,0.07718617052407152,0.0334210866412727
0.766,0.0281,-1.16,0.034258012797117224,0.9794311562701248,0.07808294481765042,0.0327169523010199
0.7669999999999999,0.03,-0.16,0.03425777923928998,0.9825264247416183,0.07808233633321145,0.03326161721043364
0.768,0.0142,-1.16,0.03449232625790077,0.9957062622874592,0.0786933978964926,0.03558083284200353
0.7689999999999999,0.0442,-2.16,0.0346793660252033,1.0274833830919585,0.07918068958444745,0.04117255542885258
0.77,0.0572,-0.16,0.03541763642285668,1.0274833830919585,0.08110409353980909,0.04117255542885258
0.7709999999999999,0.0453,-1.16,0.03768677362410295,1.030434320067518,0.08701584007875733,0.04169182276714042
0.772,0.0201,0.84,0.0381786814339156,1.0333768303072783,0.08829739955896168,0.042209607278548174
0.7729999999999999,-0.0026,1.84,0.0379601835779039,1.0333768303072781,0.08772815062005428,0.04220960727854814
0.774,-0.0232,0.84,0.037903270530816116,1.0206835395816867,0.08757987597674165,0.03997600780021901
0.7749999999999999,-0.0637,-1.16,0.03791508997359862,1.0409498218666744,0.08761066898032177,0.043542203400557325
0.776,-0.0695,-1.16,0.03774980967805629,1.0447157320335698,0.08718006689306496,0.04420487907434877
0.7769999999999999,-0.0216,-0.16,0.037493552151337074,1.0447157320335685,0.08651244329329774,0.04420487907434854
0.778,0.0104,-1.16,0.037493981600043136,1.041805248266452,0.08651356212908269,0.043692730163206815
0.7789999999999999,0.0162,-0.16,0.03748924828491797,1.0388866106907972,0.0865012304995569,0.04317914645135889
0.78,-0.0101,-0.16,0.03752138203149915,1.0321618939466437,0.08658494803106201,0.041995818649580165
0.7809999999999999,-0.0536,0.84,0.037605751712513937,1.0476181299506695,0.08680475499974481,0.044715605143237046
0.782,-0.0478,-0.16,0.037823764288428895,1.0476181299506693,0.08737273964624595,0.04471560514323701
0.7829999999999999,-0.0108,-1.16,0.03782434909206992,1.050512509037492,0.08737426322573638,0.04522492016313016
0.784,0.0034,-1.16,0.037878820691835395,1.0476181299506684,0.08751617720573181,0.04471560514323685
0.7849999999999999,-0.0009,-0.16,0.03790818203847983,1.0476181299506684,0.08759267184841306,0.04471560514323685
0.786,0.0032,-0.16,0.03789112218432625,1.0476181299506684,0.08754822608563945,0.04471560514323685
0.7869999999999999,-0.0004,-0.16,0.03789263739754505,1.063687435649413,0.08755217364619114,0.04754327163270465
0.788,0.0029,-0.16,0.03788823205838346,1.0702140791988828,0.08754069648715151,0.048691745101286335
0.7889999999999999,0.0117,0.84,0.03791582081060717,1.0673731258901926,0.08761257301818844,0.04819183125188129
0.79,0.0251,0.84,0.03817518587161498,1.0673731258901926,0.08828829262689915,0.04819183125188129
0.7909999999999999,0.0417,-1.16,0.03825599572790898,1.0673731258901926,0.08849882524167296,0.04819183125188129
0.792,0.0529,-1.16,0.03824996754864143,1.0645245908055339,0.08848312012348905,0.04769058326058866
0.7929999999999999,0.0391,-1.16,0.03829116073009026,1.0867690801379408,0.08859044005448513,0.05160487789408268
0.794,0.0408,-0.16,0.038378059790992,1.0839715162775057,0.08881683677577708,0.05111259915294723
0.7949999999999999,0.0226,0.84,0.038501029275391674,1.0959320387432179,0.0891372071894289,0.05321725564569559
0.796,-0.0044,-0.16,0.038545723346669156,1.0959320387432179,0.08925364793221036,0.05321725564569559
0.7969999999999999,-0.0227,-1.16,0.038476512379302864,1.0959320387432179,0.08907333371561728,0.05321725564569559
0.798,-0.0591,0.84,0.03891820470607699,1.0895594609688715,0.09022406760806452,0.05209589265952412
0.7989999999999999,-0.0638,-0.16,0.03911349253411127,1.086769080137941,0.0907328478355652,0.051604877894082725
0.8,-0.0507,1.84,0.03927167508475834,1.0831493915567185,0.09114495828256516,0.050967932384717515
0.8009999999999999,-0.0148,-1.16,0.039106374693229896,1.0795175660059972,0.09071430383955997,0.050328851170015766
0.802,-0.0007,-1.16,0.038488691510894166,1.0758734805734993,0.08910506381064756,0.04968761262148052
0.8029999999999999,-0.0051,0.84,0.038067184135341846,1.0823266423582225,0.08800691744594383,0.05082315572905868
0.804,0.0068,-1.16,0.038018585804081566,1.0823266423582225,0.08788030499762257,0.05082315572905868
0.8049999999999999,0.0176,0.84,0.038108023245879336,1.0907104643704297,0.08811331492170736,0.05229843120156605
0.806,0.0208,-1.16,0.0380074973796514,1.0786920467140968,0.08785141650436117,0.050183587069507776
0.8069999999999999,0.0001,-0.16,0.038213266566825645,1.085128446867621,0.08838750364771743,0.05131618068419939
0.808,0.0081,-0.16,0.03794679836078992,1.085128446867621,0.08769327832987141,0.05131618068419939
0.8089999999999999,0.015,-1.16,0.03735769138148856,1.085128446867621,0.08615848742166086,0.05131618068419939
0.81,-0.0053,-0.16,0.03714876344201193,1.0934907875835398,0.08561417083189617,0.05278767615881488
0.8109999999999999,0.0081,-0.16,0.03713307528147437,1.0934907875835398,0.08557329872036874,0.05278767615881488
0.812,0.0447,-3.16,0.03714439589717811,1.0962640594186155,0.0856027921378089,0.053275680306675545
0.813,0.1032,-0.15999999999988898,0.037104712884645334,1.0843071993351654,0.08549940662552395,0.051171668272112766
0.8140000000000001,0.08,0.84,0.03717887062339911,1.0693813780145263,0.08569260858579902,0.04854521722516727
0.815,0.0591,0.84,0.0375216612170026,1.0693813780145263,0.08658567538854962,0.04854521722516727
0.8160000000000001,0.0012,0.840000000000111,0.03771893176129158,1.0815032672568117,0.0870996211547185,0.05067826893518162
0.817,-0.053,1.840000000000111,0.03765319417246475,1.0778658951710929,0.08692835607519295,0.05003821171371024
0.8180000000000001,-0.0597,2.839999999999778,0.03754844465242799,1.0806792648218495,0.08665545384072527,0.0505332717513416
0.819,-0.1043,0.84,0.037579376775883855,1.089075768596762,0.08673604080288963,0.05201077879477688
0.8200000000000001,-0.1335,0.84,0.03739675233490967,1.0697216395274811,0.0862602522933788,0.04860509200108327
0.821,-0.0642,0.839999999999889,0.036989913503216204,1.0697216395274813,0.08520032164932052,0.04860509200108331
0.8220000000000001,-0.0171,-0.15999999999988898,0.03673427681167871,1.0697216395274811,0.08453431550143534,0.04860509200108327
0.823,-0.0087,0.8399999999996669,0.03675875893340182,1.0733866103075533,0.08459809837815307,0.04925000568024107
0.8240000000000001,0.0145,-2.159999999999889,0.03692576982406992,1.058306781751736,0.08503320915696871,0.046596454451980136
0.825,0.0075,-1.16,0.03689111964895922,1.0620111456175463,0.08494293561481704,0.04724830001173979
0.8260000000000001,0.0136,-1.159999999999889,0.03672939956815369,1.058306781751736,0.08452160889757163,0.046596454451980136
0.827,0.0193,-0.16,0.03672153700132482,1.0668793749203567,0.0845011246790712,0.0481049474065104
0.8280000000000001,0.0142,-0.16,0.03722146031114412,1.0697216395274811,0.08580356681211657,0.04860509200108327
0.829,0.0282,-0.15999999999977796,0.037363365864358004,1.0631919730303996,0.08617327106032552,0.047456086593672266
0.8300000000000001,0.0369,1.839999999999778,0.0373342607460028,1.0697216395274811,0.08609744396507207,0.04860509200108327
0.831,0.0412,-0.15999999999988898,0.037413342770088974,1.0846427785032202,0.08630347508647261,0.051230719110142826
0.8320000000000001,-0.002700000000003864,0.839999999999889,0.03733562688704457,1.0846427785032202,0.08610100315028615,0.051230719110142826
0.833,-0.0201,-0.16,0.0372863033294053,1.0846427785032202,0.0859725012813809,0.051230719110142826
0.8340000000000001,-0.014899999999996846,-0.16,0.03748845910653543,1.078203479127246,0.08649917446584988,0.050097615328159525
0.835,-0.0007,0.84,0.037489574910236384,1.0745549373056367,0.08650208145122902,0.049455592602486186
0.8360000000000001,0.003799999999999112,-2.16,0.03750219780183053,1.0745549373056367,0.08653496766703483,0.049455592602486186
0.837,-0.0002,-1.16,0.03752747289694857,1.0745549373056367,0.08660081646454414,0.049455592602486186
0.8380000000000001,0.017900000000006615,-0.16,0.03754099180898682,1.0810159702081228,0.08663603706795611,0.050592520766540965
0.839,0.0477,0.84,0.03759923427746854,1.0957833265435426,0.08678777523137679,0.053191087215554295
0.8400000000000001,0.04369999999999758,0.84,0.03758472236434074,1.0957833265435426,0.0867499675782478,0.053191087215554295
0.841,0.0328,-0.16,0.03751555219697941,1.0957833265435424,0.08656975965724936,0.05319108721555425
0.8420000000000001,0.036100000000000666,-2.16,0.03728702908342313,1.0921935128980829,0.08597439207661385,0.0525593987071022
0.843,0.0391,-0.16,0.03691432249052702,1.088591861306375,0.08500338560358674,0.05192562711151881
0.8440000000000001,0.031099999999998466,1.84,0.036814800603927146,1.084978253878068,0.08474410283816679,0.05128975168400024
0.845,0.0242,0.84,0.03685641691648866,1.0996924034811388,0.08485252514582371,0.0538789555073409
0.8460000000000001,-0.009400000000011746,0.84,0.03708871424531648,1.0996924034811388,0.08545772562861098,0.0538789555073409
0.847,-0.0623,-0.16,0.0372925311473992,1.1024500749317565,0.0859887265151175,0.05436421450334611
0.8480000000000001,-0.04129999999999863,-0.16,0.037223020263918695,1.1106820085180864,0.08580763093191106,0.05581276263491896
0.849,-0.0351,0.84,0.03674822041670667,1.1106820085180864,0.0845706425506412,0.05581276263491896
0.8500000000000001,-0.005799999999996535,0.84,0.03619324129160826,1.1106820085180864,0.08312476439034878,0.05581276263491896
0.851,0.0098,0.84,0.035889157723011586,1.0961153922648597,0.08233254037532885,0.05324951980312667
0.8520000000000001,-0.004400000000000955,-1.16,0.03586667091296793,1.0961153922648599,0.08227395585193617,0.05324951980312671
0.853,-0.0087,-0.16,0.03596206596036979,1.0961153922648599,0.08252248702977816,0.05324951980312671
0.8540000000000001,-0.0286000000000008,1.84,0.0359959499690282,1.1150114783405654,0.08261076449083339,0.05657460617462722
0.855,-0.0322,0.84,0.0360426596917054,1.1114837685351218,0.08273245657768497,0.055953845888624384
0.8560000000000001,-0.05509999999999541,-1.16,0.0360193311336087,1.1114837685351218,0.08267167906167092,0.055953845888624384
0.857,-0.0344,0.84,0.036017715715555065,1.1079448265156795,0.0826674704390798,0.05533110910433829
0.8580000000000001,0.0008000000000010437,-0.16,0.036017983191913634,1.1106820085180864,0.08266816729092116,0.05581276263491896
0.859,0.0055,1.84,0.03603423042029923,1.1106820085180864,0.0827104959328928,0.05581276263491896
0.8600000000000001,0.00989999999999556,0.84,0.03604440464225221,1.1043945443041097,0.08273700266919061,0.054706376821188445
0.861,-0.0101,0.84,0.03604777676214883,1.1043945443041099,0.08274578799874971,0.054706376821188486
0.8620000000000001,-0.013700000000002198,0.84,0.0360754934118805,1.1071405036993245,0.08281799773910056,0.055189574882688684
0.863,-0.0236,-0.16,0.035809680640157986,1.0630386807182701,0.08212548001369561,0.0474291122151753
0.8640000000000001,-0.05039999999999756,-1.16,0.03441325978058269,1.069569283057591,0.07848740727883613,0.04857828229987783
0.865,-0.0394,1.84,0.03376085867065557,1.066726612500793,0.07678771719332726,0.04807806627158471
0.8660000000000001,-0.01659999999999405,0.84,0.03324324804388876,1.066726612500793,0.07543919457881504,0.04807806627158471
0.867,0.0102,0.84,0.03337015570082519,1.070401838064375,0.07576982504983633,0.048724784453577336
0.8680000000000001,0.020900000000000685,1.84,0.03303121293337629,1.0618576828383612,0.07488678292648343,0.04722129563667733
0.869,0.024,0.84,0.03254123929208417,1.0311404350675129,0.07361026250431871,0.04181607566024159
0.8700000000000001,0.0150999999999994,-0.16,0.03098824053258517,1.0281915246627489,0.06956425989309858,0.04129716493140747
0.871,0.0124,-1.16,0.0281000275403079,1.0281915246627489,0.06203964518427322,0.04129716493140747
0.8720000000000001,0.024200000000002487,-1.16,0.027371663651327576,1.0933417433341897,0.06014205049612065,0.05276144929890965
0.873,0.0354,-0.16,0.027323275914031258,1.096115392264864,0.060015986704855875,0.053249519803127456
0.8740000000000001,0.01730000000000815,-1.16,0.027387908799795763,1.093341743334192,0.06018437371931701,0.05276144929891008
0.875,0.054,0.84,0.02735295056213725,1.071233746015723,0.06009329758677996,0.048871172746914285
0.8759999999999999,0.0695,1.84,0.027351913394904257,1.071233746015723,0.06009059547172205,0.048871172746914285
0.877,0.0648,0.84,0.027336651651782617,1.0647133529949706,0.06005083429860826,0.047723799164720145
0.8779999999999999,0.0343,-0.16,0.027387080809691277,1.0675613844124863,0.06018221657005702,0.04822495852724877
0.879,0.0064,-1.16,0.02751543212661928,1.0740644878431613,0.06051660818516157,0.04936928971325013
0.8799999999999999,-0.0262,1.84,0.02771159368695134,1.0768877887174249,0.06102766473332042,0.049866097317853963
0.881,-0.0479,0.84,0.027645450782467308,1.0647133529949746,0.060855343691452735,0.047723799164720845
0.8819999999999999,-0.0438,-0.16,0.027339962887346414,1.0675613844124905,0.0600594610071974,0.04822495852724951
0.883,-0.0402,-0.16,0.027462648859480753,1.0675613844124914,0.060379092790918694,0.048224958527249666
0.8839999999999999,-0.0041,0.84,0.027435286280790904,1.0740644878431664,0.06030780550614033,0.04936928971325103
0.885,0.01,-0.16,0.02739736652959669,1.0740644878431667,0.060209013790171344,0.049369289713251066
0.8859999999999999,0.0143,-0.16,0.02749703029529924,1.0933417433342008,0.06046866619092834,0.052761449298911606
0.887,0.0103,-1.16,0.027787123887599945,1.0712337460157295,0.061224442346426065,0.04887117274691542
0.8879999999999999,0.0213,1.84,0.027938093713414814,1.0647133529949757,0.0616177615977946,0.04772379916472104
0.889,0.005,0.84,0.028014452153660257,1.0712337460157282,0.06181669701015862,0.04887117274691519
0.8899999999999999,-0.0098,0.84,0.027954347781403113,1.0683955040901183,0.06166010805887278,0.04837173601128344
0.891,0.0037,0.84,0.027680664079874157,1.0655497021336295,0.06094708432703685,0.04787096896018093
0.8919999999999999,-0.0031,0.84,0.02748976307065741,1.0655497021336298,0.06044973300782222,0.04787096896018097
0.893,-0.0277,0.84,0.02731320926320385,1.0495089104719293,0.05998976022187589,0.0450483199984484
0.8939999999999999,-0.044,1.84,0.027041981458528052,1.0495089104719288,0.05928313479848676,0.04504831999844832
0.895,-0.0469,0.84,0.027306225945021117,1.049508910471923,0.05997156669568696,0.04504831999844731
0.8959999999999999,-0.039,0.84,0.02753672366541763,1.0532442177738943,0.06057207868766397,0.04570561057986138
0.897,-0.0024,1.84,0.02756755261506138,1.0728956267714946,0.06065239685276026,0.04916360881171289
0.8979999999999999,0.0025,0.84,0.02687327548380674,1.0728956267714946,0.058843607844536655,0.04916360881171289
0.899,0.0072,-0.16,0.02666077018584112,1.0793665922671878,0.058289971220419595,0.05030228478376209
0.8999999999999999,0.0202,-0.16,0.026429265096194227,1.0793665922671887,0.05768683474558799,0.05030228478376225
0.901,0.0082,-1.16,0.02650741039812099,1.0913775817495002,0.05789042543986019,0.05241582180279696
0.9019999999999999,0.0264,-1.16,0.02685310972001732,1.0885918613063736,0.05879107030550118,0.051925627111518574
0.903,0.0167,-2.16,0.027006476880128593,1.0849782538780663,0.05919063529323228,0.05128975168399997
0.9039999999999999,0.0197,0.84,0.026998433054866943,1.0877732285872859,0.05916967884506143,0.05178157482012883
0.905,0.0118,0.84,0.026865587170966633,1.0728956267714884,0.05882357760714163,0.04916360881171179
0.9059999999999999,-0.0201,0.84,0.02677443540949679,1.0700617928430458,0.05858610139367493,0.04866494773783603
0.907,0.0016,0.84,0.02627087329760578,1.0635342147506976,0.05727417914830249,0.047516309820607346
0.9079999999999999,0.0136,-0.16,0.02609098220660003,1.126642526391624,0.05680551179136314,0.05862128606409734
0.909,0.0173,-0.16,0.026090946845106357,1.1408194218016785,0.0568054196646342,0.06111595091317247
0.9099999999999999,0.0076,-0.16,0.026098755582728977,1.1266425263916204,0.056825763642772115,0.058621286064096716
0.911,0.0164,0.84,0.02613044653289376,1.1239442142878717,0.056908327563917886,0.058146472350490426
0.9119999999999999,0.0085,0.84,0.026118428750817664,1.1212394085958046,0.056877017830176284,0.057670515980043295
0.913,-0.0281,-1.16,0.02612500396381212,1.118528062207363,0.05689414812650278,0.05719340866329502
0.9139999999999999,-0.0436,-0.16,0.02607570947588362,1.1247365204804398,0.05676572199244597,0.058285892043669685
0.915,-0.0001,0.84,0.02558579375605138,1.1185280622073628,0.05548935247212615,0.05719340866329498
0.9159999999999999,0.0293,-1.16,0.025288763058485438,1.1103542991390736,0.05471550318820782,0.05575509661955457
0.917,0.0243,-1.16,0.025250694378616736,1.1076163072895377,0.0546163234707661,0.0552733005826559
0.9179999999999999,0.0196,-1.16,0.02545223820275383,1.1048715304191707,0.0551414023439759,0.05479031060643002
0.919,0.0327,-0.16,0.02554939584941243,1.0902272826548496,0.05539452559322275,0.052213407195483674
0.9199999999999999,0.0287,0.84,0.025530696294558244,1.1228272791176745,0.05534580794466963,0.05794992869074032
0.921,0.0106,3.84,0.025524516127263162,1.1290120961654435,0.05532970685452984,0.059038251997131315
0.9219999999999999,-0.0057,0.84,0.0255596031470173,1.1370517444763115,0.05542111850098278,0.06045296427791914
0.923,-0.0206,-0.16,0.025546095783772194,1.1370517444763115,0.05538592798545525,0.06045296427791914
0.9239999999999999,0.0038,-0.16,0.025441003499151,1.1431596057304123,0.0551121327519461,0.061527745909081256
0.925,0.0071,-1.16,0.025908827416693023,1.1370517444763115,0.056330946856200034,0.06045296427791914
0.9259999999999999,0.01,-0.16,0.02544136593336715,1.1370517444763115,0.05511307699596174,0.06045296427791914
0.927,-0.0251,0.84,0.024575485093118576,1.1255282689358415,0.05285721161344114,0.058425213593548596
0.9279999999999999,-0.0298,-1.16,0.024031539987540772,1.1255282689358415,0.05144008020617706,0.058425213593548596
0.929,-0.043,0.84,0.023789406608451774,1.1282227925443729,0.05080925402034437,0.05889936065725896
0.9299999999999999,-0.0311,0.84,0.02381214814030423,1.1282227925443729,0.05086850216635568,0.05889936065725896
0.931,0.001,0.84,0.023677812501889408,1.1138855860144705,0.05051851969503573,0.05637648635159741
0.9319999999999999,0.0263,0.84,0.023266712143249074,1.1138855860144705,0.04944748656358048,0.05637648635159741
0.933,0.0164,-1.16,0.022902741329882723,1.1166082053136237,0.04849923927601455,0.05685557732790481
0.9339999999999999,-0.0043,-0.16,0.022543496752864975,1.1309108961627061,0.04756330517575205,0.059372378014964214
0.935,-0.0232,-2.16,0.022637855788759247,1.1309108961627061,0.047809137249528864,0.059372378014964214
0.9359999999999999,-0.04,-0.16,0.02263304138782745,1.1450349452944035,0.04779659436845933,0.06185774366635122
0.937,-0.0288,-0.16,0.022768301553354325,1.1450349452944037,0.04814898549534751,0.06185774366635126
0.938,-0.027,-1.159999999999889,0.02288080542865983,1.1529628711602524,0.04844209002648398,0.06325279649079261
0.9390000000000001,-0.0436,-0.16,0.022784179088838192,1.1389371411049292,0.04819035098236709,0.06078473174603782
0.94,-0.019,-0.16,0.02281615979182458,1.1362680255755497,0.04827366979186396,0.06031505566416865
0.9410000000000001,-0.0028,-0.16000000000011103,0.02284746781502255,1.1397190246106865,0.04835523607956145,0.0609223173909528
0.942,-0.0177,-1.159999999999889,0.022955257457641674,1.1431596057304125,0.048636058696341994,0.0615277459090813
0.9430000000000001,0.0064,-0.15999999999977796,0.023043282685420906,1.1465898627180902,0.04886538940202969,0.06213135772132509
0.944,0.0491,1.839999999999667,0.023426485599638988,1.143938603179811,0.049863741771643745,0.061664823703501334
0.9450000000000001,0.0431,-1.160000000000111,0.023466715171736638,1.1298008483618491,0.04996855122674458,0.05917704630449486
0.946,0.0164,-2.159999999999778,0.023536992490386415,1.1332715411909589,0.05015164359113146,0.0597877734878651
0.9470000000000001,0.0115,-0.16000000000011103,0.02354679996810304,1.1305890502876894,0.05017719485458755,0.05931574378243298
0.948,0.0244,-1.1599999999997779,0.023547151317485755,1.1162822357023319,0.05017811021946548,0.05679821745413586
0.9490000000000001,0.0044,0.840000000000111,0.02395009331968498,1.1162822357023319,0.051227888516515926,0.05679821745413586
0.95,-0.021,1.839999999999778,0.02563274917463153,1.1305890502876894,0.055611684666549484,0.05931574378243298
0.9510000000000001,-0.0438,-0.15999999999988898,0.02577340897889809,1.1447170705096705,0.05597814338512554,0.06180180821441029
0.952,-0.0289,0.84,0.02576644966366087,1.1386175639604168,0.05596001239342328,0.06072849673506233
0.9530000000000001,0.0062,0.839999999999889,0.02580686557514225,1.1324852062619033,0.05606530731551404,0.05964940453963095
0.954,0.0109,-0.16,0.026004613748109917,1.1111562956163672,0.05658049743997318,0.055896221482447155
0.9550000000000001,0.0239,-0.16,0.025997419437554615,1.1111562956163674,0.05656175421876027,0.055896221482447196
0.956,0.0199,-0.15999999999955591,0.02597318928363077,1.1146850417952368,0.056498627789684584,0.05651716413590645
0.9569999999999999,0.0162,3.839999999999778,0.02589436860961253,1.1263194608302567,0.05629327755939927,0.058564437207095955
0.9580000000000002,-0.00019999999999613643,1.839999999999778,0.02591823828466103,1.1236203729027205,0.05635546483867718,0.05808948697415482
0.9590000000000001,0.0085,-0.16,0.026337633007412382,1.1236203729027205,0.05744810714312519,0.05808948697415482
0.96,-0.0159,-0.16,0.027306521026991066,1.12362037290272,0.05997233546798226,0.058089486974154746
0.9609999999999999,0.0068,-0.16,0.027523718363279274,1.1263194608302565,0.06053819618383734,0.05856443720709592
0.9620000000000002,0.01530000000000111,-0.16,0.02751319440927034,1.1298008483618391,0.060510778296256895,0.0591770463044931
0.9630000000000001,0.0178,-1.16,0.027556368767377465,1.127110097335757,0.06062325975483547,0.05870356309055762
0.964,0.0057,-0.16,0.02780905497042205,1.1351632163900247,0.06128157904265482,0.06012064577678881
0.9649999999999999,0.0078,-1.16,0.028164242090443676,1.1378349235666207,0.06220694231567047,0.0605907779028782
0.9660000000000002,0.009700000000010658,-0.16,0.02945991442866045,1.1412811846350701,0.06558253655336446,0.061197205904180894
0.9670000000000001,0.0337,-0.16,0.029844257630454177,1.1351632163900225,0.06658385969580136,0.06012064577678841
0.968,0.0306,-0.16,0.02977107993801182,1.1290120961654266,0.06639321103436883,0.059038251997128345
0.9689999999999999,0.0219,2.84,0.029712747557944494,1.1370517444762949,0.06624123862574488,0.06045296427791621
0.9700000000000002,0.013999999999985835,-1.16,0.029553542205364287,1.1370517444762944,0.06582646348937096,0.06045296427791613
0.9710000000000001,-0.0179,1.84,0.02952016818261236,1.1370517444762944,0.06573951468636947,0.06045296427791613
0.972,-0.0223,-1.16,0.02957226372530952,1.0745549373056038,0.06587523836322137,0.0494555926024804
0.9729999999999999,-0.0263,-1.16,0.029611216556677162,1.0745549373056036,0.06597672154629793,0.049455592602480364
0.9740000000000002,-0.05169999999998681,-0.16,0.029564846975424868,1.0810159702080924,0.06585591562441266,0.050592520766535615
0.9750000000000001,-0.022,0.84,0.029645844531334065,1.1029279019768792,0.06606693724996551,0.054448296264474116
0.976,0.0219,0.84,0.02969862160556565,1.0993614182082905,0.06620443650992787,0.0538207130429752
0.9769999999999999,0.0393,0.84,0.02968247559561244,1.1209147857705868,0.06616237157070501,0.0576133930960934
0.9780000000000002,0.002299999999993694,0.84,0.0295749953130355,1.1209147857705868,0.06588235492465098,0.0576133930960934
0.9790000000000001,-0.0119,-1.16,0.029424941819745472,1.1209147857705868,0.06549142297962483,0.0576133930960934
0.98,-0.0075,-0.16,0.029106743893599768,1.1393996667677175,0.0646624270566109,0.06086612096979798
0.9809999999999999,-0.0194,0.84,0.02895725738505931,1.1428412093307463,0.06427297226780478,0.06147171867015872
0.9820000000000002,-0.01579999999999272,0.84,0.02901741692326602,1.1428412093307463,0.06442970494204894,0.06147171867015872
0.9830000000000001,0.0006,1.84,0.028920013016336142,1.1462724191302605,0.06417594011489063,0.062075498145782095
0.984,0.0213,0.84,0.028882171640094784,1.1462724191302605,0.06407735258792178,0.062075498145782095
0.9849999999999999,-0.0084,1.84,0.028884097854941674,1.1462724191302605,0.06408237092438382,0.062075498145782095
0.9860000000000002,-0.028299999999998354,-0.16,0.028820297729263387,1.1252048834521484,0.06391615348633911,0.058368308440795755
0.9870000000000001,-0.0246,1.84,0.028538489134906992,1.1393996667677175,0.06318196210231118,0.06086612096979798
0.988,-0.0017,-0.16,0.028421782410196418,1.1454950088007692,0.06287790795543068,0.061938699631989405
0.9889999999999999,0.0132,-0.16,0.02837126555291128,1.1454950088007703,0.06274629720221138,0.061938699631989606
0.9900000000000002,0.015800000000003065,-1.16,0.028052164679521322,1.1515580878724985,0.06191494884531064,0.06300560107972662
0.9910000000000001,0.0227,-1.16,0.027986967995481556,1.165431937365022,0.061745092976299584,0.06544693986718855
0.992,0.0206,-1.16,0.027985493992081483,1.1654319373650217,0.061741252779023724,0.06544693986718851
0.9929999999999999,0.0508,-0.16,0.02797171818126342,1.159441411229262,0.061705362881365626,0.06439280533730074
0.9940000000000002,0.046500000000001866,-0.16,0.028021504821638885,1.1594414112292624,0.06183507121225186,0.06439280533730082
0.9950000000000001,0.0507,-1.16,0.02763521484620132,1.1594414112292675,0.06082867617185097,0.06439280533730173
0.996,0.04,-0.16,0.027306081848087364,1.1534197724663056,0.05997119128227039,0.0633331960137304
0.9969999999999999,-0.0027,-0.16,0.02726055182490746,1.1465898627180864,0.05985257264748524,0.06213135772132443
0.9980000000000002,-0.043600000000021226,0.84,0.02726187686146394,1.149235005875992,0.059856024743846985,0.06259681545843368
0.9990000000000001,-0.0914,1.84,0.02716698162912946,1.145812667767563,0.059608795726135796,0.06199459710710884
1.0,-0.0333,1.84,0.027185177383304907,1.1431596057304099,0.05965620083090917,0.061527745909080826
1.001,0.0055,-0.16,0.027132500939172233,1.131698324965979,0.05951896374091991,0.059510939448892915
1.0020000000000002,-0.02970000000000271,-0.16,0.026773702578195564,1.1316983249659793,0.05858419216010974,0.059510939448892956
1.0030000000000001,-0.0358,-0.15999999999977796,0.02662735247064014,1.1351632163900398,0.05820290858618557,0.06012064577679146
1.004,-0.0183,0.84,0.026621986140902554,1.138617563960419,0.05818892777390342,0.060728496735062726
1.005,-0.0027,-1.1599999999993338,0.02669126256279732,1.138617563960419,0.05836941251812347,0.060728496735062726
1.0059999999999998,0.0021,1.84,0.02670975828528018,1.1594414112292764,0.0584175991254883,0.06439280533730328
1.0070000000000001,-0.011,-0.16,0.026653620425361905,1.159441411229277,0.05827134406480112,0.0643928053373034
1.008,0.0489,-0.16,0.02662961897914107,1.0954511601626558,0.05820881348421399,0.05313263691522583
1.009,0.0743,-0.15999999999977796,0.02674396507367695,1.0806792648218495,0.05850671751938801,0.0505332717513416
1.0099999999999998,0.0355,0.84,0.02678969376191623,1.0871038993458637,0.05862585373304699,0.051663795004256746
1.0110000000000001,0.0145,-1.1599999999997779,0.026750628052727696,1.0898934229620314,0.05852407647120488,0.05215465892824275
1.012,-0.0173,-0.16,0.026910163128819956,1.0898934229620314,0.05893971063092483,0.05215465892824275
1.013,-0.0467,1.839999999999778,0.026869825192852404,1.0962640594186153,0.05883461885718215,0.0532756803066755
1.0139999999999998,-0.0623,0.84,0.026903162457703363,1.092675825146143,0.0589214718954173,0.05264426971564902
1.0150000000000001,-0.0862,-1.1599999999997779,0.026963230724699926,1.092675825146143,0.059077966782250295,0.05264426971564902
1.016,-0.0557,-0.16,0.027000034512253725,1.092675825146143,0.05917385109615244,0.05264426971564902
1.017,-0.0118,-0.15999999999955591,0.02708993444853526,1.095451160162659,0.05940806594965365,0.05313263691522642
1.0179999999999998,0.0056,1.84,0.027120857091871987,1.1017896618042868,0.05948862821341656,0.05424800362872839
1.0190000000000001,0.0108,-0.15999999999977796,0.026973322520410133,1.104542097116138,0.05910425877478772,0.05473234123743772
1.02,0.025,0.84,0.02691136703106192,1.0750451630187776,0.05894284713801143,0.0495418561192374
1.021,0.0206,0.84,0.027007237815754856,1.06854802792059,0.05919261774654203,0.04839857516241761
1.0219999999999998,0.0165,0.84,0.02752817065516164,1.0599889299630665,0.06054979566804284,0.046892456918836506
1.0230000000000001,0.0128,-1.160000000000222,0.029791078003823572,1.0599889299630665,0.06644531167256883,0.046892456918836506
1.024,0.0224,-2.16,0.031570135304540545,1.1006502445184045,0.07108026095387619,0.05404750385996356
1.025,0.0192,0.84,0.03189558953161591,1.145954887606702,0.07192816160062517,0.06201962309645835
1.0259999999999998,0.0001,-2.16,0.03241837880799613,1.149376802247142,0.07329017606742012,0.06262176693141863
1.0270000000000001,0.0021,0.84,0.03282506955723557,1.1527885593889466,0.07434972091465017,0.06322212338246537
1.028,0.0041,-1.16,0.032592741432362286,1.1527885593889466,0.07374444019942254,0.06322212338246537
1.029,-0.0019,-2.16,0.033790874870159,1.183666774706406,0.07686591791359632,0.06865566832489384
1.0299999999999998,0.0108,-1.16,0.0370285951826882,1.1803442736886933,0.08530109840473826,0.06807101800053399
1.0310000000000001,0.0189,0.84,0.03960441194471322,1.1803442736886933,0.0920118322552533,0.06807101800053399
1.032,0.011,-1.16,0.0410543776122768,1.1913376472992872,0.09578940441444442,0.07000548827247013
1.033,0.0068,-1.16,0.041828949179458855,1.188786189535229,0.09780738322107686,0.06955651606707589
1.0339999999999998,-0.0054,-0.16,0.04220889356304517,1.1777690006901937,0.09879724619341083,0.06761785510130197
1.0350000000000001,-0.0132,-0.16,0.04244006886335853,1.1810987461262308,0.09939952347341277,0.06820378020375838
1.036,0.0007,1.84,0.042524333776356976,1.1733609384039594,0.099619057491673,0.06684218188654414
1.037,0.0135,-1.16,0.04243887830229881,1.1733609384039594,0.09939642172389304,0.06684218188654414
1.0379999999999998,0.0215,-1.16,0.042374036858148285,1.1621975332658852,0.0992274913556338,0.06487779168767256
1.0390000000000001,0.0111,-1.16,0.04239413830523168,1.1621975332658852,0.09927986133139279,0.06487779168767256
1.04,0.0021,1.84,0.04241240607178377,1.1621975332658852,0.09932745404884917,0.06487779168767256
1.041,0.0011,-0.16,0.04244284552628824,1.1561902489522302,0.09940675746854341,0.06382070827256556
1.0419999999999998,-0.0154,-0.16,0.04252170869207416,1.150151588798247,0.09961221840194548,0.06275810374696761
1.0430000000000001,-0.0176,-0.16,0.042503637022302095,1.1440810559825048,0.09956513657226619,0.061689890686733785
1.044,-0.0153,1.84,0.042206792443751945,1.1440810559825048,0.09879177218121676,0.061689890686733785
1.045,-0.0054,-0.16,0.041952541229495384,1.150151588798247,0.09812937559493759,0.06275810374696761
1.0459999999999998,-0.0035,1.84,0.04167455710518893,1.1467319861680647,0.09740514804102474,0.06215636674936866
1.0470000000000002,-0.0114,0.84,0.04164875440234656,1.1467319861680647,0.09733792467562397,0.06215636674936866
1.048,0.0085,0.84,0.04189546100050871,1.149376802247142,0.0979806653953212,0.06262176693141863
1.049,0.011,-0.16,0.04188496447946121,1.1606635253107498,0.09795331897839256,0.06460785700781567
1.0499999999999998,0.013,0.84,0.04095346686919058,1.1467319861680647,0.09552650328362915,0.06215636674936866
1.0510000000000002,0.0018,-0.16,0.040819988940912086,1.1326290995798807,0.09517875539068861,0.059674725005924315
1.052,-0.0079,-1.16,0.0408171551912187,1.1535610544437205,0.09517137266833366,0.06335805697042582
1.053,-0.0025,-1.16,0.040717401970545276,1.1595819595381762,0.09491148721198435,0.06441753719259798
1.0539999999999998,0.0222,-0.16,0.04063357987272302,1.16557176331768,0.09469310685295805,0.0654715446116686
1.0550000000000002,0.0259,-2.16,0.04088241446873041,1.1689362534191774,0.09534139161110723,0.06606358362645275
1.056,0.0096,-0.16,0.04097105282661981,1.1629637784559717,0.09557231969477838,0.06501262550609278
1.057,-0.0111,-0.16,0.04103620563771689,1.1629637784559717,0.09574206126231974,0.06501262550609278
1.0579999999999998,-0.0245,-0.16,0.04105490865135064,1.1629637784559717,0.09579078792197543,0.06501262550609278
1.0590000000000002,-0.0175,-1.16,0.04099347811111044,1.165571763317687,0.09563074392664044,0.0654715446116698
1.06,0.0073,0.84,0.04060315314044748,1.1655717633176874,0.09461383657828157,0.06547154461166989
1.061,0.0302,-0.16,0.04053494268800532,1.1689362534191845,0.09443612898707747,0.066063583626454
1.0619999999999998,0.0035,-1.16,0.040510091690958414,1.1655717633176894,0.09437138508543029,0.06547154461167023
1.0630000000000002,-0.0219,0.84,0.040475833340385965,1.1655717633176896,0.09428213235742622,0.06547154461167028
1.064,-0.0186,-0.16,0.04021250153173428,1.165571763317693,0.09359607824508054,0.06547154461167086
1.065,-0.0158,-1.16,0.03972807940533965,1.1629637784559779,0.09233402109510717,0.06501262550609388
1.0659999999999998,-0.0238,0.84,0.03878610087558934,1.1629637784559799,0.08987989962992805,0.06501262550609423
1.0670000000000002,-0.0357,-1.16,0.038382651175151675,1.1689362534191923,0.08882879863484845,0.06606358362645535
1.068,-0.011,0.84,0.038422352516484966,1.1826062470000416,0.08893223189886165,0.06846905051372898
1.069,0.0119,-1.16,0.038669621136182025,1.174878367795913,0.08957643684419583,0.06710919928743257
1.0699999999999998,0.0268,-0.16,0.038873971534730475,1.188480016660193,0.0901088276404368,0.06950263976433114
1.0710000000000002,0.0565,-1.16,0.03885940342219301,1.1917798366790693,0.09007087357189257,0.07008329898281751
1.072,0.1163,-1.16,0.03880836343626321,1.195070545293861,0.08993789992005577,0.07066235489544331
1.073,0.108,-3.16,0.03877958469785029,1.1925270742360756,0.08986292313719996,0.07021478808628162
1.0739999999999998,0.0692,-3.16,0.03876061936054388,1.1892293276201493,0.08981351304991235,0.06963449371815972
1.0750000000000002,0.0623,-1.16,0.03870054074408825,1.1826062470000396,0.08965699119980063,0.06846905051372862
1.076,0.0561,-1.16,0.03866159446037331,1.1800359104707818,0.08955552507521802,0.06801675626986438
1.077,0.0031,0.84,0.03873856150021824,1.1595819595381904,0.08975604606229912,0.06441753719260047
1.0779999999999998,-0.089,2.84,0.0389023234064795,1.1595819595381904,0.09018269231446045,0.06441753719260047
1.0790000000000002,-0.1517,0.84,0.03896258044509654,1.153561054443735,0.09033967900495053,0.06335805697042836
1.08,-0.1405,-0.16,0.0389657415452699,1.132629099579895,0.09034791456822931,0.059674725005926854
1.081,-0.1097,1.84,0.039259490006423856,1.1264641417542223,0.09111321269458082,0.058589896266001945
1.0819999999999999,-0.0815,-0.16,0.03934201645879116,1.1299450835205458,0.09132821752940797,0.05920242692345224
1.0830000000000002,-0.05629999999999667,0.84,0.039360121173185554,1.1237654013250111,0.09137538544970866,0.05811500718127637
1.084,-0.0488,-1.16,0.0393646450866643,1.1318423183217252,0.09138717152850362,0.05953627751852595
1.085,-0.0279,-1.16,0.039435637144342006,1.134521845971601,0.09157212599094798,0.060007785789337444
