time_sec,bts_raw,diy_raw,bts_rms,diy_rms,bts_norm_rms,diy_norm_rms
0.0,-0.0002,-1.325,0.007793052443062678,0.9712346593705863,0.027791760300399166,0.034373524624799624
0.001,-0.0092,0.675,0.007839545888476306,0.9656598382094934,0.028091799901089547,0.03365078043971369
0.002,0.0089,-1.325,0.007916695007474836,0.9680392569079149,0.028589672034505326,0.0339592586811631
0.003,-0.003,-0.325,0.007936298176572487,0.9680392569079149,0.028716178620025033,0.0339592586811631
0.004,0.0082,0.675,0.007936837606682547,0.970412841371584,0.028719659764375224,0.034266980546915446
0.005,-0.0016,-0.325,0.007941515327682832,0.970412841371584,0.02874984684835191,0.034266980546915446
0.006,0.0003,-0.325,0.007946361013832743,0.9648332717454126,0.028781117874290205,0.03354362075005929
0.007,-0.0044,-1.3249999999999167,0.008017738964638619,0.9672147238597011,0.029241746499838666,0.03385236261243057
0.008,-0.0118,1.675,0.008023632204795147,0.9908082976534176,0.02927977778376711,0.03691113665594836
0.009000000000000001,-0.005199999999999994,1.6749999999999445,0.008026061722855962,0.9830066950346301,0.029295456372917725,0.03589970278853897
0.01,-0.0016,-0.325,0.008054189473727677,0.9853442252669615,0.029476975274448602,0.03620275042613331
0.011,-0.0091,-0.325,0.008055279834093435,0.9774990138363269,0.029484011777892054,0.03518566292172457
0.012,-0.0198,-0.325,0.008062345617045684,0.9535761959083924,0.029529609919236425,0.03208420422938962
0.013000000000000001,-0.012099999999999988,0.675,0.00806299757943312,0.9535761959083924,0.029533817276481113,0.03208420422938962
0.014,-0.0055,0.675,0.00810332845967535,0.9535761959083924,0.029794087538143048,0.03208420422938962
0.015,-0.0018,0.675,0.008123529203882776,0.9478975266194162,0.02992445049945346,0.0313479967190434
0.016,0.0148,-0.325,0.008157394358188809,0.9421846318738663,0.03014299501223163,0.030607352070893858
0.017,-0.0019,1.675,0.008367324167777888,0.9478975266194162,0.03149775062738874,0.0313479967190434
0.018000000000000002,-0.013099999999999952,-0.325,0.008381226181224171,0.971960123471677,0.03158746552216814,0.03446757696215732
0.019,0.0007,-0.325,0.008381423190618026,0.9695903268056228,0.03158873689750585,0.03416034616304574
0.02,-0.0083,0.675,0.008383749025435901,0.9695903268056228,0.031603746379892425,0.03416034616304574
0.021,0.0065,-0.325,0.00838394597554693,0.9544125115834077,0.031605017372655884,0.032192627849367245
0.022,-0.0032,-1.325,0.008384110560387905,0.9600526457954596,0.03160607950022089,0.03292383950388885
0.023,-0.0198,-0.325,0.00840262332815763,0.9680392569079103,0.03172554931795295,0.033959258681162494
0.024,0.0049,0.675,0.00844831499562349,0.9608833246355615,0.032020414745528164,0.03303153233994745
0.025,0.0275,0.675,0.008469774074662597,0.9688630882527453,0.03215889821236517,0.03406606377800156
0.026000000000000002,0.024399999999999936,-0.325,0.00847886522001559,0.9688630882527453,0.032217566775154256,0.03406606377800156
0.027,0.0055,1.675,0.008535021745192432,0.9767776635420181,0.03257996584539567,0.035092143916261184
0.028,-0.0262,0.675,0.00882342635031913,0.9822893893484334,0.03444114868073173,0.03580670814375181
0.029,-0.0044,-0.325,0.00957069278881097,0.9846286224818782,0.03926353862881436,0.03610997655289055
0.03,0.0155,-0.325,0.009847274316655774,0.9916132126805752,0.041048422722359375,0.037015489358672986
0.031,0.0047,0.675,0.009856769079688125,1.0039411553207362,0.041109695981063524,0.03861373773288679
0.032,-0.0051,0.675,0.009989419984522654,1.001647025434954,0.04196574190675657,0.03831631670593928
0.033,0.0036,0.675,0.009991178875303673,0.9962424017932472,0.04197709268712787,0.03761563767126763
0.034,0.0011,-0.325,0.01005800099584622,0.9704128413715803,0.04240832083523567,0.03426698054691497
0.035,-0.001,-0.325,0.010095339626416119,0.9704128413715803,0.042649280990088675,0.03426698054691497
0.036000000000000004,0.005500000000000094,1.675,0.010145989663297739,0.9727806343070913,0.042976144630881785,0.034573951573639815
0.037,0.0191,-0.325,0.010790208918606008,0.9672147238596986,0.047133532546535906,0.03385236261243025
0.038,0.0208,-1.325,0.01119216528987858,0.9672147238596988,0.04972750741887829,0.03385236261243026
0.039,0.0058,1.675,0.011490767792437465,0.9616165980363897,0.05165450110230733,0.033126597109060664
0.04,0.0076,-0.325,0.01171139625612713,0.9695903268056237,0.0530782991357173,0.034160346163045856
0.041,-0.0127,-0.325,0.011753796905681763,0.9954412299412508,0.053351926393241544,0.03751177025013382
0.042,-0.0101,0.675,0.011840160570184877,0.9806635930322202,0.053909263436799866,0.035595932802315225
0.043000000000000003,-0.007899999999999985,0.675,0.011978839127007762,0.9806635930322202,0.054804208056267865,0.035595932802315225
0.044,-0.0056,-1.325,0.012067178437765827,0.9751426779025468,0.055374294684378746,0.034880177230787235
0.045,-0.0113,-1.325,0.0120951790725265,0.9600526457954605,0.055554993258079347,0.03292383950388896
0.046,-0.0059,-0.325,0.012312392833412091,0.9600526457954605,0.05695675493654303,0.03292383950388896
0.047,-0.0044,0.675,0.012313052626972217,0.9727806343070914,0.056961012831275436,0.03457395157363983
0.048,-0.0087,-0.325,0.012314557813443008,0.9798496832856743,0.056970726362798915,0.03549041398484962
0.049,0.0115,0.675,0.01231494351836655,0.9616165980363897,0.05697321546099791,0.033126597109060664
0.05,0.0085,0.675,0.012397398698448992,0.9672147238596988,0.05750532959206932,0.03385236261243026
0.051000000000000004,0.010999999999999885,0.675,0.012505058415297723,0.9672147238596988,0.05820009803020841,0.03385236261243026
0.052000000000000005,-0.005599999999999955,-0.325,0.012471597421291093,0.9727806343070915,0.0579841617150755,0.03457395157363984
0.053,0.0009,0.675,0.012449765705184159,0.9798496832856745,0.0578432734818023,0.03549041398484964
0.054,0.0027,-0.3249999999999445,0.012630977010158643,0.9798496832856743,0.0590126978404709,0.03549041398484962
0.055,-0.0028,0.675,0.012693408753445462,0.9774990138363276,0.05941559324130712,0.035185662921724675
0.056,-0.0107,0.6749999999998335,0.01274065587576924,0.9798496832856742,0.05972049660111793,0.0354904139848496
0.057,-0.0031,-2.324999999999889,0.013246953120389891,0.9798496832856742,0.06298782217260782,0.0354904139848496
0.058,-0.002,-0.3249999999999445,0.01338806980653198,0.9719601234716789,0.06389850095289908,0.03446757696215757
0.059000000000000004,0.006699999999999963,0.6749999999999445,0.013345465847824988,0.96483327174541,0.06362356166533815,0.033543620750058956
0.06,0.0013,-0.3249999999999445,0.013338637972244818,0.9519990349170061,0.06357949882928865,0.03187973418406796
0.061,-0.0034,0.675,0.013347172253543786,0.9600526457954626,0.0636345737399635,0.03292383950388924
0.062,0.001,-0.325,0.013366070670102363,0.9624459270436501,0.0637565322936364,0.033234114946889035
0.063,-0.0081,-0.325,0.013253978349868484,0.9624459270436501,0.06303315860721194,0.033234114946889035
0.064,0.0057,0.675,0.013248220617022454,0.9680392569079133,0.06299600180266378,0.03395925868116288
0.065,0.0074,0.675,0.013253721797250253,0.9736004536496163,0.06303150297716677,0.03468023653696137
0.066,0.0186,-1.325,0.013252552768286834,0.9791300647915233,0.06302395879582552,0.035397119497529064
0.067,0.0048,-2.325,0.013186529134578167,0.9814768278276845,0.06259788358204346,0.035701364116172155
0.068,-0.0006,-0.325,0.013185521202187177,0.9744195832445915,0.06259137901716502,0.03478643207839539
0.069,-0.002,0.675,0.01313626088341743,0.9744195832445917,0.06227348374736806,0.03478643207839541
0.07,-0.0006,-0.325,0.013159348295325675,0.9822893893484332,0.06242247545551739,0.035806708143751795
0.07100000000000001,0.0004999999999999153,-1.325,0.01313331275141337,0.9822893893484324,0.062254458348380934,0.03580670814375168
0.07200000000000001,-0.005600000000000044,-1.325,0.013132572764455544,0.9900966440921161,0.062249682935645506,0.036818874777340305
0.073,-0.0088,-1.325,0.013245843534973968,0.9846286224818759,0.06298066160272181,0.03610997655289025
0.074,0.006,-1.325,0.013097696269103615,0.9869623113344291,0.062024611860663284,0.03641252617721794
0.075,0.0039,-0.325,0.013092043154848238,0.9846286224818753,0.06198813019902796,0.03610997655289017
0.076,-0.0098,-1.325,0.012817076680595892,0.9822893893484305,0.060213668650653855,0.035806708143751434
0.077,-0.0224,-1.325,0.012681320791928448,0.9900966440921155,0.0593375851024295,0.036818874777340235
0.078,-0.0371,0.675,0.012681536684198321,0.9775941309451618,0.059338978336031974,0.035197994319508666
0.079,-0.0232,1.675,0.012412409876547488,0.9775941309451618,0.05760220234138905,0.035197994319508666
0.08,0.0043,1.675,0.012584125174437877,0.9924174748695795,0.05871034541302208,0.0371197574246056
0.081,0.0162,-0.325,0.01249749853983795,1.000145671711111,0.05815131132502794,0.03812167464616566
0.082,-0.0019,0.675,0.01249441930321123,0.9978428157071765,0.05813143985885259,0.037823122327115544
0.083,-0.0116,-0.325,0.01250012360295627,0.9955346327850092,0.05816825183960587,0.03752387940309966
0.084,-0.0087,-0.325,0.012564662924102781,1.0009430780550395,0.058584748229007694,0.038225053890373006
0.085,0.0101,0.675,0.012657280494533525,1.008605951659147,0.05918244406767332,0.03921850232187957
0.08600000000000001,0.036699999999999906,0.675,0.012657948764859792,1.0229800219409664,0.059186756666149566,0.04108201962799615
0.08700000000000001,0.02969999999999995,0.675,0.012735416323835434,1.016211043995395,0.05968668381189507,0.0402044597372359
0.088,0.026,0.675,0.012620154253753183,1.016211043995395,0.0589428545436067,0.0402044597372359
0.089,0.0226,-1.325,0.012489476973043756,1.0229800219409664,0.05809954515290563,0.04108201962799615
0.09,-0.01,-2.325,0.012485404013668334,1.0086059516591472,0.058073260821990644,0.039218502321879595
0.091,-0.0143,-0.325,0.012571186220981762,1.0086059516591472,0.05862684550472778,0.039218502321879595
0.092,-0.0182,-0.325,0.012530964035351436,1.0229800219409664,0.05836727669006902,0.04108201962799615
0.093,-0.0146,0.675,0.01249042934819063,1.0349343965075193,0.05810569118609876,0.042631837004132686
0.094,0.0082,-0.325,0.012466917833977506,1.0327091193992333,0.05795396258708072,0.04234334235224267
0.095,0.023,0.675,0.012463217734916638,1.0327091193992333,0.05793008446329659,0.04234334235224267
0.096,-0.0013,1.675,0.012415444115161042,1.025226416492661,0.05762178341854757,0.04137325203756241
0.097,0.0019,1.675,0.012402003254726884,1.0274678996729905,0.0575350445167148,0.04166384771547533
0.098,-0.001,-1.325,0.012496807873445006,1.0274678996729905,0.058146854196353015,0.04166384771547533
0.099,-0.0143,-1.325,0.012468560484959316,1.0297045035554955,0.057964563228531815,0.04195381081988893
0.1,-0.0164,-1.325,0.012433926133099939,1.0297045035554955,0.057741054796114986,0.04195381081988893
0.101,-0.0008,-1.325,0.012412732656462158,1.0274678996729905,0.0576042853609598,0.04166384771547533
0.10200000000000001,0.005000000000000229,1.675,0.012377619673969772,1.0327091193992335,0.05737768814596881,0.0423433423522427
0.10300000000000001,0.021499999999999908,-0.325,0.012538363807682704,1.0349343965075193,0.05841503018985208,0.042631837004132686
0.10400000000000001,0.014999999999999637,-0.325,0.01254066559352001,1.0401379934923525,0.05842988447516813,0.04330645406423971
0.105,-0.0111,0.675,0.012688829972301979,1.0475141840196027,0.05938604465324881,0.04426273564845667
0.106,-0.0363,-0.325,0.012694593585693914,1.0475141840196027,0.05942323940716014,0.04426273564845667
0.107,-0.0199,-0.325,0.0126702516238613,1.0591916944096094,0.059266151618907366,0.04577665914246224
0.108,-0.005,-1.325,0.012999305465242618,1.034934396507523,0.06138965918637933,0.04263183700413317
0.109,0.0029,0.675,0.013026392961387485,1.0371548991632997,0.06156446493490373,0.04291971267512885
0.11,0.005,-1.325,0.013017779632099028,1.0349343965075235,0.06150887989797365,0.042631837004133234
0.111,0.0115,0.675,0.013019852524328041,1.0371548991633002,0.06152225704718542,0.0429197126751289
0.112,0.0096,-0.325,0.013088166032305079,1.0349343965075237,0.06196310967647198,0.04263183700413326
0.113,0.0114,-1.325,0.013093798402139966,1.034934396507524,0.061999457466599496,0.04263183700413329
0.114,-0.0067,-1.325,0.013070686520530539,1.0349343965075237,0.0618503078463121,0.04263183700413326
0.115,0.0002,-1.325,0.013214600711062431,1.032709119399238,0.06277903996923216,0.042343342352243275
0.116,0.0067,0.674999999999889,0.013198564250233765,1.0304790369077415,0.06267555068680292,0.04205422470946762
0.117,0.0009,-1.3249999999999444,0.013069760636621566,1.0304790369077415,0.06184433277098993,0.04205422470946762
0.11800000000000001,0.006400000000000019,-0.3250000000000555,0.013089962537125825,1.0055293158702,0.06197470319431647,0.038819633809001046
0.11900000000000001,0.007799999999999893,-1.324999999999889,0.013095869442229206,1.0055293158702001,0.062012822663260254,0.038819633809001074
0.12,0.0001,0.674999999999889,0.013170347538935447,1.017688697420992,0.062493457690350966,0.040396029186741456
0.121,-0.0064,-1.324999999999889,0.013269791514331922,1.0199467459835727,0.06313520687464085,0.040688772473223306
0.122,-0.0176,0.675,0.01326983487100354,1.012369717260706,0.06313548667146647,0.03970645334738295
0.123,-0.0009,0.6749999999999445,0.013289826687678235,1.0047355493912637,0.06326450134522933,0.038716726452802594
0.124,-0.0031,-0.325,0.013510904071949967,0.9970429298654133,0.0646911964311375,0.03771942162997003
0.125,0.0067,-0.325,0.013882633789847425,0.9970429298654134,0.06709010739870382,0.037719421629970044
0.126,0.0158,-1.325,0.013950308205462576,0.9993476290954268,0.0675268357258364,0.0380182129129065
0.127,-0.0056,0.675,0.01393800620332109,0.9939305022720337,0.06744744630271696,0.037315912911104664
0.128,0.0031,0.675,0.014722293231137778,0.9861536001712817,0.07250874396649006,0.03630768132682918
0.129,-0.0212,1.675,0.014639236372806001,0.983817992998063,0.071972746980533,0.03600488300302468
0.13,-0.0049,-1.325,0.014460813432244311,0.9712346593705842,0.07082131698080148,0.03437352462479935
0.131,0.0038,-0.325,0.014454607925818817,0.9712346593705813,0.07078127052579213,0.03437352462479898
0.132,0.0063,-0.325,0.01437368411118793,0.97913006479152,0.070259038869003,0.03539711949752863
0.133,0.0132,-1.325,0.01437286332945334,0.9846286224818762,0.07025374205734043,0.03610997655289029
0.134,0.0153,-1.325,0.014384814594182999,0.9869623113344295,0.07033086804069852,0.036412526177217984
0.135,0.0016,1.675,0.01436813954624599,0.9869623113344295,0.07022325771670548,0.036412526177217984
0.136,-0.0151,-1.325,0.014333849090919358,0.9846286224818757,0.07000196857729751,0.03610997655289022
0.137,-0.0086,-0.325,0.013871938882850087,0.9822893893484308,0.06702108916191034,0.035806708143751476
0.138,-0.0103,1.675,0.013556454573931898,0.9799445722297101,0.06498515086502203,0.03550271580235175
0.139,-0.0049,-0.325,0.01334586478224041,0.9799445722297098,0.06362613613839861,0.03550271580235171
0.14,0.0165,-0.325,0.013213138907891726,0.9720557825693503,0.06276960640637778,0.034479978625743674
0.14100000000000001,0.007699999999999778,1.675,0.013313522626647539,0.9479956137971531,0.06341742010620913,0.0313607131695433
0.14200000000000002,-0.0002999999999999417,1.675,0.013240117462663124,0.9479956137971531,0.0629437091154543,0.0313607131695433
0.14300000000000002,0.0017999999999998195,-0.325,0.013166643610518542,0.9504192567297256,0.06246955485429941,0.031674924834029776
0.14400000000000002,-0.00469999999999995,-1.325,0.013086866055498969,0.9632745420422608,0.06195472043970232,0.03334154021751485
0.145,-0.0029,-0.325,0.013070846340707614,0.9632745420422608,0.06185133922571806,0.03334154021751485
0.146,-0.0011,0.675,0.012869654252041453,0.9608833246355586,0.06055297139325446,0.03303153233994707
0.147,-0.016,0.675,0.012898226660940745,0.9536736990242286,0.0607373598394244,0.032096844959551556
0.148,-0.0022,0.675,0.01289683062923392,0.940687219232042,0.06072835072443753,0.030413220950221195
0.149,0.0068,0.675,0.01294223025457396,0.9406872192320421,0.06102133149489524,0.03041322095022121
0.15,-0.0045,-0.325,0.01286743555055445,0.9406872192320421,0.06053865328234034,0.03041322095022121
0.151,-0.0059,-1.325,0.012822672281639018,0.9877703603866771,0.06024977915800959,0.03651728518865535
0.152,-0.0208,0.675,0.012994473381384493,0.9822893893484302,0.06135847594111979,0.035806708143751406
0.153,-0.0026,-1.325,0.012992460306740889,0.9752380248300323,0.06134548481716987,0.03489253842326581
0.154,0.0195,-1.325,0.012814927443966399,0.9775941309451616,0.06019979882245839,0.03519799431950864
0.155,0.0047,0.675,0.012733885648868473,0.9775941309451616,0.05967680579356823,0.03519799431950864
0.156,0.0072,1.675,0.012725980737454231,0.9752380248300323,0.05962579244226416,0.03489253842326581
0.157,0.0292,-0.325,0.012226413394381202,0.9775941309451616,0.056401897443730746,0.03519799431950864
0.158,0.0086,0.675,0.012103330208945499,0.9775941309451616,0.05560759559147433,0.03519799431950864
0.159,-0.0048,-0.325,0.012094970016798741,0.9720557825693502,0.055553644143241314,0.03447997862574366
0.16,-0.0027,0.675,0.012227260869284213,0.9846286224818751,0.05640736651639749,0.036109976552890145
0.161,-0.0138,-0.325,0.012390633002795299,0.9846286224818751,0.05746166802635253,0.036109976552890145
0.162,-0.004,-0.325,0.012352111157093535,0.9846286224818752,0.05721307214150496,0.03610997655289016
0.163,-0.0022,-0.325,0.012316939628285943,0.9993476290954221,0.05698609710523444,0.03801821291290588
0.164,-0.0203,-0.325,0.012520574836977428,0.9939305022720288,0.05830023130541536,0.03731591291110403
0.165,-0.0036,-0.325,0.012815210781010574,0.9939305022720288,0.060201627302426675,0.03731591291110403
0.166,0.0029,-1.325,0.012816285133933122,0.9939305022720288,0.060208560503849234,0.03731591291110403
0.167,0.0087,-0.325,0.012800739633324707,0.9916132126805723,0.06010823957143424,0.03701548935867261
0.168,-0.004,-0.325,0.012963921723533786,0.9838179929980598,0.06116131466084891,0.03600488300302426
0.169,0.0141,1.675,0.012992334095848612,0.9838179929980596,0.061344670331055014,0.036004883003024235
0.17,0.0162,0.675,0.012970327922065842,0.9759605131001847,0.061202656257119126,0.03498620496089212
0.171,0.0006,-0.325,0.01297821389406208,0.9736004536496141,0.06125354738527185,0.03468023653696108
0.17200000000000001,-0.009200000000000463,-0.325,0.012979983575970947,0.9680392569079125,0.06126496780482909,0.03395925868116278
0.17300000000000001,-0.025900000000000183,-0.325,0.01286858813992658,0.9680392569079125,0.06054609137284746,0.03395925868116278
0.17400000000000002,-0.032499999999999495,-1.325,0.012998815080171897,0.9736004536496161,0.06138649454802021,0.03468023653696134
0.17500000000000002,-0.014299999999999386,0.675,0.013028232879282235,0.9993476290954275,0.061576338613559566,0.038018212912906586
0.176,0.0078,0.675,0.013086768608968262,0.9993476290954274,0.061954091580776034,0.03801821291290657
0.177,0.0524,-0.325,0.013026706867387484,0.9939305022720343,0.061566490687782575,0.03731591291110473
0.178,0.0336,-0.325,0.013018404608687306,0.9916132126805769,0.06151291310575852,0.0370154893586732
0.179,0.0042,0.6750000000000556,0.013067808107921271,1.014639603115592,0.061831732372667945,0.040000731272184765
0.18,-0.0009,1.6749999999998335,0.012981769920821527,1.0001456717111161,0.06127649575658434,0.03812167464616632
0.181,-0.0055,-1.325,0.01327081555663006,1.0001456717111161,0.0631418154027783,0.03812167464616632
0.182,-0.0011,-1.324999999999889,0.013874887294955316,1.014639603115592,0.06704011636849512,0.040000731272184765
0.183,-0.013,0.6749999999999445,0.013953363300571028,1.0169044222514763,0.06754655139776082,0.04029435232538656
0.184,0.0052,-0.325,0.014232813026028104,1.0236688152653368,0.06934994504375201,0.04117131780555727
0.185,0.002,-0.325,0.014631526350129542,1.0303888017146088,0.0719229913191795,0.04204252622457596
0.186,-0.0068,-0.325,0.015250145594684336,1.0303888017146088,0.07591517278614375,0.04204252622457596
0.187,-0.0043,-0.3249999999999445,0.01564218001712242,1.0251357189499122,0.07844511760995165,0.0413614936116454
0.188,0.0105,0.6749999999999445,0.015797830928794956,1.049619494244875,0.07944959118616958,0.04453567726920981
0.189,0.0126,-0.325,0.015800826014061926,1.0430234145726252,0.07946891959213176,0.04368053266641009
0.19,0.0191,0.675,0.015793819260768848,1.0430234145726252,0.0794237023912664,0.04368053266641009
0.191,-0.003,-0.325,0.015709000044265172,1.0452267328818095,0.07887633224856723,0.04396618048359391
0.192,-0.0117,0.675,0.015821730125317197,1.0311628210727415,0.07960382164419565,0.042142873477710924
0.193,0.0017,1.675,0.01621016377786666,1.0191642084466321,0.08211052935253602,0.040587320886151336
0.194,-0.0051,-0.325,0.016356072295848168,1.0266910947284018,0.08305213161674815,0.041563139326735304
0.195,-0.0029,-0.325,0.01635757768123636,1.0214189951056767,0.08306184643196006,0.04087964128519968
0.196,-0.0087,-1.325,0.016471189928103914,1.0236688152653346,0.08379502877369473,0.04117131780555699
0.197,0.0003,0.675,0.016499526356632262,1.023668815265334,0.0839778943502292,0.0411713178055569
0.198,-0.0109,-1.325,0.016526171701183003,1.021418995105676,0.0841498467290675,0.04087964128519959
0.199,-0.0033,-1.325,0.016532687319283635,1.0333914279433172,0.08419189445075756,0.042431799814539886
0.2,-0.0124,-3.325,0.016521362672076805,1.0311628210727368,0.08411881226474903,0.04214287347771032
0.201,-0.0211,0.675,0.01651556116863906,1.0386027555223614,0.08408137299219395,0.04310741910267393
0.202,-0.0045,-1.325,0.016594225954234727,1.0386027555223614,0.0845890262893101,0.04310741910267393
0.203,-0.0023,0.675,0.016531632522906712,1.0437880647959892,0.0841850874550418,0.04377966526395743
0.20400000000000001,0.004300000000000161,-0.325,0.016533936791763616,1.0363853549691828,0.08419995776421244,0.042819945601819606
0.20500000000000002,0.01009999999999995,-0.325,0.016419429704250962,1.0430234145726205,0.08346100068095348,0.043680532666409484
0.20600000000000002,0.008299999999999497,0.675,0.016428525148639773,1.0547506450013535,0.08351969698702935,0.04520090208358163
0.20700000000000002,-0.00979999999999967,-0.325,0.016414571486206585,1.0408154320352314,0.08342964878201087,0.043394280158292005
0.20800000000000002,0.0020999999999994365,0.675,0.016153279834675,1.0408154320352314,0.0817434359816516,0.043394280158292005
0.209,-0.0182,1.675,0.01613715505572599,1.0386027555223616,0.0816393767493439,0.04310741910267396
0.21,-0.0207,-1.325,0.016140605450178806,1.0386027555223616,0.08166164343585504,0.04310741910267396
0.211,0.0061,0.675,0.016153673244044105,1.036385354969183,0.08174597479952074,0.042819945601819634
0.212,0.0024,1.675,0.016113365672526088,1.036385354969183,0.08148585495777806,0.042819945601819634
0.213,0.0252,0.675,0.016112104234600397,1.0437880647959892,0.08147771442682467,0.04377966526395743
0.214,0.0281,-1.325,0.016120278536402004,1.0437880647959892,0.08153046625510191,0.04377966526395743
0.215,-0.0017,-1.325,0.016018567490456572,1.0511386418672433,0.08087408681624185,0.044732626207772436
0.216,0.0023,-0.325,0.016017826007208406,1.0511386418672433,0.08086930174738496,0.044732626207772436
0.217,0.0205,-0.325,0.01601619469876274,1.057684113418861,0.08085877430356388,0.04558120975258516
0.218,0.0107,-0.325,0.015994482390306184,1.057684113418861,0.08071865665253986,0.04558120975258516
0.219,0.002,-0.325,0.01599460910816819,1.059856954292741,0.08071947441032008,0.045862906341827124
0.22,0.0045,-0.325,0.015933598505514516,1.045989772413956,0.0803257501617678,0.04406510426409084
0.221,0.0067,0.675,0.01585425888908772,1.045989772413956,0.07981374192878266,0.04406510426409084
0.222,-0.0046,0.675,0.015857313753196284,1.0533249850879625,0.07983345610997836,0.04501607330028277
0.223,-0.0184,-1.325,0.01588714799241622,1.0606094683843403,0.08002598761937316,0.04596046555820063
0.224,-0.0093,-2.325,0.01569009555762742,1.0606094683843403,0.07875433452240206,0.04596046555820063
0.225,-0.0141,-0.325,0.015371044620475754,1.0555067995965726,0.07669537943892236,0.04529893327075848
0.226,-0.0097,0.675,0.015345360324557506,1.0533249850879625,0.07652962906652545,0.04501607330028277
0.227,-0.0031,-0.325,0.01536114940051755,1.0584381723286769,0.07663152188182826,0.045678969245945264
0.228,-0.0118,-2.325,0.014442691300474491,1.0656877051268006,0.07070436808334934,0.046618830368486915
0.229,-0.015,-0.325,0.014046635432508631,1.0656877051268008,0.06814847136676133,0.04661883036848694
0.23,-0.028,-1.325,0.014057348080637033,1.0635267768487933,0.06821760409371214,0.04633867818024858
0.231,-0.0407,1.675,0.014058837285708819,1.0842925273460258,0.06822721449128774,0.049030840850069195
0.232,-0.0161,0.675,0.014048416210647953,1.0906390439602651,0.06815996339444581,0.04985363100708898
0.233,0.031,1.675,0.014054973670207556,1.0835564609168307,0.06820228113472733,0.048935413980549056
0.234,0.0372,1.675,0.013998908673835617,1.08143123878061,0.06784047273411323,0.04865989089261769
0.23500000000000001,0.04299999999999986,1.675,0.014103530732812097,1.0885276498217773,0.06851563802933797,0.049579900641231384
0.23600000000000002,0.03789999999999961,0.675,0.014126044055682003,1.1018596117448938,0.06866092492610386,0.05130831446425538
0.23700000000000002,0.023699999999999638,-2.325,0.014110002156450242,1.1039455076128761,0.06855740054762442,0.05157873912286155
0.23800000000000002,0.010699999999999666,-1.325,0.014109268813581754,1.1039455076128764,0.06855266801168365,0.05157873912286158
0.23900000000000002,-0.0012999999999998972,-0.325,0.014085308016043529,1.1039455076128768,0.06839804001925089,0.05157873912286164
0.24,0.0024,0.675,0.014040905525699015,1.1060274696239218,0.06811149413403841,0.051848653779058014
0.241,-0.0204,-0.3249999999999445,0.01391823328887775,1.117093480129008,0.0673198442869643,0.05328329975487314
0.242,-0.0353,0.674999999999889,0.013920172862601115,1.1239647519218274,0.06733236108197252,0.05417412146715776
0.243,-0.0219,-1.324999999999889,0.013889159202001167,1.1443310378603588,0.06713221832508344,0.05681449580536981
0.244,-0.0052,0.675,0.013895619854363246,1.1314996087681515,0.06717391133229494,0.05515097324657307
0.245,0.0195,0.675,0.014007391336176499,1.138283921022535,0.06789521452833619,0.056030521144160114
0.246,0.0097,0.6749999999999445,0.014209865236278449,1.138283921022535,0.06920185436963744,0.056030521144160114
0.247,0.0185,-0.324999999999889,0.014202521914837982,1.1443310378603588,0.06915446516857615,0.05681449580536981
0.248,0.0051,1.674999999999889,0.014387109600703989,1.1443310378603588,0.07034567857654962,0.05681449580536981
0.249,0.003,-0.3250000000000555,0.014448391968004924,1.1503463667794562,0.0707411566240626,0.05759434934183817
0.25,0.0009,-1.325,0.014482253700054935,1.1563304038702884,0.0709596790517421,0.058370146068901195
0.251,-0.0172,-1.325,0.015709867003986536,1.122544164759249,0.07888192706405786,0.05398995033744926
0.252,-0.015,-1.325,0.015798994993943057,1.1204928924589377,0.07945710333415315,0.05372401442950936
0.253,-0.0038,-0.325,0.01581303502025753,1.1266355051227197,0.07954770887761418,0.054520369587046535
0.254,-0.002,1.675,0.01583976099319485,1.1266355051227197,0.07972018158160149,0.054520369587046535
0.255,0.0072,1.675,0.015925123653979033,1.12663550512272,0.0802710587735948,0.05452036958704656
0.256,0.0025,-0.325,0.015895413316246373,1.1334489320737318,0.08007932684686024,0.05540369204117642
0.257,-0.0018,-0.325,0.015874377095734055,1.131417430409767,0.07994357224432651,0.05514031928495781
0.258,0.0047,-0.325,0.01585405867000432,1.1442497810369578,0.07981244984011726,0.056803961315578196
0.259,0.0058,-0.325,0.01585386384599767,1.1549496271211004,0.07981119256790092,0.05819113613521179
0.26,0.007,-0.325,0.01575817360166303,1.1442497810369578,0.07919366761476604,0.056803961315578196
0.261,0.0077,-0.325,0.015623919392257709,1.139521707108387,0.07832727496473528,0.05619099314318553
0.262,0.0034,-1.325,0.015611907837094699,1.1375010510707975,0.07824975990465062,0.055929026461380746
0.263,-0.0056,-0.325,0.01569936979960599,1.1245916955140134,0.07881418467622912,0.05425540117506869
0.264,-0.0092,-1.325,0.015495796225656435,1.1245916955140134,0.07750044822810104,0.05425540117506869
0.265,0.0032,-0.325,0.015291037484805576,1.1177242778982328,0.07617906345447988,0.05336507913514353
0.266,0.0018,1.675,0.015290122238869958,1.1128835163534467,0.0761731570299804,0.05273750164758231
0.267,-0.0026,-0.325,0.015295807939402802,1.1259271204386625,0.0762098489830577,0.054428531499973995
0.268,0.004,0.675,0.015183723614931836,1.1327448083108813,0.07548652689628327,0.05531240635855531
0.269,-0.0022,-0.325,0.01514989817075629,1.134773933671063,0.0752682386478363,0.05557547104036372
0.27,0.0033,0.675,0.015156549211822575,1.1367994371582621,0.07531116030459781,0.05583806616672604
0.271,-0.0032,-1.325,0.015153663802588244,1.1435523077407952,0.07529253967911405,0.05671353782853032
0.272,-0.0134,-1.325,0.01514936446120714,1.141538786356055,0.07526479442040625,0.05645249611430934
0.273,-0.0069,-0.325,0.015149364461207142,1.139521707108387,0.07526479442040626,0.05619099314318553
0.274,-0.008,0.675,0.015109926131310599,1.1327448083108813,0.07501028412010949,0.05531240635855531
0.275,-0.0112,-0.325,0.015143303411724858,1.1100959239288026,0.07522568020010595,0.052376105979975614
0.276,-0.0105,-1.325,0.015086463032594316,1.1231719013096026,0.07485886796440921,0.05407133284792339
0.277,0.0033,-1.325,0.015058154348548985,1.134070632577826,0.0746761814334054,0.05548429201222752
0.278,0.0015,-0.325,0.015243939558019505,1.134070632577826,0.07587512290930154,0.05548429201222752
0.279,0.0069,-0.325,0.015209556572923902,1.1135166990340108,0.07565323664067057,0.05281959021818412
0.28,0.0022,2.675,0.01514087794119732,1.1135166990340108,0.07521002773120213,0.05281959021818412
0.281,0.0008,1.675,0.014934083075962102,1.1086575659759357,0.07387550308502894,0.05218963096733092
0.28200000000000003,0.0043999999999999395,-0.325,0.014377102575675926,1.095408343508301,0.07028109949950324,0.05047194384900268
0.28300000000000003,0.0033000000000008105,-0.325,0.01444596459114475,1.095408343508301,0.07072549185288095,0.05047194384900268
0.28400000000000003,0.01789999999999946,-1.325,0.014144792951954826,1.0841210076571512,0.0687819185694236,0.04900860428782269
0.28500000000000003,0.008199999999999501,1.675,0.013646196043363545,1.0727149106167555,0.06556428614772891,0.04752986800691643
0.28600000000000003,-0.0007999999999997335,0.675,0.012960706510239048,1.0727149106167555,0.06114056568635358,0.04752986800691643
0.28700000000000003,0.003999999999999412,-0.325,0.012411106057740652,1.0841210076571477,0.057593788310751064,0.04900860428782222
0.28800000000000003,-0.006599999999999961,0.675,0.012231118830002243,1.0604341180910932,0.05643226338052573,0.04593773237965816
0.289,-0.0059,0.675,0.012454694656369765,1.0553306014608508,0.05787508184817297,0.04527609017421134
0.29,-0.0048,1.675,0.012477364649695944,1.0575082780592133,0.058021379798017886,0.0455584136879141
0.291,-0.0038,-1.325,0.012475218122893065,1.0553306014608501,0.05800752745734755,0.04527609017421125
0.292,-0.0071,-2.325,0.012352205613998505,1.062601335683181,0.057213681707257664,0.046218699942066975
0.293,-0.0046,-0.325,0.01208414486903228,1.0841210076571444,0.05548378541402975,0.04900860428782179
0.294,-0.0184,-1.325,0.0122518102456879,1.0769955612849977,0.0565657928284901,0.04808483027197496
0.295,-0.0241,-0.325,0.012433038369545162,1.0769955612849986,0.05773532572570274,0.048084830271975076
0.296,-0.0074,1.675,0.012304633634750149,1.0883567975676138,0.05690668192415397,0.04955775060813843
0.297,-0.023,0.675,0.012327908431763332,1.0996006541448,0.05705688289850332,0.051015453326176574
0.298,-0.0172,1.675,0.012356238843577371,1.1016908270380212,0.05723970964692895,0.051286432477031296
0.299,0.0104,1.675,0.012761787514415411,1.1217503100796418,0.05985686697257404,0.05388703154653026
0.3,0.0621,1.675,0.012931917561167792,1.1818325081414645,0.06095477982542654,0.06167635034646308
0.301,0.0269,-0.325,0.013075190823241883,1.1772553830278418,0.06187937579717866,0.06108295183829765
0.302,0.008,1.675,0.013037562044431038,1.1706969362956725,0.06163654320715591,0.060232686134358546
0.303,-0.0095,0.675,0.012958005109117673,1.1660761022421136,0.06112313253407693,0.0596336210081506
0.304,0.017,-0.325,0.012955587235593665,1.1680473260977924,0.06110752909147961,0.059889179085804746
0.305,0.0028,-1.325,0.01295958057043086,1.1574685638150868,0.061133299575454624,0.05851770209949492
0.306,-0.0016,-0.325,0.012941008219163436,1.1467922202544438,0.061013445243116284,0.05713357424974669
0.307,-0.0056,1.675,0.01293858489137831,1.1467922202544438,0.06099780660213103,0.05713357424974669
0.308,-0.002,1.675,0.012964127299894572,1.1594544217019498,0.06116264132202992,0.058775157396922954
0.309,-0.0053,0.675,0.012991964060186323,1.1594544217019498,0.06134228235246219,0.058775157396922954
0.31,-0.0025,0.675,0.012979100353183408,1.1811572276526596,0.06125926803768695,0.06158880403197467
0.311,0.0,-0.325,0.012971631055682718,1.1876579123013804,0.0612110658659699,0.06243158120691445
0.312,0.0167,-0.325,0.013137106300658846,1.189593374408296,0.062278939541174576,0.0626825029751301
0.313,0.0011,0.675,0.013171995705018685,1.183103324405844,0.06250409392281528,0.06184110452222087
0.314,-0.0127,-0.325,0.013165323147590613,1.1850462252605183,0.062461033412919933,0.06209299068221368
0.315,-0.0001,0.675,0.013167447800196025,1.1804815608777162,0.06247474459120887,0.06150120763766264
0.316,-0.0048,1.675,0.013163582596916546,1.1804815608777162,0.0624498009881215,0.06150120763766264
0.317,0.0089,-1.325,0.013162716339225576,1.1700152288702255,0.06244421070309571,0.06014430660370914
0.318,0.0035,0.675,0.013162620772098668,1.1765774755638503,0.06244359397266539,0.06099506495126248
0.319,0.0049,0.675,0.013213600054562001,1.2321273454299813,0.06277258235839808,0.0681967929112956
0.32,0.0034,-1.325,0.013212690913926805,1.2439212012520802,0.06276671533368677,0.06972579993570979
0.321,-0.0057,-0.325,0.013212443018499566,1.2482538985944855,0.06276511557173452,0.07028750975912357
0.322,-0.0046,-0.325,0.013209755233937274,1.253770726531953,0.06274777029220882,0.07100273544918725
0.323,-0.0148,-0.325,0.013144801419052781,1.2494571598404434,0.06232859901961592,0.07044350580698329
0.324,-0.0137,-0.325,0.013127071490854925,1.2610889555636562,0.062214181158572766,0.07195150265174871
0.325,0.0051,1.675,0.013109963322585514,1.2653628705934703,0.062103775747004944,0.07250559167919726
0.326,-0.0029,1.675,0.013066355315808366,1.2714330947763253,0.0618223569615414,0.0732925620776282
0.327,0.0239,-0.325,0.013060930132575387,1.2714330947763253,0.061787346224083384,0.0732925620776282
0.328,0.0058,0.675,0.013088193644068243,1.2653628705934703,0.06196328786551175,0.07250559167919726
0.329,-0.004,-0.325,0.013105348396585347,1.2653628705934703,0.062073993902661356,0.07250559167919726
0.33,-0.0127,0.675,0.013088380253021064,1.2671796534274808,0.06196449212291173,0.07274112734767917
0.331,-0.0047,-0.325,0.013087015506685503,1.2439212012520802,0.06195568490413234,0.06972579993570979
0.332,-0.0214,0.675,0.013127027482149103,1.232127345429981,0.062213897153926424,0.06819679291129557
0.333,-0.0101,0.675,0.013136534023933744,1.232127345429981,0.06227524642532661,0.06819679291129557
0.334,-0.0003,0.675,0.01314457933423609,1.2339930612205139,0.06232716582319163,0.06843867246216645
0.335,0.0052,1.675,0.013050980968737644,1.2339930612205139,0.06172314054694928,0.06843867246216645
0.336,0.0066,1.674999999999778,0.01315611733158963,1.2239843934284178,0.062401624837530624,0.06714110501772913
0.337,0.0109,-0.324999999999889,0.013260521852447651,1.2221033980692013,0.06307538627787612,0.06689724455678103
0.338,0.0258,0.675,0.013282445957468789,1.2221033980692015,0.06321687073138378,0.06689724455678106
0.339,0.0076,0.674999999999889,0.013266560274724457,1.2221033980692015,0.06311435447635258,0.06689724455678106
0.34,0.0007,-0.32500000000011103,0.01325604743611292,1.2221033980692015,0.06304651119498106,0.06689724455678106
0.341,-0.0105,-1.325000000000111,0.013255000778501447,1.2221033980692013,0.06303975672176419,0.06689724455678103
0.342,-0.0243,-2.324999999999778,0.013266682553449705,1.2277377386577388,0.06311514358672221,0.06762770510062399
0.343,-0.0298,-0.324999999999889,0.013272700094315505,1.2132357704537322,0.06315397702963982,0.06574760654878233
0.34400000000000003,-0.021799999999999233,0.6750000000001111,0.013265691035730874,1.2132357704537322,0.06310874495186544,0.06574760654878233
0.34500000000000003,-0.007999999999998873,1.675,0.013174130569565066,1.2068728659193992,0.06251787100258052,0.0649226917901635
0.34600000000000003,0.012300000000000444,1.674999999999889,0.013165085248993982,1.2087775619511423,0.06245949816425632,0.06516962490990301
0.34700000000000003,0.020300000000000665,0.6750000000002221,0.01322496961746699,1.2087775619511423,0.0628459544022139,0.06516962490990301
0.34800000000000003,0.03229999999999938,2.675000000000111,0.013090347093556979,1.2068728659193995,0.061977184880864324,0.06492269179016352
0.34900000000000003,0.0210999999999999,3.675,0.013006822951764275,1.1947133358778659,0.061438172339880574,0.06334627716143428
0.35000000000000003,0.019299999999999706,0.675,0.013016101592530237,1.1824287696755065,0.061498050880728676,0.06175365229823274
0.35100000000000003,0.01399999999999899,-0.325,0.011528409740331638,1.1700152288702255,0.051897418677352536,0.06014430660370914
0.352,-0.0042,0.675,0.01125386306831612,1.1765774755638503,0.050125666269898964,0.06099506495126248
0.353,0.0028,0.675,0.011225225121635438,1.1641015404319834,0.04994085488390206,0.05937763018348986
0.354,-0.0038,0.675,0.01121685557263773,1.1687301813797872,0.04988684305240861,0.05997770742959475
0.355,0.002,0.675,0.01119996779243098,1.1706969362956723,0.049777859887476406,0.06023268613435852
0.356,0.0003,-0.325,0.011213416886192578,1.1641015404319834,0.04986465192205198,0.05937763018348986
0.357,0.0083,1.675,0.011248974087604472,1.1641015404319834,0.05009411584795335,0.05937763018348986
0.358,0.0097,-0.325,0.011277165890111705,1.1581576564026106,0.050276048098655775,0.05860703907483943
0.359,0.0007,-2.325,0.01130052141055321,1.1474877242480392,0.05042677001149407,0.057223742427801136
0.36,-0.0055,-1.325,0.011375001689429086,1.1581576564026106,0.05090741912094198,0.05860703907483943
0.361,-0.0222,0.675,0.0113801563396791,1.1687301813797872,0.050940684007829876,0.05997770742959475
0.362,-0.0102,-0.325,0.011503863301214537,1.190263868770259,0.05173901132066938,0.06276942879521266
0.363,-0.0037,0.675,0.011383258396120973,1.1967150861904854,0.05096070273881138,0.0636057928224095
0.364,-0.0095,0.675,0.011409222677061846,1.1967150861904856,0.05112825995932721,0.06360579282240952
0.365,-0.0005,-0.325,0.01141604388900052,1.1986359235814452,0.05117227979240468,0.06385481857851819
0.366,0.001,0.675,0.011476603578640375,1.1986359235814452,0.05156309413055113,0.06385481857851819
0.367,0.0025,-1.325,0.011630867604394553,1.1863919747418465,0.05255861761297744,0.062267459527779616
0.368,-0.0123,3.675,0.011596864963075432,1.1798843153105736,0.05233918584505739,0.06142377811154022
0.369,0.0015,1.675,0.012250088521861473,1.1779329003520778,0.05655468190038433,0.06117078814590945
0.37,0.0032,-1.325,0.013907391131394293,1.188329498714856,0.06724987578768407,0.06251864860532892
0.371,0.0017,1.675,0.01428083763938462,1.1818325081414645,0.06965986584412734,0.06167635034646308
0.372,-0.0028,0.675,0.014271293795654288,1.188329498714856,0.06959827584931357,0.06251864860532892
0.373,0.0008,1.675,0.014277538266361309,1.188329498714856,0.06963857375541171,0.06251864860532892
0.374,0.0043,-1.325,0.014251284773790052,1.1883294987148563,0.06946915014402458,0.06251864860532895
0.375,-0.0033,-1.325,0.014464567739936797,1.1883294987148563,0.07084554493316983,0.06251864860532895
0.376,-0.0098,-1.325,0.014587415961927995,1.1779329003520778,0.07163833047839761,0.06117078814590945
0.377,-0.0091,-0.325,0.014597648178413287,1.1654714746246568,0.07170436280018215,0.059555234440755576
0.378,-0.0069,-0.325,0.014405731340272569,1.1654714746246568,0.07046585163007599,0.059555234440755576
0.379,-0.0019,0.675,0.01439616349388032,1.1654714746246568,0.07040410673710328,0.059555234440755576
0.38,-0.0012,-1.325,0.014397478237916482,1.1720591616380671,0.07041259127233422,0.06040929098257567
0.381,-0.0103,-0.325,0.014355084681601769,1.176656499923254,0.0701390097901414,0.06100531001466251
0.382,-0.0067,-0.325,0.014348282048651378,1.176656499923254,0.07009510985422741,0.06100531001466251
0.383,-0.0057,0.675,0.01418818493567261,1.176656499923254,0.06906194327725115,0.06100531001466251
0.384,0.0087,-1.325,0.014156884731823555,1.176656499923254,0.06885995134955364,0.06100531001466251
0.385,0.0185,0.675,0.014159292169323073,1.176656499923254,0.06887548744457986,0.06100531001466251
0.386,0.0166,-0.325,0.014182683276665798,1.164181411655227,0.06902643901300803,0.05938798503802005
0.387,0.0086,-0.325,0.01421041999238337,1.1515711874111292,0.06920543441836734,0.057753140442706664
0.388,0.001,0.675,0.01418454679549693,1.158237937511734,0.0690384649973376,0.05861744706876687
0.389,-0.0026,0.675,0.013947479830724805,1.1562499903167103,0.06750858316530074,0.05835972090429568
0.39,-0.0045,1.675,0.013926927110725159,1.1609099364461086,0.0673759487724969,0.05896385669098989
0.391,0.0067,1.675,0.01393314652879106,1.1675233619740824,0.06741608500452742,0.05982125008635128
0.392,0.0081,-1.325,0.01389557940935809,1.1628899175430782,0.06717365032554251,0.059220550095686365
0.393,0.0015,-0.325,0.013682700020508769,1.1535671976350272,0.06579985997171257,0.058011911933487835
0.394,-0.0098,-0.325,0.013425661511813671,1.1555597601351362,0.0641410942935656,0.0582702364462856
0.395,-0.0236,0.675,0.013263967227111234,1.1535671976350268,0.06309762056980896,0.05801191193348777
0.396,-0.0146,1.675,0.013270698567863925,1.1408396556446672,0.06314106043049426,0.05636185775270644
0.397,-0.0132,-0.325,0.013235031438412459,1.1279685103420931,0.06291088709781945,0.0546931862107824
0.398,-0.0088,-0.325,0.01311450744580565,1.1327448083108884,0.06213310067451522,0.05531240635855623
0.399,0.0115,-0.325,0.012762474739442444,1.0996852101411274,0.059861301892827005,0.05102641553516837
0.4,0.0144,-0.325,0.012646624155350556,1.0422582033656154,0.059113674723417706,0.04358132734049063
0.401,-0.01,-1.325,0.012500647582793612,1.0400485963159978,0.05817163327756486,0.04329486422350645
0.402,-0.0002,-0.325,0.012473240232707029,1.074943869255975,0.05799476339186804,0.04781883994857009
0.403,0.0084,-1.325,0.012600941503786354,1.086326563163697,0.05881886747882957,0.04929454214505211
0.404,-0.0159,0.675,0.012613891752911591,1.086326563163697,0.05890244028230346,0.04929454214505211
0.405,-0.0062,-0.325,0.012647637076643105,1.086326563163697,0.05912021148354472,0.04929454214505211
0.406,-0.0091,-0.325,0.012646027395408597,1.0842067708933598,0.05910982360820995,0.04901972300867
0.40700000000000003,0.009699999999999879,-1.325,0.012649722768107604,1.086326563163697,0.05913367123101244,0.04929454214505211
0.40800000000000003,0.0075000000000003605,0.675,0.012665277343081217,1.074943869255975,0.0592340507237016,0.04781883994857009
0.40900000000000003,0.013999999999999456,1.675,0.012632802881604413,1.074943869255975,0.0590244808721354,0.04781883994857009
0.41000000000000003,0.004200000000000699,1.675,0.012689222733189268,1.0583503209405898,0.05938857928622213,0.045667579807960275
0.41100000000000003,0.016799999999999173,-2.325,0.012718171727445108,1.051050180352533,0.05957539797861278,0.044721157670304906
0.41200000000000003,0.0018999999999994616,-1.325,0.012669309854319806,1.051050180352532,0.05926007402765427,0.04472115767030479
0.41300000000000003,-0.007800000000000305,0.675,0.012676855136664245,1.0510501803525318,0.05930876655800088,0.04472115767030476
0.41400000000000003,-0.013299999999999916,0.675,0.012702922520392306,1.0510501803525318,0.05947698913938259,0.04472115767030476
0.41500000000000004,-0.011800000000000426,0.675,0.013096021403154605,1.0510501803525325,0.06201380332397429,0.044721157670304844
0.41600000000000004,-0.019499999999998872,-0.325,0.013136576758707514,1.0648514643776221,0.06227552220881272,0.04651041646222232
0.417,0.0008,-0.325,0.013144139813046608,1.0699095670284848,0.06232432942849096,0.04716617100085978
0.418,0.0396,-0.325,0.013171987484671499,1.0699095670284822,0.0625040408738389,0.04716617100085943
0.419,0.066,1.675,0.013280560104598884,1.0054368415106658,0.06320470061714482,0.03880764502878882
0.42,0.0326,-0.325,0.013315248087094647,0.9908082976534145,0.06342855514812636,0.03691113665594796
0.421,0.0022,-1.325,0.01331742606436416,0.983006695034627,0.06344261045042636,0.035899702788538566
0.422,0.0062,-0.325,0.013317017917460313,0.9680392569079079,0.06343997652573087,0.03395925868116219
0.423,-0.012,-0.325,0.013314127270317336,0.9736004536496081,0.06342132209806264,0.034680236536960306
0.424,-0.0283,-0.325,0.013321224008528072,0.9608833246355546,0.06346712000527321,0.03303153233994655
0.425,-0.0196,0.675,0.013314455889749072,0.9608833246355517,0.06342344280222212,0.03303153233994618
0.426,-0.0062,-0.325,0.013351579959305183,0.9552480950678488,0.06366301831456632,0.03230095654495813
0.427,-0.004,-0.325,0.0133300604471584,0.9552480950678488,0.06352414485027194,0.03230095654495813
0.428,0.0025,0.675,0.013335008692754365,0.9632745420422524,0.06355607773069245,0.03334154021751375
0.429,0.0044,-1.325,0.013318038986078796,0.978314879225905,0.0634465658636008,0.03529143527730178
0.43,0.0062,-1.325,0.013319821910823525,0.9759605131001735,0.0634580717441332,0.03498620496089067
0.431,0.0015,-0.325,0.013319501434494797,0.9759605131001735,0.06345600359046452,0.03498620496089067
0.432,0.0001,0.675,0.013424044426083033,0.9759605131001735,0.0641306586342466,0.03498620496089067
0.433,-0.0036,0.675,0.013421885305953422,0.9759605131001734,0.06411672502412656,0.03498620496089066
0.434,0.0026,0.675,0.013415924125574541,0.9759605131001734,0.06407825529652064,0.03498620496089066
0.435,-0.0097,-0.325,0.013530603946556485,0.9704128413715679,0.06481832709349226,0.03426698054691336
0.436,-0.0111,-0.325,0.013405469125946479,0.9704128413715679,0.06401078527175233,0.03426698054691336
0.437,-0.0068,-1.325,0.013302044728853078,0.9704128413715679,0.06334334893681358,0.03426698054691336
0.438,-0.0002,-0.325,0.013337310421421035,0.9853442252669501,0.063570931647065,0.03620275042613182
0.439,0.0009,-1.325,0.013663059453448773,0.9830066950346182,0.06567311204314787,0.03589970278853743
0.44,0.0042,-1.325,0.013692762616710555,0.9830066950346182,0.06586479767033723,0.03589970278853743
0.441,-0.0023,0.675,0.013737738090298346,0.9680392569078987,0.06615504123082384,0.033959258681160995
0.442,-0.0015,1.675,0.013724384225994441,0.9680392569078987,0.06606886374757277,0.033959258681160995
0.443,-0.0138,0.675,0.013709894320772287,0.9624459270436355,0.0659753549671798,0.03323411494688715
0.444,0.0065,-0.325,0.013712166556196313,0.9774990138363155,0.06599001855262143,0.03518566292172311
0.445,0.009,-0.325,0.013680303647420422,0.9798496832856621,0.06578439527947184,0.035490413984848035
0.446,-0.0076,-0.325,0.013478012936655666,0.9923237786222072,0.06447893762751133,0.03710761023351267
0.447,-0.0098,-1.325,0.013470115922389425,0.9798496832856621,0.06442797523945835,0.035490413984848035
0.448,-0.0116,-0.325,0.013462074274733666,0.9798496832856621,0.06437607947802228,0.035490413984848035
0.449,0.0123,-1.325,0.01350036638349878,0.9821947269350694,0.06462319278445212,0.03579443569467622
0.45,0.0025,-0.325,0.01346221670496651,0.9845341849845024,0.06437699863361096,0.03609773326290687
0.451,0.0113,2.675,0.013409040901258497,0.9845341849845024,0.06403383527436753,0.03609773326290687
0.452,-0.0184,1.675,0.01345547637203239,1.013761254210907,0.0643335007430141,0.03988685828056878
0.453,-0.0064,0.675,0.013460481824697475,1.013761254210907,0.06436580280205802,0.03988685828056878
0.454,-0.01,0.675,0.013435395489408202,1.0061376448196908,0.06420391129335147,0.038898500233260976
0.455,-0.0002,-0.325,0.013341282114756008,1.0061376448196908,0.0635965624703281,0.038898500233260976
0.456,-0.0031,0.675,0.013327858419310754,1.0084215587279741,0.06350993434059173,0.039194596816227424
0.457,0.0104,0.675,0.013299823391562472,1.016028031268485,0.06332901381607253,0.040180733167297825
0.458,0.0035,-0.325,0.013264474834258458,1.0084215587279741,0.0631008963486721,0.039194596816227424
0.459,-0.012,-1.325,0.013365886470525366,1.0061376448196908,0.06375534358484017,0.038898500233260976
0.46,-0.0102,-0.324999999999889,0.013330221667521538,0.9915194404323234,0.0635251852656025,0.037003332314493806
0.461,-0.0192,0.674999999999889,0.013429959730525217,0.9915194404323234,0.06416883230726664,0.037003332314493806
0.462,-0.0111,-0.324999999999889,0.01345998989158705,0.9735049463352874,0.06436262817361942,0.03466785455123129
0.463,0.0089,0.675,0.013502884438873349,0.9735049463352875,0.06463944273801828,0.0346678545512313
0.464,0.0332,0.6750000000001111,0.013692903314745363,0.9735049463352875,0.06586570564740381,0.0346678545512313
0.465,0.0103,1.674999999999667,0.01363434879536926,0.9860593087250452,0.06548783142328633,0.03629545697155365
0.466,-0.0046,-1.325,0.013583477051088295,0.9837234776802223,0.06515953702168431,0.035992629624055736
0.467,0.0089,-1.324999999999778,0.013536553213895323,0.9984558278198175,0.06485671994179304,0.03790259589711822
0.468,0.0209,0.674999999999889,0.013536652498126385,0.9984558278198176,0.06485736066008736,0.03790259589711824
0.46900000000000003,0.009699999999999685,-0.325,0.012962748261024995,0.9984558278198175,0.061153741868180386,0.03790259589711822
0.47000000000000003,0.0039999999999997,-0.325,0.011155247690526412,0.9984558278198175,0.04948926433601946,0.03790259589711822
0.47100000000000003,-0.0013999999999999224,-0.32500000000011103,0.010669511169378077,0.9984558278198173,0.04635462480673738,0.0379025958971182
0.47200000000000003,2.442490654175342e-16,-1.324999999999778,0.010673348957642485,0.9930338361181068,0.04637939149047405,0.03719966519122498
0.47300000000000003,0.004399999999999801,0.674999999999778,0.010656656341570078,0.9930338361181069,0.04627166779272945,0.037199665191224994
0.47400000000000003,0.0007999999999993727,-1.324999999999778,0.010606865494955455,0.9930338361181068,0.04595034882823068,0.03719966519122498
0.47500000000000003,-0.010499999999999761,0.674999999999778,0.010314789235452555,0.9953478183326099,0.044065471433304366,0.03749965996085029
0.47600000000000003,-0.006200000000000199,-1.325,0.010137906050037473,0.9930338361181068,0.042923978049696665,0.03719966519122498
0.47700000000000004,-0.009799999999999379,-1.325,0.010124880413443163,1.0076300706328336,0.04283991874267553,0.03909198483966397
0.47800000000000004,0.0013999999999997612,1.675,0.010119202839847588,1.0076300706328336,0.04280327923576544,0.03909198483966397
0.47900000000000004,-0.0028999999999998,-0.325,0.010119457336430918,1.0129739383002128,0.04280492159744804,0.03978478720423523
0.48,0.0007,-1.325,0.010148223798180186,1.0076300706328336,0.04299056233927174,0.03909198483966397
0.481,0.0196,-0.325,0.010134568408759986,0.9999597187024948,0.042902439001617186,0.03809756688525405
0.482,0.0062,-0.325,0.01014141230689723,1.0076300706328338,0.042946605237223004,0.039091984839663994
0.483,0.004,0.675,0.01014149375526528,1.0129739383002128,0.04294713085401929,0.03978478720423523
0.484,0.0196,0.675,0.01017139922010651,1.0129739383002128,0.0431401220090003,0.03978478720423523
0.485,-0.0025,0.675,0.010174832650383476,1.0107003116114095,0.04316227921933681,0.0394900243013717
0.486,0.0004,-0.325,0.010156275606754781,1.0355254513160523,0.04304252367291918,0.0427084639332467
0.487,-0.013,1.675,0.01013687178143729,1.0429342647258604,0.042917303527405526,0.043668974890566044
0.488,-0.0297,-0.325,0.010316414156430174,1.0377446892696474,0.044075957656404006,0.04299617564272302
0.489,-0.0094,0.675,0.01033701581347425,1.0399591914548378,0.04420890785826736,0.043283273386481455
0.49,-0.012,-0.325,0.010386557253146382,1.0325290309116948,0.044528617306440366,0.042319994893479734
0.491,0.0029,1.675,0.010408553686715193,1.0250450133820888,0.04467056852313087,0.041349734145322635
0.492,0.0051,0.675,0.010452814881141557,1.0250450133820888,0.04495620257291185,0.041349734145322635
0.493,0.0029,1.675,0.010455592653869677,1.0129739383002128,0.0449741285797444,0.03978478720423523
0.494,-0.0029,0.675,0.01036543870578036,1.0129739383002128,0.04439233141791371,0.03978478720423523
0.495,0.0025,1.675,0.010360710120660718,1.0129739383002128,0.04436181608874191,0.03978478720423523
0.496,0.0138,0.675,0.010331683538042397,1.0152424732345895,0.04417449668961529,0.04007888998979681
0.497,0.0123,-0.325,0.010310255077118666,1.0227982204107726,0.044036210812933824,0.041058450082895
0.498,0.0134,0.675,0.010461193082773079,1.0227982204107726,0.04501027024308904,0.041058450082895
0.499,-0.0055,0.675,0.010430241800571961,1.0227982204107726,0.04481053003734906,0.041058450082895
0.5,-0.0081,-0.325,0.010361432889754994,1.0227982204107724,0.04436648038816108,0.04105845008289497
0.501,-0.015,2.675,0.010493303209416629,1.0250450133820888,0.04521748890564538,0.041349734145322635
0.502,-0.0037,-0.325,0.010955925891716012,0.9907144492190473,0.04820296618384101,0.03689896973466774
0.503,-0.0019,-0.325,0.0115167602846335,0.975865236763414,0.05182224038060912,0.03497385292010238
0.504,-0.0,0.675,0.011888419071752018,0.9735049463352874,0.05422069360531727,0.03466785455123129
0.505,0.0015,0.675,0.011849519269819224,0.971138919390644,0.053969658627482965,0.034361112475282354
0.506,-0.0028,-1.325,0.012306503592047177,0.9735049463352874,0.056918749458313184,0.03466785455123129
0.507,0.0008,-0.325,0.012302664376347543,0.9735049463352874,0.056893973562802874,0.03466785455123129
0.508,-0.0181,-0.325,0.012327941569399758,0.9735049463352874,0.05705709674807098,0.03466785455123129
0.509,-0.0101,-0.325,0.012323368554283254,0.9735049463352874,0.05702758537034235,0.03466785455123129
0.51,-0.0169,1.675,0.012382653463044386,0.9735049463352875,0.05741017307046667,0.0346678545512313
0.511,-0.0191,-1.325,0.012628968866707807,1.0107003116114097,0.05899973853935313,0.039490024301371725
0.512,0.0109,-1.325,0.012482555157120365,1.0084215587279752,0.05805487608466966,0.03919459681622757
0.513,0.024,0.675,0.01243846789160563,1.022798220410774,0.05777036446323809,0.04105845008289517
0.514,0.004,1.675,0.01240646086492694,1.022798220410774,0.057563811143334094,0.04105845008289517
0.515,0.0004,-0.325,0.011957500882781903,1.0205464810048592,0.054666504381696054,0.04076652474306334
0.516,-0.0159,1.675,0.011926825626012117,1.006137644819697,0.05446854547135074,0.03889850023326178
0.517,-0.001,-0.325,0.012030702813433821,1.0061376448196968,0.055138903831708164,0.03889850023326175
0.518,0.007,-0.325,0.011998519100917352,0.9984558278198267,0.05493121029197869,0.03790259589711942
0.519,0.0001,1.675,0.011852977864247927,1.0038485346601302,0.05399197823150685,0.03860172998556406
0.52,-0.0021,-0.325,0.011835703112767182,1.0182897623502738,0.053880497796142325,0.04047395387166756
0.521,0.0036,0.675,0.011840391725443846,1.0182897623502738,0.053910755168182244,0.04047395387166756
0.522,-0.0018,-0.325,0.011844547621818588,1.0182897623502736,0.05393757472258814,0.04047395387166753
0.523,0.0061,-0.325,0.011856512719532157,1.010700311611422,0.054014789975367586,0.039490024301373314
0.524,0.0137,0.675,0.011854751811788286,1.0333014470808115,0.054003426178780276,0.04242013430218249
0.525,0.0046,-0.325,0.011854559536770622,1.0280632471338478,0.05400218535614367,0.04174103116280155
0.526,0.0034,1.675,0.011868257321984087,1.0399591914548556,0.05409058228971629,0.04328327338648376
0.527,-0.0021,-0.325,0.011868257321984087,1.0347546953068265,0.05409058228971629,0.04260853975492941
0.528,0.0026,-1.325,0.011857547859441825,1.0272868923740663,0.05402147012054487,0.04164038113798787
0.529,0.0088,0.675,0.011872758328591354,1.015242473234608,0.05411962896958987,0.0400788899897992
0.53,0.0033,-0.325,0.011896037414448895,1.015242473234608,0.054269857621456696,0.0400788899897992
0.531,0.004,-1.325,0.011970766964353546,1.0099106094242252,0.05475211537012831,0.039387643857722594
0.532,0.0004,-1.325,0.011869357608446792,1.009910609424225,0.05409768284997759,0.03938764385772256
0.533,-0.0086,0.675,0.011899213762663787,1.0121860099861353,0.054290355785048816,0.039682636733249996
0.534,0.0037,-0.325,0.01194763300157538,1.009910609424225,0.05460282325179645,0.03938764385772256
0.535,-0.0075,-2.325,0.0117952208627122,1.0076300706328523,0.05361925068843745,0.03909198483966638
0.536,0.0091,-1.325,0.011793813656281387,1.019764403687243,0.05361016945877521,0.04066513282083639
0.537,0.0203,0.675,0.011793758485714267,1.0272868923740597,0.053609813422461246,0.041640381137987
0.538,0.0065,0.675,0.011900513166434304,1.0129739383002234,0.05429874132380536,0.03978478720423661
0.539,-0.0102,-0.325,0.011546603835551564,1.0272868923740588,0.0520148319818763,0.04164038113798689
0.54,-0.008,-0.325,0.011548244836140344,1.0391917239025656,0.052025421972723605,0.04318377553809879
0.541,-0.0099,0.675,0.01148984417141436,1.0391917239025656,0.0516485406302344,0.04318377553809879
0.542,0.0028,0.675,0.011536085615707549,1.0250450133820954,0.05194695397339799,0.0413497341453235
0.543,0.0014,0.675,0.011524716417747523,1.0227982204107797,0.05187358428470858,0.04105845008289592
0.544,0.0057,-0.325,0.011522963297284734,1.0160280312684897,0.05186227074236003,0.04018073316729843
0.545,0.0046,0.675,0.011539579633919758,1.016028031268488,0.0519695021803521,0.0401807331672982
0.546,0.0036,-1.325,0.01159129873680771,1.009212426088377,0.052303264904119115,0.03929712831802603
0.547,0.0202,-1.325,0.011510704961098642,1.0069303060227872,0.051783163111990146,0.03900126429666796
0.548,0.0083,-0.325,0.011449356681207834,1.0092124260883766,0.051387259705870804,0.03929712831802597
0.549,-0.003,-1.325,0.011389658592891563,1.0092124260883757,0.05100200560346904,0.039297128318025856
0.55,-0.0168,0.675,0.011379184635052261,1.0069303060227865,0.05093441323426961,0.03900126429666787
0.551,-0.0335,0.675,0.011465166318002597,1.0145479591439206,0.05148928520793373,0.03998885014708502
0.552,-0.04,-0.325,0.011374078686821467,0.9798496832856599,0.050901462639735606,0.03549041398484775
0.553,-0.0302,-0.325,0.011369164472688384,0.9821947269350663,0.05086974937707934,0.035794435694675816
0.554,-0.0027,-0.325,0.011380317542218618,0.9821947269350669,0.05094172430813795,0.035794435694675907
0.555,0.0332,0.675,0.011384744438326929,1.0054368415106472,0.05097029272523027,0.0388076450287864
0.556,-0.0001,0.675,0.011508113775535372,1.0054368415106472,0.05176644122195164,0.0388076450287864
0.557,-0.0131,0.675,0.01179214475537062,1.000052699528876,0.05359939941671006,0.038109621326042314
0.558,-0.0011,-0.325,0.011792440991342475,1.0023504784350807,0.053601311138285326,0.038407515427948714
0.559,0.017,-1.325,0.011900212066083427,1.0168129824048873,0.05429679821057207,0.0402824976639548
0.56,0.0268,2.675,0.011858230204481807,1.0190729713671953,0.05402587354841536,0.040575492512339564
0.561,-0.0,-0.325,0.011745516829585762,1.0069303060227761,0.05329849196386278,0.039001264296666525
0.562,-0.0036,1.675,0.011724359773769321,1.0015541926202536,0.05316195756589605,0.038304281454032335
0.5630000000000001,-0.00040000000000031086,0.675,0.011777457008560187,1.0084215587279644,0.05350461389051734,0.03919459681622616
0.5640000000000001,-0.003200000000000289,-0.325,0.01153927429853948,1.013761254210897,0.05196753173688937,0.03988685828056749
0.5650000000000001,-0.0057999999999975346,-0.325,0.011534301444181185,0.9992545826620786,0.05193544004691716,0.038006149966544236
0.5660000000000001,0.016399999999998346,-1.325,0.011619778942590357,1.013761254210897,0.052487058329075756,0.03988685828056749
0.5670000000000001,0.0015000000000008882,-0.325,0.011611086125035874,1.0015541926202536,0.0524309603246212,0.038304281454032335
0.5680000000000001,0.009499999999999755,-1.325,0.011665781302446995,1.0015541926202536,0.05278392877090699,0.038304281454032335
0.5690000000000001,0.007299999999999767,1.675,0.011729358978852605,1.0038485346601105,0.05319421930695682,0.038601729985561495
0.5700000000000001,0.0051999999999998,-0.325,0.01196986638550923,0.9969496683319181,0.054746303597857295,0.03770733079708444
0.5710000000000001,0.0034000000000002106,-0.325,0.012150474257503891,0.9992545826620786,0.05591183377770781,0.038006149966544236
0.5720000000000001,0.005299999999999845,-0.325,0.01217708748080994,0.9992545826620786,0.05608357886613462,0.038006149966544236
0.5730000000000001,0.0038999999999995115,-2.325,0.012243155529345288,1.0069303060227761,0.05650994070541288,0.039001264296666525
0.5740000000000001,-0.0004999999999986233,0.675,0.012337648735149613,1.0092124260883655,0.057119740720990395,0.03929712831802453
0.5750000000000001,0.011899999999997992,1.675,0.012261071943764102,1.0092124260883655,0.05662556203182136,0.03929712831802453
0.5760000000000001,-0.006200000000000244,0.675,0.01225548594059302,1.0114893972529855,0.05658951346312537,0.03959232481335297
0.577,-0.0084,-0.325,0.012250710653872133,0.9969496683319181,0.05655869675104542,0.03770733079708444
0.578,-0.0062,0.675,0.012250628105913723,0.9992545826620784,0.056558164038181084,0.03800614996654422
0.579,-0.008,-0.325,0.012247827163752537,0.9915194404323133,0.05654008851032715,0.0370033323144925
0.58,-0.0134,0.675,0.01223059160846206,0.9969496683319181,0.056428861022645285,0.03770733079708444
0.581,-0.012,-0.325,0.012367870621997009,0.9992545826620786,0.05731477386557952,0.038006149966544236
0.582,-0.0105,0.675,0.012361451893229186,1.0061376448196808,0.0572733514070092,0.03889850023325968
0.583,-0.0115,-0.325,0.012383956960083611,1.0061376448196808,0.05741858502461786,0.03889850023325968
0.584,0.0048,-0.325,0.012494581718998624,1.0061376448196808,0.0581324879887032,0.03889850023325968
0.585,-0.0017,1.674999999999667,0.012521231459395245,1.0084215587279644,0.05830446873557984,0.03919459681622616
0.586,0.0002,-1.324999999999889,0.012636912680507935,0.9852498563610483,0.05905100294231024,0.03619051602864668
0.587,0.0205,-0.32499999999977797,0.012688492776425957,0.9797547851516483,0.059383868602085124,0.03547811097591697
0.588,0.0071,1.675,0.012573075862328725,1.0030534380956098,0.05863904006742682,0.038498650191256124
0.589,-0.0096,1.674999999999778,0.012556729316863281,1.0084215587279644,0.05853354969280551,0.03919459681622616
0.59,-0.003,-0.325,0.012522236099348057,1.0107003116113995,0.05831095205312272,0.039490024301370406
0.591,0.0107,-0.325,0.012555504034919786,1.012973938300203,0.058525642489934464,0.03978478720423396
0.592,0.0002,-0.32500000000011103,0.012516618894793023,1.0107003116113995,0.058274702130220804,0.039490024301370406
0.593,0.0021,-1.324999999999778,0.012675018520235129,1.0107003116113997,0.05929691418493816,0.039490024301370434
0.594,0.0068,0.674999999999778,0.012692310253034682,1.0084215587279644,0.05940850420710722,0.03919459681622616
0.595,0.0112,-1.324999999999889,0.012679396754057026,1.0084215587279644,0.05932516856608725,0.03919459681622616
0.596,0.0022,-0.324999999999889,0.012672655884453267,1.0084215587279644,0.05928166721216039,0.03919459681622616
0.597,0.0033,0.675,0.01266749900497304,1.0084215587279641,0.059248387939215774,0.039194596816226134
0.598,0.0066,0.674999999999889,0.012536098064240957,1.0007572732143295,0.05840040849960132,0.03820096533859647
0.599,-0.0025,-0.32500000000011103,0.012508633169393364,1.0007572732143295,0.05822316725602896,0.03820096533859647
0.6,-0.0162,-1.324999999999778,0.012625919389063014,0.9930338361180968,0.0589800591190237,0.03719966519122368
0.601,0.004,0.675,0.012515321210987689,1.0053443586450694,0.058266327691043174,0.03879565514581349
0.602,0.0015,0.674999999999889,0.012064790239970783,1.0053443586450694,0.05535888275036483,0.03879565514581349
0.603,-0.0054,-0.32500000000022206,0.011384759265724222,1.0076300706328236,0.05097038841197328,0.03909198483966267
0.604,-0.0032,-2.324999999999667,0.011054006457183302,1.0099106094241967,0.04883591677368192,0.03938764385771891
0.605,-0.0169,0.675,0.011055329276241388,1.0099106094241967,0.04884445342005094,0.03938764385771891
0.606,-0.0259,0.675,0.010555972220373532,1.0076300706328238,0.045621915483540124,0.0390919848396627
0.607,-0.0012,0.675,0.010556005313449102,1.0076300706328238,0.04562212904553991,0.0390919848396627
0.608,0.0241,1.675,0.010476398388881586,1.012973938300203,0.04510839577309835,0.03978478720423396
0.609,0.0013,0.675,0.010477267867092521,1.0205464810048486,0.045114006841344576,0.04076652474306196
0.61,0.0043,0.675,0.010341873468469513,1.0152424732345797,0.044240256123643344,0.04007888998979555
0.611,0.0177,0.675,0.009995621213236997,0.9860593087250351,0.04200576075609519,0.036295456971552335
0.612,0.0156,1.675,0.009998936244521053,0.986059308725035,0.0420271538934266,0.03629545697155232
0.613,-0.0047,-1.325,0.01002159673140921,0.9711389193906337,0.042173390494669734,0.034361112475281015
0.614,-0.0022,-0.325,0.010084199460118334,0.9837234776802122,0.042577389328417335,0.035992629624054424
0.615,-0.0141,1.675,0.010082118639648531,0.9984558278198075,0.04256396101530107,0.03790259589711693
0.616,0.0152,0.675,0.010069962016819995,0.9984558278198075,0.04248550977928774,0.03790259589711693
0.617,0.0113,-0.325,0.00996587062989078,0.9930338361180968,0.04181376910935679,0.03719966519122368
0.618,-0.0141,0.675,0.009982005201442927,1.0076300706328236,0.04191789153699682,0.03909198483966267
0.619,-0.0239,-1.325,0.01000021442317614,1.0144563068933223,0.042035402458571035,0.039976967948669
0.62,-0.021,0.675,0.010022114212706993,0.9999597187024848,0.04217672999512125,0.03809756688525275
0.621,0.0088,0.675,0.010008745832948918,1.0076300706328238,0.04209045883821288,0.0390919848396627
0.622,0.0128,-1.325,0.01007078159820787,1.022017866190017,0.0424907988446638,0.04095728155047739
0.623,0.0164,0.675,0.01006340308796482,1.0242663709190294,0.042443182557092105,0.04124878753265555
0.624,0.0001,0.675,0.010119872984447869,1.0136695308293582,0.04280760392963324,0.0398749668604254
0.625,-0.0028,0.675,0.010171787629246257,1.018981726118641,0.04314262855851835,0.04056366307944768
0.626,-0.0002,-0.325,0.010143218041270531,1.012186009986107,0.04295825831682375,0.03968263673324634
0.627,0.002,0.675,0.010156555001835094,1.0099106094241967,0.043044326713919605,0.03938764385771891
0.628,-0.0002,-0.325,0.010125911540710618,1.0099106094241967,0.04284657299277113,0.03938764385771891
0.629,-0.006,-1.325,0.01029394028960074,1.0076300706328238,0.0439309253842314,0.0390919848396627
0.63,-0.0187,0.675,0.010295912548393257,1.0076300706328238,0.04394365310822131,0.0390919848396627
0.631,-0.0006,1.675,0.010366586976536403,1.0197644036872207,0.04439974163877521,0.04066513282083348
0.632,-0.0075,-1.325,0.01042424167238623,1.0553306014608324,0.04477180896497163,0.045276090174208944
0.633,-0.0187,0.675,0.010383169920774765,1.0553306014608321,0.04450675758313649,0.045276090174208916
0.634,-0.009,0.675,0.010361619416665304,1.0553306014608321,0.04436768411611003,0.045276090174208916
0.635,0.0186,0.675,0.01038300918381855,1.0553306014608324,0.04450572028741168,0.045276090174208944
0.636,0.0146,0.675,0.010396615006168368,1.0655131905535102,0.0445935237502135,0.04659620553633291
0.637,0.011,-2.325,0.01042097883153215,1.0582624622595131,0.044750752632014036,0.04565618942448024
0.638,0.0012,-1.325,0.010275618657747216,1.0655131905535122,0.043812689038087944,0.04659620553633317
0.639,0.0041,0.675,0.010251397365121257,1.0517205901167093,0.04365637997337907,0.044808072522760596
0.64,0.0121,0.675,0.010207152143287927,1.0399591914548394,0.04337084900071775,0.043283273386481656
0.641,0.0001,-0.325,0.010309237403030141,1.0399591914548394,0.044029643381235925,0.043283273386481656
0.642,-0.0202,0.675,0.010255101992853377,1.0399591914548396,0.04368028732237338,0.043283273386481684
0.643,-0.0068,-0.325,0.010255114018600435,1.047336641251207,0.043680364929019076,0.04423971822785176
0.644,0.0001,-0.325,0.010255010258411352,1.0399591914548418,0.043679695325692776,0.04328327338648197
0.645,-0.0021,0.675,0.010239605154714565,1.0451377709772647,0.043580280427083805,0.043954647073400833
0.646,-0.0003,-1.325,0.010191294006773412,1.045137770977266,0.04326851051181509,0.04395464707340101
0.647,0.0088,-0.325,0.010452447793422645,1.047336641251213,0.044953833618500735,0.04423971822785254
0.648,0.0007,-0.325,0.01045293352716529,1.0524789216603274,0.04495696824009929,0.04490638593904422
0.649,0.0174,-0.325,0.010529127661935565,1.0524789216603283,0.04544867750294348,0.044906385939044335
0.65,0.0018,1.675,0.010671924764144776,1.0546624864492573,0.04637020063691272,0.04518947282351176
0.651,0.0036,0.675,0.010648849181457264,1.0473366412512162,0.04622128526715117,0.04423971822785294
0.652,0.0018,0.675,0.010777355777169609,1.0524789216603307,0.047050586415314934,0.044906385939044655
0.653,-0.013,0.675,0.010824202934783042,1.0524789216603314,0.04735290865318663,0.04490638593904474
0.654,-0.0032,-0.325,0.01081675927581612,1.0546624864492602,0.0473048719365217,0.045189472823512135
0.655,-0.005,-0.325,0.01113271890335708,1.0443741089569023,0.04934387764234278,0.043855642590810456
0.656,-0.0003,0.675,0.011695792348339175,1.0421689880607081,0.05297760127991728,0.04356976107836685
0.657,-0.0019,-1.325,0.011466098313074735,1.0421689880607081,0.05149529972087855,0.04356976107836685
0.658,0.0017,-1.325,0.01149425172956621,1.0399591914548558,0.05167698425225759,0.043283273386483787
0.659,0.0028,0.675,0.01133362090925126,1.0280632471338496,0.050640373462132376,0.04174103116280178
0.66,0.0039,-1.325,0.011468307909623734,1.0280632471338493,0.05150955907422074,0.04174103116280175
0.661,-0.0026,-0.325,0.011479865085736979,1.028063247133847,0.05158414185627263,0.04174103116280143
0.662,0.0076,-0.325,0.011573551222058956,1.050290817228852,0.05218873355048229,0.04462271051547251
0.663,0.0112,1.675,0.011556717924279541,1.036295634067404,0.05208010198104052,0.04280831379190725
0.664,0.0024,1.675,0.01154763034972377,1.031072645721555,0.052021456461942076,0.04213118275099077
0.665,-0.003,-0.325,0.011561031149467271,1.0310726457215555,0.05210793683714768,0.042131182750990835
0.666,0.0078,0.675,0.011772003207411102,1.0243571454346947,0.05346941847093811,0.041260555937677926
0.667,-0.0059,1.675,0.012328939198440737,1.0221088403976715,0.05706353482157638,0.040969075844442183
0.668,-0.0113,1.675,0.012344135435552787,1.0243571454346936,0.057161601825958024,0.04126055593767779
0.669,-0.0099,-0.325,0.012265223630454493,1.022108840397671,0.05665235441955892,0.04096907584444212
0.67,0.0007,-1.325,0.012115604260369416,1.022108840397671,0.05568680463815439,0.04096907584444212
0.671,-0.0117,1.675,0.01228534504467119,1.027377400009839,0.05678220543475457,0.04165211494353433
0.672,-0.0037,0.675,0.01243607598601803,1.0392811947856173,0.05775492860145139,0.043195374934490445
0.673,-0.0114,1.675,0.012378040245981351,1.0459008754117884,0.05738040225453386,0.04405357926812566
0.674,-0.0103,-1.325,0.012270165323897847,1.045900875411787,0.056684245016486876,0.04405357926812546
0.675,-0.0092,-1.325,0.012294765315221312,1.0510501803525145,0.05684299796559646,0.04472115767030251
0.676,-0.0081,-0.325,0.012406925876511845,1.0488590953197716,0.05756681203709471,0.04443709582855308
0.677,0.0028,-0.325,0.01243861332411756,1.0510501803525143,0.05777130299365714,0.044721157670302485
0.678,0.0195,-0.325,0.012485738332788225,1.0510501803525127,0.05807541830837056,0.04472115767030228
0.679,0.0082,-0.325,0.012558769983023934,1.058350320940567,0.05854671887513944,0.04566757980795731
0.68,0.018,1.675,0.012545602990542982,1.0532367072045503,0.05846174734568768,0.04500462856957946
0.681,0.0162,2.675,0.012443500901445036,1.0583503209405627,0.05780284435903957,0.045667579807956764
0.682,0.0049,0.675,0.012449092065229117,1.0466634234800358,0.057838926231102296,0.044152439333094325
0.683,0.0093,-0.325,0.012427695048011079,1.04149242993842,0.05770084327241962,0.043482049125888635
0.684,0.0082,-0.325,0.012500473332657937,1.0392811947856035,0.05817050877623649,0.04319537493448866
0.685,-0.0056,-2.325,0.012470383283418086,1.037065244838023,0.05797632642906132,0.042908089496485245
0.686,0.0071,-0.325,0.012524786915143362,1.037065244838023,0.058327413421942545,0.042908089496485245
0.687,-0.011,-1.325,0.012499518273748999,1.037065244838023,0.05816434542372251,0.042908089496485245
0.6880000000000001,0.000999999999999767,-0.325,0.012486041022802851,1.0198555789105592,0.05807737168029887,0.04067695317535028
0.6890000000000001,-0.001100000000001521,0.675,0.01254273223826452,1.0122778677907736,0.05844322130702464,0.039694545580590324
0.6900000000000001,-0.014799999999998146,-0.325,0.012615829715691204,1.0122778677907736,0.05891494668128884,0.039694545580590324
0.6910000000000001,0.0018999999999997558,-0.325,0.012600626890262038,1.024357145434676,0.05881683716003156,0.04126055593767551
0.6920000000000001,-0.0003000000000001998,-1.325,0.012674073475387003,1.024357145434676,0.05929081545690578,0.04126055593767551
0.6930000000000001,-0.0021000000000002,-0.325,0.012513121715390905,1.0296142004823903,0.058252133522925326,0.0419421035347409
0.6940000000000001,-0.0038999999999989893,-1.325,0.012495369888621528,1.0296142004823903,0.0581375743422059,0.0419421035347409
0.6950000000000001,0.0052000000000020094,-1.325,0.012499787601762777,1.043698980263504,0.05816608349817558,0.0437681159557421
0.6960000000000001,0.023299999999997024,0.675,0.012523481966573309,1.04149242993842,0.05831899210051977,0.043482049125888635
0.6970000000000001,-0.003500000000001199,-1.325,0.012538664643613024,1.036295634067384,0.05841697159668058,0.042808313791904626
0.6980000000000001,-0.014300000000000366,0.675,0.012515569182135096,1.036295634067384,0.05826792794164601,0.042808313791904626
0.6990000000000001,-0.017599999999999668,0.675,0.012519135213659957,1.043698980263504,0.0582909408774534,0.0437681159557421
0.7000000000000001,-0.014600000000000278,-0.325,0.012398401854815385,1.045900875411777,0.05751180333547389,0.04405357926812417
0.7010000000000001,-0.017099999999999234,-1.325,0.012408703410233304,1.0392811947856035,0.05757828312733669,0.04319537493448866
0.7020000000000001,-0.010199999999999269,0.675,0.012435832739306856,1.0444631359061485,0.05775335883940341,0.043867184433682954
0.7030000000000001,-0.003599999999996658,0.675,0.012581466339348155,1.0663489123709822,0.05869318695527552,0.04670455216602262
0.704,0.0265,1.675,0.012578407977870201,1.0713999455603356,0.058673450204246455,0.04735939018876659
0.705,0.0396,-0.325,0.012589311321724046,1.0785623596077545,0.05874381356207019,0.04828795685563614
0.706,0.0117,0.675,0.012658536151534281,1.080693223512894,0.05919054729215495,0.04856421136715257
0.707,0.0081,-0.325,0.012831930103502125,1.080693223512894,0.060309523346687315,0.04856421136715257
0.708,-0.0147,0.675,0.012967930399390322,1.087060753913423,0.061187184146162206,0.04938972584328654
0.709,-0.0176,0.675,0.012998154397592434,1.0820828259735507,0.061382230916113355,0.048744365504657446
0.71,0.0067,0.674999999999667,0.01299986432362714,1.0799547039032993,0.06139326570865452,0.04846846645660158
0.711,0.023,-2.324999999999778,0.013002893080445905,1.0863265631636703,0.06141281140974003,0.04929454214504866
0.712,0.0143,-0.324999999999889,0.013000413399484217,1.0996852101411012,0.061396809100619565,0.051026415535164966
0.713,0.0009,0.674999999999889,0.013012940147597057,1.112883516353425,0.061477648893590114,0.052737501647579496
0.714,-0.006,-0.32500000000011103,0.013058255655295177,1.1066645750267037,0.061770086821428434,0.05193125090851591
0.715,-0.0263,-1.324999999999889,0.013059986451676614,1.093391202658476,0.06178125629812655,0.05021043289150596
0.716,-0.0397,-0.324999999999889,0.013057738226878344,1.100410488075657,0.06176674766223747,0.05112044373707925
0.717,-0.0129,0.674999999999889,0.013037012973290591,1.0983178786138659,0.06163299984562904,0.050849148698823926
0.718,-0.002,-0.32500000000011103,0.013038876661211389,1.0920159903274005,0.061645026921157496,0.05003214435330495
0.719,0.0143,-1.325,0.013028279368149173,1.0920159903274005,0.06157663862361364,0.05003214435330495
0.72,0.0292,-1.3249999999996669,0.013037078120729934,1.0990440588742063,0.06163342026643272,0.05094329388219737
0.721,0.0212,1.675,0.013064392228433003,1.0920159903274005,0.06180968842413824,0.05003214435330495
0.722,0.0045,1.674999999999889,0.01301429047608363,1.0785623596077545,0.06148636306859496,0.04828795685563614
0.723,-0.002,0.674999999999778,0.01300911334569701,1.0835564609168093,0.061452953108973675,0.048935413980546294
0.724,-0.0078,-1.324999999999889,0.013006105492851503,1.0771682155737914,0.061433542309049675,0.048107213928714775
0.725,-0.0169,-0.324999999999889,0.013023909992045557,1.0699964693523383,0.0615484414046351,0.04717743739800878
0.726,-0.0089,0.675,0.013064910468506483,1.0699964693523327,0.061813032821253264,0.04717743739800806
0.727,0.011,0.674999999999778,0.013048493065980521,1.072144357915715,0.06170708517950635,0.047455899060640634
0.728,0.0135,-1.324999999999778,0.013046267377633442,1.0742879520847954,0.06169272197976975,0.047733803979223395
0.729,0.0016,0.674999999999778,0.01293121034192155,1.0764272775151078,0.060950215874995356,0.048011155479851915
0.73,-0.0097,-1.324999999999778,0.013092461492691615,1.083556460916799,0.06199082988966959,0.04893541398054494
0.731,-0.0038,0.675,0.012978917180911606,1.0699964693523303,0.06125808595847557,0.04717743739800774
0.732,0.0016,0.675,0.012932656428079382,1.0349343965074909,0.0609595480100845,0.042631837004129
0.733,0.023,-0.325,0.012925103664042894,1.040137993492324,0.06091080719757951,0.04330645406423603
0.734,0.0023,-0.325,0.012934315318742132,1.047514184019569,0.06097025345227344,0.044262735648452296
0.735,-0.022,0.675,0.01291060512068601,1.0497080763270454,0.060817242672070795,0.044547161437569906
0.736,-0.0123,0.675,0.012917142033574502,1.025226416492627,0.06085942781699524,0.041373252037558005
0.737,-0.0094,-1.325,0.012967160464692987,1.0327091193991997,0.06118221546945755,0.04234334235223832
0.738,-0.012,-0.325,0.01293180915531908,1.0252264164926284,0.06095408024192029,0.04137325203755818
0.739,-0.0142,0.675,0.012934067370608938,1.0497080763270472,0.060968653350189944,0.044547161437570135
0.74,0.0104,1.675,0.01294225009801929,1.0475141840195707,0.06102145955207319,0.044262735648452525
0.741,0.0136,-0.325,0.012860320919649304,1.047514184019571,0.06049273990687746,0.04426273564845255
0.742,-0.0013,-1.325,0.012887109775567496,1.111616068999684,0.0606656184182706,0.052573184232123725
0.743,0.0012,-0.325,0.012928378451040416,1.106748591336983,0.06093194062347086,0.05194214315024925
0.744,0.0033,1.675,0.012927009608247319,1.1088252902105178,0.06092310696871813,0.05221137547029152
0.745,-0.008,-0.325,0.012935007280420527,1.103945507612819,0.06097471893991007,0.051578739122854156
0.746,-0.0062,0.675,0.012925600175590335,1.099044058874169,0.06091401137238538,0.050943293882192535
0.747,-0.0045,-0.325,0.012722737559071266,1.0969488427281215,0.05960486299859021,0.050671660901995354
0.748,-0.0031,-1.325,0.01274619619744264,1.0899072636452187,0.05975625037001577,0.049758759808143385
0.749,-0.0017,0.675,0.012666313878384221,1.08779444913208,0.05924073987387424,0.04948484529870701
0.75,-0.0054,-1.325,0.012544784352244289,1.08779444913208,0.058456464366419,0.04948484529870701
0.751,-0.009,-1.325,0.012460138691682318,1.08779444913208,0.05791021424515476,0.04948484529870701
0.752,-0.0192,-2.325,0.012371653641467553,1.0806932235128563,0.05733918710579537,0.048564211367147676
0.753,-0.0127,-1.325,0.012354231254967754,1.1018596117448352,0.05722675392640918,0.05130831446424777
0.754,0.0061,-1.325,0.012360318301463755,1.1067485913369814,0.05726603591516686,0.051942143150249045
0.755,0.0141,0.675,0.01208712127874297,1.095578096094637,0.055502993299639036,0.05049395131635139
0.756,0.021,0.675,0.011419478075258093,1.1088252902105162,0.05119444188136694,0.05221137547029132
0.757,0.0188,1.675,0.011392962397408533,1.1136836914682506,0.05102332629027149,0.052841239847349356
0.758,0.009,0.675,0.01137991336177821,1.1157474823751083,0.05093911598051525,0.053108798722165756
0.759,0.0035,-0.325,0.011355305411788955,1.1136836914682506,0.050780311671157256,0.052841239847349356
0.76,0.0048,1.675,0.011270587883378362,1.1185209900016466,0.05023359775977355,0.05346836837497576
0.761,0.0004,1.675,0.011263578140568688,1.1294646009761933,0.05018836126643894,0.0548871459405947
0.762,0.0095,1.675,0.011028498162164238,1.1136836914682573,0.04867130220094542,0.05284123984735022
0.763,0.0156,-1.325,0.010935498124153188,1.1136836914682575,0.04807113815586809,0.05284123984735025
0.764,0.0032,-0.325,0.010944671414927285,1.1136836914682584,0.048130336833797645,0.05284123984735037
0.765,0.0017,-1.325,0.01094307472287038,1.115747482375116,0.04812003278248639,0.053108798722166735
0.766,-0.0027,-0.325,0.01077563173643839,1.115747482375117,0.04703946053535558,0.05310879872216688
0.767,-0.0063,-1.325,0.010024005344699893,1.12262699265712,0.04218893417751631,0.054000688508202964
0.768,-0.01,1.675,0.00994207521171003,1.1430171150469453,0.041660208371801295,0.056644153108159366
0.769,-0.011,-1.325,0.009969319125318322,1.1497334671593231,0.04183602354074722,0.05751489035585596
0.77,-0.0085,-0.325,0.00994131579597245,1.1557206776978282,0.04165530757788004,0.0582910985025477
0.771,-0.0024,-0.325,0.009706647041478587,1.149039322496136,0.040140902294157885,0.05742489840733781
0.772,-0.0002,-1.325,0.009757115942987294,1.1362610637852082,0.04046659700061033,0.05576826908919906
0.773,0.011,-1.324999999999778,0.00979402857296545,1.1253835458590344,0.04070480801423916,0.0543580601152902
0.774,0.0123,-0.325,0.009955646061883653,1.1233374584274372,0.041747786146063844,0.054092796396395505
0.775,0.0138,-1.3249999999995559,0.010163436626377361,1.1185209900016642,0.04308873641213392,0.05346836837497804
0.776,0.0047,0.675,0.010029475649845227,1.1205758719775947,0.04222423610355898,0.053734772257044545
0.777,-0.0015,0.675,0.010014451784211295,1.1185209900016646,0.04212728147682552,0.05346836837497809
0.778,-0.0091,0.675,0.009961912135153713,1.118520990001666,0.041788223461584756,0.053468368374978266
0.779,-0.0221,-1.324999999999778,0.009891542283458692,1.1116160689997043,0.041334100476820415,0.05257318423212637
0.78,-0.0054,-0.325,0.009940888542489413,1.1226269926571344,0.04165255035127952,0.05400068850820484
0.781,-0.012,-0.32500000000022206,0.009899626395306381,1.1287579917743822,0.04138627027557674,0.05479553803480188
0.782,-0.0022,-1.325,0.009905695956606128,1.1287579917743822,0.041425439425820186,0.05479553803480188
0.783,0.0105,-1.3249999999995559,0.009971766341145756,1.1335309631529482,0.041851816340208174,0.055414326908876536
0.784,0.0025,0.675,0.009748443786366554,1.1335309631529482,0.04041063232889236,0.055414326908876536
0.785,0.0069,-0.32500000000022206,0.0097758421258399,1.1335309631529482,0.04058744406573027,0.055414326908876536
0.786,0.0134,-1.325,0.009672234700542548,1.1382839210225033,0.039918826581303885,0.056030521144156
0.787,-0.0054,-0.3250000000004441,0.009595863367537398,1.1362610637852206,0.03942597379194403,0.05576826908920067
0.788,0.0026,-2.325,0.009549963668307156,1.1362610637852206,0.039129765857549625,0.05576826908920067
0.789,0.0047,-0.325,0.0094909772382728,1.138283921022503,0.0387491043523373,0.05603052114415597
0.79,0.0026,-0.325,0.009410414293099231,1.1583984830386456,0.03822920152119042,0.05863826089268408
0.791,0.0085,3.6749999999993337,0.009402916700614982,1.145724611736236,0.03818081675135674,0.056995164814504534
0.792,0.0103,0.675,0.009334058689384618,1.147730789742173,0.03773645023882816,0.05725525450099663
0.793,-0.0009,0.675,0.009354256684717132,1.1537283931126603,0.03786679546062016,0.058032810019857765
0.794,-0.006,0.675,0.009516221798158003,1.1557206776978441,0.03891201694356764,0.05829109850254977
0.795,0.0017,0.674999999999778,0.009895182569290168,1.1497334671593389,0.0413575926034537,0.05751489035585801
0.796,-0.0049,-0.325,0.009885223107245678,1.1517326622486133,0.04129332046813797,0.05777407474650888
0.797,-0.0085,-0.325,0.009972272787198084,1.162363628592327,0.04185508462609148,0.05915231969549251
0.798,-0.0009,-0.325,0.009965428813298167,1.1643411376647155,0.04181091790156079,0.059408692616116095
0.799,-0.0016,0.675,0.009968611508335504,1.1643411376647155,0.041831457023573076,0.059408692616116095
0.8,-0.0009,-0.325,0.009968876007325501,1.1623636285923271,0.04183316393452871,0.05915231969549254
0.801,-0.0085,-0.325,0.01005835580415126,1.1774923037074503,0.042410610545994216,0.06111366727087667
0.802,-0.0078,-2.325,0.010042486488924139,1.1728982414763713,0.04230819991667615,0.06051807296076532
0.803,-0.0053,-1.325,0.009889538230570582,1.1577095337961105,0.04132116757363457,0.05854894250121052
0.804,-0.006,0.675,0.009943731272961581,1.1577095337961103,0.04167089555474104,0.05854894250121049
0.805,-0.0009,1.675,0.009924850129708784,1.153036653454908,0.04154904847217386,0.05794312986675741
0.806,-0.0088,-1.325,0.010035950028203917,1.1510397232182956,0.04226601768976274,0.05768423910150623
0.807,0.006,0.675,0.009820115962232704,1.1510397232182954,0.040873159698851184,0.057684239101506204
0.808,0.0126,-0.325,0.010202758311935333,1.1382839210225033,0.04334249396286661,0.056030521144156
0.809,0.0108,-1.325,0.010578772137786656,1.1490393224961484,0.04576905188213453,0.05742489840733942
0.81,0.0054,1.675,0.011314001349738805,1.1510397232182956,0.050513761103132784,0.05768423910150623
0.811,-0.0025,-1.325,0.011436458273068351,1.1510397232182956,0.05130402145167643,0.05768423910150623
0.812,-0.001,-0.325,0.011441212665524066,1.1403031897887541,0.05133470332524478,0.056292307974040126
0.8130000000000001,-0.004600000000000122,0.675,0.011731394567718672,1.1274259199940018,0.05320735572360891,0.0546228424261775
0.8140000000000001,-0.005700000000001377,0.675,0.01202855437378637,1.122626992657137,0.05512503914673604,0.05400068850820518
0.8150000000000001,-0.018099999999998357,-1.325,0.012130548465176118,1.1294646009762166,0.05578324518376136,0.054887145940597716
0.8160000000000001,-0.0032999999999998,-1.325,0.012155842145550686,1.122626992657137,0.055946474767890025,0.05400068850820518
0.8170000000000001,-0.0014999999999989898,-2.325,0.012195840876309587,1.122626992657137,0.05620460154464864,0.05400068850820518
0.8180000000000001,0.007600000000000511,-1.325,0.012180078824997942,1.117807462942744,0.05610288312951434,0.05337586360794888
0.8190000000000001,0.012200000000000844,1.675,0.012149155114377346,1.1067485913370074,0.05590332085350052,0.05194214315025241
0.8200000000000001,0.0198000000000004,-0.325,0.012099578105418968,1.1018596117448614,0.05558338186341366,0.05130831446425117
0.8210000000000001,0.023399999999998467,-0.325,0.012118311335053134,1.115032180505398,0.055704274404051846,0.05301606386090737
0.8220000000000001,0.009599999999996936,0.675,0.012116028132175164,1.1170934801289754,0.05568954004152597,0.05328329975486891
0.8230000000000001,-0.018000000000000432,-0.325,0.012277941836319826,1.1170934801289754,0.05673442976104811,0.05328329975486891
0.8240000000000001,-0.02189999999999799,0.675,0.012438614445400885,1.1122499732140962,0.05777131022971801,0.05265536634552773
0.8250000000000001,-0.003800000000000355,0.675,0.012632817478761793,1.1253009208575473,0.05902457507305411,0.054347348248910646
0.8260000000000001,-0.006999999999999678,-0.325,0.012767187641416789,1.120492892458913,0.0598917160127937,0.05372401442950616
0.8270000000000001,-0.004100000000000278,0.675,0.012802607929372876,1.120492892458913,0.06012029638493294,0.05372401442950616
0.8280000000000001,-0.006599999999998157,-0.325,0.013902837584774489,1.1314174304097424,0.0672204900474496,0.05514031928495461
0.8290000000000001,0.009999999999999268,1.675,0.01409532265196747,1.1293822745425666,0.0684626682122563,0.05487647278185773
0.8300000000000001,0.0034000000000001885,1.675,0.013952592268141419,1.1225441647592267,0.06754157563697903,0.05398995033744638
0.8310000000000001,0.005099999999998146,0.675,0.014139320160187386,1.135476799147863,0.06874660059627802,0.05566659359328078
0.8320000000000001,-0.011599999999999767,-1.325,0.014089704291921572,1.1354767991478625,0.06842641083253946,0.055666593593280723
0.833,-0.0095,-0.325,0.014089553495539139,1.1307120415787395,0.06842543768705696,0.0550488695933681
0.834,-0.0077,-0.325,0.014062046739912962,1.1259271204386447,0.06824792630021646,0.05442853149997169
0.835,-0.0168,-1.325,0.01406195665695907,1.1259271204386447,0.06824734496120675,0.05442853149997169
0.836,-0.0019,-0.325,0.014150730119489136,1.1259271204386445,0.0688202333331581,0.054428531499971664
0.837,-0.0001,-1.325,0.014225018120167583,1.1259271204386443,0.06929964159944921,0.054428531499971636
0.838,-0.0056,0.675,0.014236106365235947,1.1327448083108622,0.06937119819399865,0.055312406358552835
0.839,-0.007,-2.325,0.01426789720698387,1.123171901309583,0.0695763563916499,0.05407133284792086
0.84,0.0097,-0.325,0.014282351194256242,1.1360973899536386,0.06966963338007277,0.05574704969819093
0.841,0.0075,0.675,0.014369577077914307,1.1381205380993322,0.07023253464647278,0.05600933946778432
0.842,-0.0063,1.675,0.014473859808069553,1.0777361086515724,0.07090551012584026,0.04818083806980495
0.843,0.0175,0.675,0.014476030870140105,1.0755993864387385,0.07091952080177376,0.04790382406167004
0.844,0.0273,-1.325,0.01453605566184854,1.0968640757884551,0.07130688324341468,0.05066067134538697
0.845,0.0066,0.675,0.014565559655625445,1.0968640757884551,0.07149728355539067,0.05066067134538697
0.846,0.0145,1.675,0.014617863488232737,1.1017752226235527,0.07183481975883728,0.05129737388966628
0.847,0.0025,0.675,0.014801913942322753,1.1038612779562573,0.0730225662091329,0.05156781922197614
0.848,-0.004,-1.325,0.014788144771472974,1.1059433985314369,0.07293370859733728,0.05183775443512006
0.849,0.0018,-0.325,0.014808309476820358,1.1059433985314364,0.07306383898639841,0.051837754435119995
0.85,0.0144,-2.325,0.014808020852594911,1.1059433985314364,0.07306197638627097,0.051837754435119995
0.851,-0.007,0.675,0.014810750065533451,1.1059433985314364,0.07307958901861072,0.051837754435119995
0.852,0.0079,-1.325,0.014810750065533451,1.1059433985314364,0.07307958901861072,0.051837754435119995
0.853,-0.0164,-1.325,0.014821617120287105,1.0898219490078649,0.07314971818929188,0.0497476992456126
0.854,-0.0001,0.675,0.01481397496137916,1.0827340210427234,0.07310040047823059,0.0488287892800578
0.855,0.0205,-0.325,0.014807951326321388,1.0877089687757742,0.07306152770721182,0.04947376325164688
0.856,-0.0037,0.675,0.014818182783290267,1.0813452554125018,0.07312755512755273,0.04864874363290863
0.857,-0.0335,-0.325,0.014832836082892157,1.076340894406234,0.0732221183530189,0.047999956396002574
0.858,-0.0294,1.675,0.014833869821069153,1.0742013969396842,0.07322878945229074,0.047722582591844184
0.859,-0.0403,0.675,0.014781363132945024,1.0813452554124978,0.07288994414628723,0.04864874363290811
0.86,-0.0174,1.675,0.01474508739501881,1.0742013969396815,0.07265584323538896,0.047722582591843844
0.861,0.0033,0.675,0.014741595457747168,1.060521796861846,0.072633308457523,0.045949099438777334
0.862,0.0276,-0.325,0.01474304666011186,1.060521796861846,0.07264267360940944,0.045949099438777334
0.863,0.0308,0.675,0.014746360887192366,1.062688835644336,0.07266406155691443,0.04623004381952827
0.864,0.016,-1.325,0.0147396929275233,1.067757182993881,0.07262103071807838,0.04688712652568656
0.865,0.008,-0.325,0.01472882678489729,1.0728015856937092,0.07255090743369824,0.04754110494278396
0.866,0.0102,-0.325,0.01462465995814679,1.065600451412714,0.07187867992237161,0.04660751841557202
0.867,-0.001,0.675,0.01463050462199105,1.060521796861837,0.07191639772518016,0.04594909943877618
0.868,0.0049,0.675,0.014652582387179324,1.0436989802635157,0.07205887380524464,0.043768115955743626
0.869,-0.0005,0.675,0.014643726695103816,1.0436989802635157,0.07200172471055971,0.043768115955743626
0.87,0.0108,1.675,0.014593001487998086,1.0370652448380349,0.0716743759681824,0.04290808949648677
0.871,0.0003,0.675,0.014479411683996591,1.0370652448380349,0.07094133845866032,0.04290808949648677
0.872,-0.0199,-1.325,0.014294909377130747,1.0370652448380349,0.06975067603332297,0.04290808949648677
0.873,-0.0228,0.675,0.014272405378776977,1.0348445498078112,0.06960544931114886,0.042620188885226847
0.874,-0.0253,1.675,0.01416075774085702,1.0422582033656,0.06888494532609232,0.04358132734048865
0.875,-0.0231,0.675,0.013999625816521004,1.0400485963159818,0.06784510072421047,0.043294864223504384
0.876,0.0106,0.675,0.013994698773766022,1.0400485963159818,0.06781330467365675,0.043294864223504384
0.877,0.0542,1.675,0.013985293066030951,1.0400485963159816,0.06775260612210965,0.043294864223504356
0.878,0.0249,-0.325,0.013994808158603773,1.0378342849004367,0.0678140105749456,0.04300779121195671
0.879,0.0093,-0.325,0.013980082581494472,1.0400485963159818,0.0677189809156785,0.043294864223504384
0.88,0.0235,1.675,0.013972625079664843,1.0281536864276668,0.06767085486584065,0.04175275610819839
0.881,0.0018,-0.325,0.013990328126637492,1.0138529692942242,0.06778509925227882,0.03989874862489316
0.882,-0.0021,0.675,0.014027543380526185,1.0627763284014857,0.06802526321124155,0.04624138676303082
0.883,-0.0058,0.675,0.013992260021851322,1.0576841134188546,0.06779756649499177,0.045581209752584326
0.884,-0.0025,0.675,0.01396068272667077,1.0598569542927345,0.067593786393247,0.045862906341826284
0.885,-0.0173,-0.325,0.013958023339430758,1.0620253496723675,0.067576624372268,0.04614402659776105
0.886,-0.0198,-1.325,0.013914704201261372,1.0620253496723675,0.06729706976402243,0.04614402659776105
0.887,-0.0078,-1.325,0.013914704201261372,1.069250561637763,0.06729706976402243,0.04708073466123178
0.888,-0.0099,1.675,0.013928842431333166,1.0641893267322116,0.06738830905307641,0.04642457404340414
0.889,-0.008,1.675,0.013943769071811858,1.069250561637763,0.06748463624950232,0.04708073466123178
0.89,0.016,0.675,0.013942065378909844,1.094849616969668,0.0674736416816988,0.05039950809811823
0.891,0.0193,0.675,0.013908644078097054,1.094849616969668,0.06725796152159857,0.05039950809811823
0.892,0.0106,-0.325,0.013918877163008042,1.0927463584906543,0.06732399944765909,0.050126832474719066
0.893,0.0132,-2.325,0.013970353399695374,1.079301831938823,0.06765619486495511,0.0483838252811637
0.894,0.011,0.675,0.013915577240963189,1.0906390439602567,0.06730270381590199,0.04985363100708788
0.895,-0.0125,-1.325,0.01369157342202305,1.0835564609168207,0.06585712335203263,0.04893541398054776
0.896,-0.0238,0.675,0.013685702505044845,1.0814312387805998,0.06581923612792703,0.04865989089261637
0.897,-0.0056,0.675,0.013612104337328011,1.0678442604811136,0.06534427961186662,0.04689841563178174
0.898,-0.0078,-0.32499999999977797,0.013685463868022352,1.0728882537684763,0.06581769611392502,0.047552340970857414
0.899,-0.0013,0.675,0.013705916282356827,1.0728882537684763,0.06594968319673802,0.047552340970857414
0.9,-0.003,-0.325,0.013708149339554871,1.0728882537684763,0.06596409395042725,0.047552340970857414
0.901,-0.0085,-0.325,0.013633129620250563,1.0489477416165478,0.06547996363004084,0.04444858832197539
0.902,0.0096,-1.324999999999778,0.013615295497083684,1.048947741616548,0.06536487335987375,0.044448588321975416
0.903,-0.0023,-0.325,0.013592491034563786,1.0555067995965661,0.06521770763000458,0.045298933270757645
0.904,0.0042,-1.325,0.013527426143786063,1.0620253496723675,0.06479781954310904,0.04614402659776105
0.905,-0.0056,-1.325,0.013553944142087949,1.0620253496723675,0.06496895010895162,0.04614402659776105
0.906,-0.011,0.674999999999778,0.013399825766072087,1.069250561637763,0.06397436655878751,0.04708073466123178
0.907,-0.0063,-0.325,0.013433001265636863,1.06709684835943,0.06418846047145764,0.046801517857090864
0.908,-0.002,-1.324999999999778,0.013360276982420406,1.069250561637763,0.06371914345907802,0.04708073466123178
0.909,-0.0032,-0.325,0.01332083826944687,1.069250561637763,0.06346463068664207,0.04708073466123178
0.91,-0.0044,-0.32500000000022206,0.012701764612145346,1.0742879520848148,0.05946951672418593,0.0477338039792259
0.911,0.0032,-1.325,0.01273218992142205,1.0678442604811134,0.059665862629830244,0.04689841563178171
0.912,-0.0033,0.674999999999556,0.012835313665501981,1.0656877051267941,0.060331358738371366,0.04661883036848608
0.913,0.0011,-1.325,0.012771208944012387,1.072888253768476,0.05991766698317898,0.047552340970857386
0.914,0.0004,-1.324999999999778,0.0125176057485633,1.0707418574475955,0.05828107066687235,0.04727407276906593
0.915,-0.0046,-0.325,0.012463016200448337,1.0707418574475953,0.05792878388596022,0.0472740727690659
0.916,-0.0053,0.674999999999556,0.012470212839624956,1.0707418574475953,0.0579752264914857,0.0472740727690659
0.917,-0.0082,-1.325,0.012451589892420583,1.0842925273460169,0.057855045644633674,0.04903084085006804
0.918,-0.0057,-1.325,0.013122239704876063,1.0842925273460169,0.062182999835639574,0.04903084085006804
0.919,-0.0011,-1.325,0.013229586511881056,1.1053899970174708,0.06287574894946893,0.05176600904371124
0.92,0.0079,-0.325,0.013295442867651715,1.1260922724866531,0.06330074465612309,0.05444994253342082
0.921,0.0042,-0.325,0.013251961643836671,1.1199466803388567,0.06302014404855508,0.05365320110255151
0.922,0.0053,-0.32500000000022206,0.013356416942147835,1.1403847278221049,0.06369423317480617,0.05630287892111891
0.923,-0.0024,-1.325,0.013207772490331933,1.1336129882962436,0.06273497490579844,0.05542496100701789
0.924,-0.005,-0.32499999999977797,0.013014055278053964,1.1336129882962436,0.061484845247700495,0.05542496100701789
0.925,-0.0007,0.675,0.012939874249701219,1.1336129882962436,0.06100612731385525,0.05542496100701789
0.926,0.0047,-0.325,0.012858037184700924,1.144412288914263,0.06047800211070214,0.05682502954717863
0.927,-0.0066,-0.325,0.01281763119040853,1.1444122889142627,0.06021724710996748,0.0568250295471786
0.928,0.0014,0.675,0.011659480574611645,1.1336129882962434,0.05274326781650882,0.05542496100701786
0.929,0.0089,0.675,0.011391100964830486,1.1403847278221046,0.05101131376931374,0.056302878921118876
0.93,0.0078,-0.325,0.011393169207305006,1.1471164926309152,0.05102466091191987,0.057175614338156044
0.931,0.0114,-3.325,0.011174719008468025,1.1410841372632097,0.04961492003669172,0.05639355341846074
0.932,0.0059,0.675,0.011298447695286977,1.1478118001352313,0.05041338755091515,0.057265757042481394
0.933,0.0012,0.675,0.011309800950843064,1.1525058650443363,0.05048665435730644,0.05787431613692353
0.934,-0.0072,0.675,0.01130239615901925,1.1571808887954849,0.05043886846485973,0.05848040665241173
0.935,-0.0127,-1.325,0.011351422731428635,1.1571808887954849,0.050755255281927446,0.05848040665241173
0.936,-0.0019,-1.325,0.011230458468278073,1.1571808887954849,0.049974627628059036,0.05848040665241173
0.937,-0.0063,0.675,0.011059694908852814,1.182147168727177,0.04887262648087361,0.061717144320301495
0.9380000000000001,0.008499999999999789,-1.325,0.011042233571282202,1.182147168727177,0.0487599419356523,0.061717144320301495
0.9390000000000001,0.006599999999999401,-3.325,0.011103557361043633,1.1912462421319567,0.04915568729780278,0.06289678797216808
0.9400000000000001,0.001200000000000888,-0.325,0.011163959656329766,1.185438471638819,0.049545485911289086,0.06214384321736162
0.9410000000000001,0.009200000000000477,-0.325,0.011058443358506548,1.1957698147325102,0.048864549758170076,0.06348324369843987
0.9420000000000001,0.013499999999999878,-0.325,0.010890546587118894,1.2002763391225104,0.04778104906691805,0.06406748922017103
0.9430000000000001,0.012399999999999878,1.675,0.010934815354171934,1.2066740282583746,0.048066731985692564,0.06489691360658971
0.9440000000000001,0.011299999999998157,-0.325,0.010923724914789709,1.2066740282583746,0.047995161230414696,0.06489691360658971
0.9450000000000001,-0.005299999999999767,-0.325,0.010887212627088841,1.2066740282583746,0.04775953377530574,0.06489691360658971
0.9460000000000001,-0.0032000000000012435,-0.325,0.010925652323383803,1.2437282866065267,0.04800759951929165,0.06970078963775356
0.9470000000000001,-0.014399999999999344,-1.325,0.011069028375126985,1.248061653660235,0.04893285883124139,0.07026258628546819
0.9480000000000001,-0.0084999999999994,-1.325,0.011154603393748512,1.2523800268964027,0.04948510644782152,0.07082243906913295
0.9490000000000001,-0.003099999999999467,-0.325,0.011127994956543144,1.258512873190017,0.04931339224589331,0.0716175280717489
0.9500000000000001,0.0016999999999998334,-0.325,0.011436739365122347,1.2566835608859332,0.05130583544388303,0.0713803680279954
0.9510000000000001,0.00019999999999987787,0.675,0.01205814388537507,1.2585128731900173,0.05531599133715156,0.07161752807174893
0.9520000000000001,-0.0009000000000009659,1.675,0.012337022511218343,1.270061735331428,0.057115699463634456,0.07311477304443385
0.9530000000000001,-0.009599999999999878,1.675,0.01230170898933904,1.2658036858538415,0.056887808092939626,0.07256274089653073
0.9540000000000001,-0.00849999999999879,0.675,0.01233721093977245,1.2676198369011165,0.05711691546360241,0.07279819465741842
0.9550000000000001,0.0024000000000008546,-1.325,0.012431745216556267,1.261531264253588,0.05772698052557898,0.07200884548381879
0.9560000000000001,0.010100000000002253,-0.325,0.012419312755596877,1.2970192639745837,0.05764674920289106,0.0766096648998183
0.9570000000000001,0.030399999999999677,0.675,0.012375195962576637,1.2970192639745848,0.05736204702941754,0.07660966489981844
0.9580000000000001,0.027499999999997315,1.675,0.01235949117086925,1.3029420138045786,0.05726069813193555,0.07737751607847537
0.9590000000000001,0.0032999999999974686,-1.325,0.012408334311063692,1.297019263974587,0.05757590119228154,0.07660966489981873
0.96,-0.0195,-1.325,0.012404272723978352,1.3029420138045809,0.05754969025100986,0.07737751607847566
0.961,-0.0166,-0.325,0.012397756759698949,1.3088379622982718,0.057507640295298645,0.07814189261473498
0.962,-0.0245,-1.325,0.012393562868161928,1.3141004721501401,0.05748057554389311,0.07882414739645603
0.963,-0.0176,-0.325,0.012398822115395707,1.318202522883772,0.05751451543425651,0.07935595518526027
0.964,-0.011,-1.325,0.012403463563276282,1.318202522883772,0.057544468434218614,0.07935595518526027
0.965,-0.0091,-0.325,0.012403390894673046,1.3182025228837742,0.05754399947652999,0.07935595518526056
0.966,0.0076,1.675,0.01241032211379712,1.3182025228837742,0.057588729227138556,0.07935595518526056
0.967,0.0414,0.675,0.012420430007486912,1.3182025228837766,0.057653959247403234,0.07935595518526088
0.968,0.0175,-2.325,0.01240269343111915,1.3123486469384562,0.057539498483232004,0.07859703311808817
0.969,0.0132,-2.325,0.012389795768266704,1.325766906864534,0.05745626503865375,0.08033663499145897
0.97,0.0013,-1.325,0.012398722865741266,1.3216883334981964,0.057513874939098056,0.07980787091117968
0.971,-0.0167,-2.325,0.01245950334413371,1.3234277957974447,0.057906114109682154,0.08003338240753619
0.972,-0.0004,-0.325,0.012464589134453532,1.3234277957974447,0.057938934617673736,0.08003338240753619
0.973,-0.0033,0.675,0.012500598936548628,1.3251649748138248,0.05817131934514298,0.0802585978891205
0.974,0.0211,1.675,0.012506898922717129,1.3251649748138226,0.058211975513287446,0.08025859788912021
0.975,0.0179,1.675,0.012630646331120475,1.3251649748138232,0.05901056384490043,0.0802585978891203
0.976,0.003,0.675,0.012642986947055146,1.3234277957974416,0.05909020245727624,0.08003338240753578
0.977,-0.0103,0.675,0.012641216934855468,1.3344149617931302,0.0590787799062288,0.08145780663649188
0.978,0.0016,-1.325,0.012708544669067122,1.345312398599457,0.059513270968539506,0.08287059798109714
0.979,-0.0096,-1.325,0.012719751769204517,1.3493195656542367,0.059585594579323914,0.08339010463500067
0.98,-0.0078,-1.325,0.012701082129871514,1.3493195656542367,0.059465112410694056,0.08339010463500067
0.981,-0.0168,-1.325,0.012677697963039941,1.3510234528095288,0.05931420563198143,0.08361100401418158
0.982,-0.0055,-1.325,0.012628070478675379,1.3111321860870906,0.058993940905211005,0.07843932581568265
0.983,-0.0041,-1.325,0.01261491042830557,1.3286325188107446,0.05890901417580013,0.08070814545089595
0.984,0.0108,0.675,0.012622974118331902,1.332689840312926,0.058961052184901566,0.08123415434660568
0.985,0.005,-0.325,0.012677623254416391,1.3309624828255862,0.059313723509278354,0.08101021217097995
0.986,0.0032,2.675,0.012637431102649805,1.3251649748138123,0.05905434851438071,0.08025859788911889
0.987,-0.0047,-1.325,0.012668231442850165,1.3193419913947009,0.059253114634908635,0.07950368086408743
0.988,-0.0153,-2.325,0.012655947639946305,1.3234277957974296,0.05917384265827958,0.08003338240753423
0.989,-0.0141,-1.325,0.012632403882144807,1.3175971351188065,0.0590219059793205,0.07927747006901932
0.99,0.0047,1.675,0.012630120430889638,1.2766618384777606,0.05900717001392362,0.07397043926800184
0.991,0.0022,-1.325,0.012655312315436365,1.2766618384777606,0.05916974267148412,0.07397043926800184
0.992,-0.0145,-1.325,0.012638754842246249,1.282678591869909,0.05906289110132822,0.07475047747938347
0.993,-0.0123,-2.325,0.012566679788194483,1.2886672535054693,0.05859776380768415,0.07552687375264076
0.994,-0.0065,0.675,0.01255493061751571,1.2833004523123914,0.058521942012858236,0.07483109818554635
0.995,-0.0155,-3.325,0.012509293821028259,1.2850918763610761,0.05822743068823894,0.07506334623024528
0.996,-0.0297,-1.325,0.012499651200380343,1.2964039842029575,0.058165203249014544,0.07652989734059194
0.997,-0.0149,-1.325,0.012501170999227453,1.2964039842029575,0.05817501107967024,0.07652989734059194
0.998,-0.0011,-1.325,0.012418559368293865,1.2904512273004924,0.05764188731271386,0.07575815591388699
0.999,0.0264,-0.325,0.012426942022460325,1.2904512273004922,0.057695983716765105,0.07575815591388695
1.0,0.0383,0.675,0.012493336112414198,1.3187371267214236,0.058124449623318926,0.07942526356373956
1.0010000000000001,0.027399999999993385,1.675,0.01251244913638086,1.346428924505711,0.05824779311890039,0.08301534928036297
1.002,-0.0024,0.675,0.012555785587403636,1.34471921565863,0.0585274594534672,0.08279369515160963
1.0030000000000001,0.009599999999994337,0.675,0.012555536829071985,1.335540598101577,0.05852585412286989,0.08160373904812321
1.004,-0.0159,-0.325,0.012527700822162794,1.3245627692221429,0.05834621795429719,0.08018052532373457
1.0050000000000001,0.0004000000000006439,-3.325,0.012499465486960012,1.3286325188107302,0.05816400477082083,0.08070814545089408
1.006,0.0033,0.675,0.012517690408081114,1.3286325188107302,0.05828161700641966,0.08070814545089408
1.0070000000000001,0.0006999999999973577,-1.325,0.012482687185511047,1.3286325188107304,0.05805572811327859,0.08070814545089411
1.008,-0.0112,-0.325,0.012106569776813084,1.3268998795151437,0.05562850173514151,0.08048351851855835
1.0090000000000001,3.7747582837251096e-16,-1.325,0.01179063222501425,1.3175971351187963,0.053589638492344924,0.07927747006901799
1.01,0.0017,-1.325,0.011788136865215263,1.3175971351187963,0.05357353500182049,0.07927747006901799
1.0110000000000001,-0.00010000000000106582,1.675,0.011660367103783601,1.313493193755242,0.05274898892098684,0.07874541717068592
1.012,-0.0049,-1.325,0.011566471909476598,1.3245627692221429,0.052143048097372156,0.08018052532373457
1.0130000000000001,-0.0035999999999992006,-1.325,0.011372093188437231,1.3204804766362574,0.050888649475706184,0.07965127906757488
1.014,0.0,-1.325,0.011243984698887492,1.3204804766362574,0.050061917455577525,0.07965127906757488
1.0150000000000001,-0.006200000000000244,-0.325,0.011192410413178495,1.3146367441090185,0.049729089291255614,0.07889367203746318
1.016,-0.0073,0.675,0.011380705713385744,1.3146367441090185,0.050944229321929636,0.07889367203746318
1.0170000000000001,-0.004799999999999045,-0.325,0.011518406613287102,1.3052466009063262,0.05183286475545244,0.07767629282461329
1.018,-0.0005,-2.325,0.01127948769575383,1.3052466009063262,0.05029103157926356,0.07767629282461329
1.0190000000000001,0.004800000000002176,0.675,0.011151692947533955,1.2916151783567584,0.04946632424933574,0.07590905561691458
1.02,0.0146,0.675,0.011314957405796047,1.2736063003588236,0.05051993089061789,0.07357430594928974
1.0210000000000001,0.0054999999999963585,-0.325,0.01138056984483638,1.2736063003588236,0.05094335251133978,0.07357430594928974
1.022,-0.0109,0.675,0.01129267560159014,1.2535051527144898,0.050376138070423036,0.07096830529856248
1.0230000000000001,0.004600000000003042,-1.324999999999778,0.011307883771958295,1.2553390966849634,0.05047428208457164,0.07120606581179359
1.024,0.0183,-0.325,0.011334123311352775,1.2535051527144898,0.050643615650887874,0.07096830529856248
1.025,0.0056,-0.3249999999995559,0.011136357147518856,1.2479871507870772,0.049367356593317514,0.07025292740731033
1.026,0.0042,1.675,0.01099695669246263,1.2479871507870772,0.04846775329442183,0.07025292740731033
1.027,0.0146,1.674999999999334,0.011033549871308203,1.2461423870271022,0.04870390277035632,0.07001376416927063
1.028,0.0055,-1.325,0.011141531185782545,1.2461423870271022,0.04940074659831248,0.07001376416927063
1.029,-0.0057,0.675,0.011318002141398597,1.2461423870271022,0.05053957970877429,0.07001376416927063
1.03,-0.0014,0.675,0.011385841278134681,1.239948357202689,0.05097737104293745,0.06921074306626435
1.031,0.0022,-0.3250000000004441,0.011368679108597573,1.245501974258482,0.05086661714098238,0.06993073825844764
1.032,-0.0014,-2.325,0.01124556528590172,1.2411596704090344,0.05007211757502202,0.06936778300546705
1.033,-0.0047,-1.324999999999778,0.01133361268933606,1.2349406492758694,0.05064032041594377,0.06856152191994724
1.034,-0.0138,-0.325,0.011458028623773337,1.2711712109963078,0.051443222996210236,0.07325861031958851
1.035,-0.0077,-0.325,0.011429949636698243,1.2693601411269289,0.05126201878570593,0.0730238153048151
1.036,0.009,-0.325,0.011421689102352929,1.2693601411269289,0.0512087104665567,0.0730238153048151
1.037,-0.0029,-1.324999999999778,0.011430017352911596,1.239948357202689,0.05126245578376951,0.06921074306626435
1.038,0.0036,-0.325,0.011424200085681197,1.239948357202689,0.05122491478156178,0.06921074306626435
1.039,-0.0062,-0.325,0.011328599793996577,1.2255908812950962,0.050607970326536966,0.06734937712736311
1.04,-0.0081,-0.325,0.01124239098306915,1.2192924538836996,0.05005163261104739,0.0665328214648169
1.041,-0.0066,-1.325,0.011258644321267424,1.2136189058949287,0.050156521484296314,0.06579727790221652
1.042,0.0011,-1.325,0.011437577157464388,1.2072580206938561,0.051311242031360706,0.06497262493878887
1.043,-0.0112,-1.3249999999995559,0.01141182220199753,1.2008634428250742,0.05114503566645643,0.06414360391063532
1.044,0.0037,0.675,0.011353858250293784,1.1795232799236208,0.05077097259651388,0.06137697190574631
1.045,0.0019,1.674999999999556,0.011442569432088065,1.1899059827002383,0.051343459047572315,0.06272303088063275
1.046,0.0037,-0.325,0.011385733560094294,1.1464207634206527,0.0509766758981157,0.05708541696202836
1.047,-0.0009,-0.32500000000022206,0.011210719201826142,1.1417016801117874,0.049847242755385726,0.05647361437287591
1.048,0.0096,-1.325,0.011256855484908571,1.1369630099251973,0.05014497745390589,0.05585927245527317
1.049,0.0132,2.675,0.01147755212694033,1.143017115046968,0.05156921546766912,0.0566441531081623
1.05,0.0071,2.675,0.011172063047112296,1.1450280368071064,0.04959778012422594,0.05690485779568594
1.051,0.0104,-0.32499999999977797,0.010494676212320107,1.1450280368071064,0.04522634940714707,0.05690485779568594
1.052,-0.0004,0.675,0.010132221342101462,1.132204506927194,0.042887292502218136,0.055242359325301714
1.053,-0.0047,-0.325,0.01012973445077376,1.1369630099251973,0.042871243661907726,0.05585927245527317
1.054,-0.0011,-1.325,0.01018303788734381,1.1349377983634703,0.04321523068376898,0.05559671517540519
1.055,-0.0072,-1.325,0.010130754466967823,1.1369630099251973,0.042877826208089054,0.05585927245527317
1.056,-0.0039,-0.325,0.010178677078765576,1.0963060911562292,0.043187088754237615,0.050588331778492326
1.057,0.0009,-0.325,0.01018043321392159,1.0942056322840819,0.043198421751529624,0.05031601910836551
1.058,0.0016,0.675,0.01019383049845132,1.0871462852377551,0.043284879441745396,0.049400814498064424
1.059,-0.0023,-1.325,0.010149706635082951,1.0942056322840819,0.043000131640669736,0.05031601910836551
1.06,0.0089,0.675,0.010150852418700475,1.0871462852377551,0.04300752581109572,0.049400814498064424
1.061,0.0075,1.675,0.010149475164656493,1.0800407979749163,0.04299863787539362,0.04847962806839745
1.062,-0.0124,0.675,0.010154436239995408,1.073631634192177,0.043030653550946166,0.04764871605859764
1.063,-0.0044,-0.325,0.01014485062030885,1.073631634192177,0.042968793960254666,0.04764871605859764
1.064,-0.0022,-0.325,0.010141695369621813,1.0736316341921768,0.04294843194690431,0.047648716058597614
1.065,0.0225,-0.325,0.010147992947131545,1.0664361048474527,0.04298907257107243,0.046715856179825266
1.066,0.0193,0.675,0.010138632694432718,1.0664361048474529,0.042928667357883095,0.0467158561798253
1.067,0.0342,0.675,0.01011565314547166,1.0779086443230013,0.042780371729693324,0.04820320634847107
1.068,0.0045,-1.325,0.010167086358352574,1.080040797974916,0.043112289498267405,0.04847962806839742
1.069,-0.0233,0.675,0.010469227808249396,1.0635267768487715,0.04506212133311095,0.046338678180245764
1.07,-0.0123,-1.325,0.011119404010022066,1.061361448937304,0.04925795165333656,0.04605795560429309
1.071,-0.0089,-0.325,0.011604337748285645,1.0664361048474529,0.05238741052426905,0.0467158561798253
1.072,-0.0059,0.675,0.011669234220879383,1.0664361048474529,0.052806211745602745,0.0467158561798253
1.073,-0.0084,-0.325,0.011838616995947097,1.071486727007909,0.05389930217465164,0.04737064091498624
1.074,-0.0014,-1.325,0.013089205349747744,1.0642766961360048,0.061969816780832895,0.04643590099483833
1.075,-0.0036,1.675,0.014299696804529189,1.0642766961360048,0.06978157109373812,0.04643590099483833
1.076,-0.0095,-0.325,0.015086915370748315,1.077908644323005,0.0748617870717779,0.048203206348471556
1.077,-0.0186,0.675,0.015105075114290585,1.0664361048474567,0.07497897869207165,0.046715856179825786
1.078,-0.02,-1.325,0.015038005824688517,1.0664361048474673,0.0745461554695343,0.04671585617982717
1.079,-0.0157,-0.325,0.015065716400658442,1.059191694409601,0.07472498218532077,0.04577665914246115
1.08,0.0046,1.675,0.01505682118690233,1.0642766961360168,0.07466757804244223,0.046435900994839886
1.081,0.0017,0.675,0.015057124966100031,1.0757722648043304,0.07466953844327649,0.047926236768705506
1.082,0.0151,-0.325,0.015107073302742888,1.0779086443230146,0.07499187374985883,0.04820320634847279
1.083,0.0173,-3.325,0.015188586745110226,1.0562624128777887,0.07551791049506473,0.045396894279621694
1.084,-0.0073,-0.325,0.015181643282881041,1.0562624128777913,0.07547310173511763,0.045396894279622034
1.085,0.0025,-0.325,0.015122789505733194,1.0584381723286707,0.07509329628861948,0.04567896924594446
1.086,0.0054,-0.325,0.015181355698850811,1.0584381723286709,0.07547124584775915,0.04567896924594449
1.087,0.0029,-1.325,0.015162505841401115,1.0584381723286709,0.07534960066418626,0.04567896924594449
1.088,-0.004,-1.325,0.015177954486251555,1.053324985087959,0.07544929655015246,0.04501607330028231
1.089,-0.0019,-0.325,0.015201336015096573,1.060609468384337,0.07560018630495074,0.0459604655582002
1.09,-0.0077,-1.325,0.015204795667319701,1.0842925273460202,0.07562251273531788,0.04903084085006848
1.091,-0.0203,-0.325,0.015236985587747998,1.0842925273460202,0.0758302463370253,0.04903084085006848
1.092,-0.0123,-0.325,0.015227473479126109,1.08429252734602,0.0757688611407413,0.049030840850068445
1.093,0.0043,-0.325,0.015232918936413205,1.0771682155738085,0.07580400271425691,0.04810721392871699
1.094,0.0156,1.675,0.01526307448775105,1.083556460916829,0.07599860777098073,0.04893541398054883
1.095,-0.0105,0.675,0.015655363377663784,1.094849616969676,0.07853019476862204,0.05039950809811927
1.096,0.022,0.675,0.015683433152600974,1.081431238780615,0.07871133952975333,0.04865989089261835
1.097,0.018,0.675,0.01593547488326722,1.083556460916836,0.08033785912952997,0.04893541398054975
1.098,0.0224,1.675,0.015973671820495926,1.0835564609168356,0.08058435825842303,0.04893541398054969
1.099,0.0025,0.675,0.01595583551337269,1.0835564609168329,0.08046925389436833,0.04893541398054934
1.1,-0.0011,0.675,0.015921677134229224,1.0489477416165607,0.08024881709199207,0.04444858832197705
1.101,0.0021,-0.325,0.015954965964846246,1.0274678996729931,0.08046364237234983,0.04166384771547567
1.102,-0.0008,-1.325,0.015938405473364746,1.0297045035554988,0.0803567713240302,0.04195381081988936
1.103,-0.0142,-0.325,0.01594283055978261,1.0274678996729931,0.0803853280625129,0.04166384771547567
1.104,-0.0121,0.675,0.015936079308363316,1.0297045035554981,0.0803417597108456,0.041953810819889276
1.105,-0.0099,-1.325,0.01595591221711419,1.0221998065087454,0.0804697488923141,0.04098086908873088
1.106,0.0038,-0.325,0.01594900370190481,1.0169044222514734,0.08042516565856266,0.04029435232538618
1.107,-0.0053,-0.325,0.01594497836813076,1.01916420844663,0.08039918867347441,0.040587320886151045
1.108,0.0059,-1.325,0.01597434174256856,1.021418995105676,0.08058868151623663,0.04087964128519959
1.109,0.0015,-0.325,0.015978094656291807,1.0266910947284011,0.0806129004727999,0.041563139326735214
1.11,0.0004,-0.325,0.015977251438670015,1.0266910947284011,0.0806074588739619,0.041563139326735214
1.111,-0.0032,-1.325,0.01603714729584137,1.0319362598661395,0.08099398925278886,0.0422431454638958
1.112,-0.0021,-1.325,0.016055007675890264,1.025226416492663,0.08110924896844068,0.04137325203756267
1.113,0.0025,-1.325,0.016031829119542356,1.0304790369077332,0.08095966907111678,0.04205422470946655
1.114,-0.0036,-0.325,0.01602754628130052,1.03270911939923,0.08093203031334201,0.04234334235224224
1.115,-0.0044,-0.325,0.01603975993422098,1.0349343965075144,0.08101084958587866,0.042631837004132055
1.116,0.0025,1.675,0.0158909411252204,1.0349343965075144,0.08005046612471528,0.042631837004132055
1.117,-0.0113,0.675,0.015789302781653275,1.0327091193992286,0.07939455586150705,0.04234334235224207
1.118,-0.025,-1.325,0.015424714402033935,1.0304790369077321,0.07704173062207507,0.0420542247094664
1.119,-0.0378,-0.325,0.015419608279826347,1.030479036907724,0.07700877890480373,0.04205422470946534
1.12,-0.0363,-1.325,0.015243392586418589,1.0423474110344944,0.07587159309688889,0.043592892612646324
1.121,-0.0135,-0.325,0.015200188171963442,1.0349343965075055,0.0755927788436999,0.0426318370041309
1.122,0.0227,-1.325,0.015182741712813478,1.037154899163282,0.07548019031449442,0.042919712675126544
1.123,0.056,-0.325,0.015179692649503918,1.0423474110344855,0.07546051356802529,0.04359289261264517
1.124,0.0604,-0.325,0.01516178414328302,1.0562624128777758,0.07534494327617713,0.04539689427962002
1.125,0.0484,1.675,0.015162794020980612,1.0627763284014595,0.075351460394847,0.04624138676302742
1.1260000000000001,0.008499999999998868,0.675,0.01515889309742641,1.056262412877765,0.07532628627546063,0.04539689427961861
1.127,0.0034,1.675,0.0151617766074168,1.0562624128777645,0.07534489464441256,0.04539689427961855
1.1280000000000001,-0.010699999999997113,-0.325,0.01505770836916839,1.0562624128777645,0.07467330336158087,0.04539689427961855
1.129,0.0023,-1.325,0.014939332632861714,1.0511386418672084,0.07390938044003992,0.04473262620776792
1.1300000000000001,-0.001700000000002398,1.675,0.014858322604421622,1.0511386418672086,0.07338659241327956,0.044732626207767946
1.131,-0.0125,0.675,0.014861396524077431,1.0445521552676584,0.07340642956705205,0.04387872529284816
1.1320000000000001,-0.01579999999999669,0.675,0.014864693778983855,1.0445521552676584,0.07342770798676684,0.04387872529284816
1.133,-0.0009,-1.325,0.014794927796697355,1.0467522557216455,0.07297748199725829,0.04416395593321769
1.1340000000000001,-0.0034000000000026643,0.675,0.01469336680211835,0.9970429298653724,0.07232207089601368,0.03771942162996472
1.135,-0.0154,-0.325,0.014758297035258295,0.9970429298653722,0.07274108998678494,0.03771942162996471
1.1360000000000001,0.004900000000000555,-0.325,0.014756136507713092,1.0047355493912231,0.07272714729408544,0.03871672645279733
1.137,0.0074,0.675,0.014747227414124637,1.0047355493912231,0.07266965357945508,0.03871672645279733
1.1380000000000001,-0.00919999999999951,-1.325,0.014815205022112267,0.9970429298653722,0.07310833852041919,0.03771942162996471
1.139,-0.007,-2.325,0.014813274628054013,1.0039411553206965,0.07309588096522489,0.03861373773288163
1.1400000000000001,-0.012799999999998002,-0.325,0.014906217823486605,1.0039411553206965,0.07369567818387343,0.03861373773288163
1.141,-0.0038,-1.325,0.01489016129820267,0.9985489486824074,0.0735920594180064,0.03791466849281273
