time_sec,bts_raw,diy_raw,bts_rms,diy_rms,bts_norm_rms,diy_norm_rms
0.0,0.0331,-1.051,0.016062097856837026,0.678874225670322,0.038882242983788375,0.0
0.001000000000000112,0.0078,-1.051,0.016179476000519635,0.6788765583023908,0.039238189696429594,1.7107114122251375e-07
0.0020000000000000018,-0.002,-0.051,0.01628550980885076,0.7082290633502646,0.03955973495451741,0.0021528322659202822
0.0030000000000001137,0.0067,-1.051,0.016504414907467443,0.708231299299186,0.04022355998862002,0.002152996246489194
0.0040000000000000036,-0.0067,-0.051,0.01679118116593147,0.7155072810630723,0.04109317253993705,0.002686603976783155
0.0050000000000001155,-0.0136,-0.051,0.017242731003110613,0.7227100145988898,0.04246248777269623,0.003214839810610612
0.006000000000000005,-0.02,1.949,0.017311759759046162,0.7298416685479013,0.04267181600009954,0.0037378627923149266
0.007000000000000117,-0.0181,-0.051,0.017233957142930384,0.7364211427353017,0.042435881229175056,0.004220389879599873
0.008000000000000007,-0.0163,1.949,0.017230932610059143,0.7429423515901827,0.04242670939786969,0.004698643889676907
0.009000000000000119,-0.021,1.9489999999999983,0.017160767902081913,0.7494068161587094,0.042213936420172425,0.005172736373401718
0.010000000000000009,-0.0043,0.949,0.017419231841632174,0.775178615294359,0.042997722794132984,0.007062794882154863
0.01100000000000012,-0.0065,0.949,0.01776954015186328,0.8305644263390943,0.044060025259699535,0.011124693039838804
0.01200000000000001,0.0072,-1.051,0.018188314634464475,0.8538902598135986,0.04532994993002814,0.012835368720655386
0.013000000000000123,0.0125,-0.05100000000000173,0.018361754847288136,0.8595206885952879,0.04585590366943391,0.013248294483841232
0.014000000000000012,-0.0122,-1.051,0.018349389867197873,0.8651144736057194,0.04581840713151877,0.013658532857167564
0.015000000000000124,0.0131,-0.051,0.01835157505171554,0.8651163040742678,0.045825033656876686,0.013658667100517696
0.016000000000000014,0.0099,-0.051,0.01830275096704131,0.8651181345389433,0.045676975663350224,0.013658801343583797
0.017000000000000126,-0.005,0.949,0.018305886529305246,0.8706759586820599,0.04568648418891651,0.01406640241002702
0.018000000000000016,0.0138,-1.051,0.01837376276402039,0.8761985296413748,0.04589231742034543,0.01447141806985371
0.019000000000000128,0.0206,-1.051,0.01836507207188915,0.8762003369542419,0.045865963082155715,0.014471550615006826
0.020000000000000018,0.005,0.949,0.018361463880338033,0.8983419950014989,0.04585502131837495,0.01609538094869244
0.02100000000000013,0.0068,-0.051,0.01853076338043934,0.9040892853753606,0.046368418434926804,0.016516877135909193
0.02200000000000002,0.0085,-2.051,0.01854512861538177,0.9040910369335327,0.04641198070294072,0.016517005592110844
0.02300000000000013,0.0038,-0.051,0.01852774542868052,0.9263345118395644,0.04635926656070424,0.018148302995489533
0.02400000000000002,-0.0005,0.949,0.018545370077996823,0.9319091821482934,0.04641271293316141,0.018557139530146982
0.025000000000000133,0.0005,0.949,0.018712654607287462,0.9374507025543041,0.04691999969378479,0.018963544909130454
0.026000000000000023,-0.0158,0.9489999999999931,0.01930544506346091,0.9589206664167024,0.0487176240856867,0.020538114370391526
0.027000000000000135,-0.0179,-1.051,0.019533792695959222,0.9799203382125237,0.049410083402022104,0.02207819343704125
0.028000000000000025,0.0043,-0.051,0.0198667853757948,1.0004793321223788,0.05041987658840578,0.02358595396110085
0.029000000000000137,0.0072,-0.051,0.020164685406239825,1.0056430728401098,0.05132325206535443,0.02396465364090093
0.030000000000000027,0.0099,-0.051,0.02017300900910994,1.0056446475193503,0.05134849321320356,0.023964769125112237
0.03100000000000014,0.0266,0.949,0.020234509285547857,1.0056462221961253,0.05153499148739501,0.023964884609142725
0.03200000000000003,0.0063,-1.051,0.020953208486314125,1.0104313744812765,0.053714431456920814,0.024315819277872113
0.03300000000000014,-0.0234,-0.051,0.02098069772016071,1.0535212115692927,0.05379779197118465,0.02747595228994166
0.03400000000000003,-0.0115,0.949,0.021269899504584654,1.0720066477083883,0.054674790202934066,0.028831641727020216
0.03500000000000014,-0.0079,0.949,0.02117441256400354,1.0720081249057754,0.05438522809593807,0.028831750062083508
0.03600000000000003,0.0018,0.949,0.02110086899882599,1.072009602101127,0.05416220880597854,0.028831858396997524
0.037000000000000144,-0.0189,0.949,0.020643223520193172,1.0901815887738893,0.05277440867075965,0.03016456000044487
0.038000000000000034,-0.0323,-1.051,0.02034411412040951,1.0901830413442422,0.05186736580713276,0.030164666529404707
0.039000000000000146,-0.0156,0.949,0.020331272988867315,1.0901844939126595,0.05182842535011381,0.030164773058222592
0.040000000000000036,-0.0044,0.949,0.02035312907951622,1.0949252607894564,0.05189470347799682,0.030512452579017493
0.04100000000000015,0.0218,-0.051,0.020265783087936192,1.094926707066678,0.05162982862489498,0.03051255864645012
0.04200000000000004,0.0182,-1.051,0.020190396256634335,1.0993233064784274,0.05140121966979945,0.030834997529510532
0.04300000000000015,0.0346,-1.051,0.019927372407467628,1.1040248312940788,0.05060360546736084,0.031179799106426594
0.04400000000000004,0.014,-1.051,0.019789702664108122,1.1087064192387346,0.05018612491227999,0.03152313854822105
0.04500000000000015,0.0114,-1.051,0.019758083447738783,1.108707847538835,0.050090240314263255,0.031523243297243174
0.04600000000000004,0.0092,-0.051,0.019744668695922257,1.113050012134666,0.050049560366019215,0.03184169002645909
0.04700000000000015,0.0248,-1.051,0.019729684138700045,1.1173753030346443,0.05000412001642523,0.03215889926844127
0.04800000000000004,-0.0053,-1.051,0.019882544534960217,1.156487331760306,0.050467665901841235,0.035027306797866586
0.049000000000000155,-0.0184,-0.051,0.019931076575975964,1.1606507600656,0.05061483827921359,0.03533264532128847
0.050000000000000044,-0.0224,-0.051,0.019716517881325807,1.16510483768119,0.04996419362226773,0.03565929955492123
0.051000000000000156,-0.0188,1.9489999999999863,0.019450299358906614,1.160958746727182,0.04915689164145311,0.035355232522408644
0.052000000000000046,-0.0286,-0.05099999999999306,0.01950283104465505,1.160958746727182,0.04931619285601497,0.035355232522408644
0.05300000000000016,-0.0315,0.949,0.01950274029577134,1.160958746727182,0.0493159176619642,0.035355232522408644
0.05400000000000005,-0.0395,0.949,0.019491222168242547,1.1567977958211133,0.04928098918634661,0.035050075687097115
0.05500000000000016,-0.0174,0.949,0.019491568237923734,1.1567977958211133,0.049282038635260164,0.035050075687097115
0.05600000000000005,0.0032,-1.051,0.019484204730840615,1.160958746727182,0.04925970895737027,0.035355232522408644
0.05700000000000016,0.0007,-1.051,0.019440102278146416,1.1475005120520154,0.04912596921193382,0.03436822921593754
0.05800000000000005,0.0126,-1.051,0.019387528829773164,1.1475005120520156,0.04896654135310457,0.03436822921593756
0.05900000000000016,0.0328,-2.0510000000000073,0.01937556830626324,1.134196409950852,0.04893027132112708,0.033392529721879276
0.06000000000000005,0.0353,-3.051,0.01926797989178649,1.1335686044913438,0.04860401175312069,0.0333464875715296
0.061000000000000165,0.0422,-2.051,0.01926434116060137,1.133568604491344,0.04859297737855237,0.03334648757152962
0.062000000000000055,0.0266,-1.051,0.019325638361008868,1.133254571338664,0.0487788598290208,0.03332345693136634
0.06300000000000017,0.0045,-1.051,0.01931791134466575,1.1332545713386637,0.048755427817067244,0.03332345693136632
0.06400000000000006,-0.0042,-0.051,0.019289370538121728,1.1378145069712444,0.04866887843106789,0.03365787460614185
0.06500000000000017,-0.0068,-0.051,0.01929194077339937,1.1335686044913438,0.04867667261462786,0.0333464875715296
0.06600000000000006,-0.0046,-1.051,0.01933225533922028,1.138127281942881,0.04879892567405869,0.03368081297351601
0.06700000000000017,0.0158,-1.051,0.019588469161608627,1.1426677726780112,0.0495758886158051,0.03401380459364612
0.06800000000000006,-0.003,-0.051,0.019677916398881015,1.1423562408848007,0.04984713545157068,0.03399095739879544
0.06900000000000017,0.0028,-2.051,0.019679263847893085,1.142667772678011,0.049851221561908174,0.034013804593646106
0.07000000000000006,0.025,0.949,0.01958090268016662,1.138439970982732,0.04955294342250893,0.03370374503880387
0.07100000000000017,-0.0076,-0.05099999999997224,0.01957923862419297,1.138439970982732,0.04954789720832554,0.03370374503880387
0.07200000000000006,-0.0206,1.9489999999999863,0.01963773638793489,1.1429792195597435,0.04972529042692253,0.03403664556123803
0.07300000000000018,-0.0087,0.949,0.01981395629770281,1.1302518669695316,0.05025967353791661,0.03310324386388599
0.07400000000000007,-0.0269,0.949,0.019858343032149332,1.1475005120520156,0.05039427536169259,0.03436822921593756
0.07500000000000018,-0.0497,1.949,0.019868901169751985,1.1429792195597437,0.05042629268837174,0.03403664556123805
0.07600000000000007,-0.0348,1.949,0.019906901411202882,1.138439970982732,0.05054152760860181,0.03370374503880387
0.07700000000000018,-0.0374,1.949,0.019868793844779332,1.1338825506713321,0.050425967227685435,0.03336951183326835
0.07800000000000007,-0.0352,0.949,0.019788400936351244,1.1341964099508517,0.05018217745067191,0.033392529721879255
0.07900000000000018,-0.005799999999993805,-0.051,0.019787169392452203,1.134196409950852,0.05017844282011307,0.033392529721879276
0.08000000000000007,0.0221,-0.051,0.01977648588099893,1.138439970982732,0.050146045299910846,0.03370374503880387
0.08100000000000018,0.05469999999999325,-1.051,0.019758789660461018,1.1429792195597437,0.05009238188925344,0.03403664556123805
0.08200000000000007,0.0243,-3.051,0.01958199516987847,1.1429792195597437,0.04955625637421635,0.03403664556123805
0.08300000000000018,0.03629999999999436,-2.051,0.019593432647689035,1.1564900703370142,0.049590940281286695,0.03502750764027507
0.08400000000000007,0.0109,-0.051,0.019473625416001557,1.1564900703370142,0.04922762741117423,0.03502750764027507
0.08500000000000019,0.020699999999999354,-0.051,0.019441974490408458,1.1695405985267673,0.04913164665561399,0.035984610468794524
0.08600000000000008,0.0178,-2.0509999999999726,0.019478464540202894,1.1692362267625285,0.04924230195191485,0.03596228837789991
0.08700000000000019,0.02579999999999405,-0.051,0.01948281547519101,1.1692362267625285,0.049255496069297744,0.03596228837789991
0.08800000000000008,-0.001,-0.051,0.019416714990850105,1.1692362267625285,0.049055047762935386,0.03596228837789991
0.08900000000000019,-0.019099999999997824,0.949,0.019153571868898055,1.16510483768119,0.04825707186832379,0.03565929955492123
0.09000000000000008,-0.0093,-0.051,0.019090234783974997,1.1647993068162592,0.048065003511649135,0.035636892457616545
0.09100000000000019,-0.017899999999999423,-1.051,0.019118036124535873,1.160345421133466,0.04814931048285513,0.03531025229999819
0.09200000000000008,-0.0153,0.949,0.01900579790246462,1.1647993068162588,0.047808950472673126,0.03563689245761651
0.0930000000000002,0.01159999999999758,0.949,0.019022833936033788,1.1647993068162583,0.04786061188045436,0.035636892457616476
0.09400000000000008,0.0007,-0.051,0.018775497626904135,1.1651048376811894,0.04711056980797477,0.035659299554921184
0.0950000000000002,-0.0024999999999966915,-1.051,0.01872319707097051,1.1995386605045533,0.04695196948963765,0.038184615675601725
0.09600000000000009,0.0124,-1.051,0.0192154684032141,1.2124193929856817,0.04844477178606363,0.039129265984910296
0.0970000000000002,0.025899999999997356,-3.051,0.019577615026302023,1.229094236466937,0.04954297368241345,0.04035216973477996
0.09800000000000009,0.014,-1.051,0.019694813757492654,1.2416684052350506,0.04989837633050633,0.04127433719951843
0.0990000000000002,-0.0015000000000012878,0.949,0.019697756130097617,1.2419550258312206,0.04990729901255977,0.04129535745090731
0.10000000000000009,-0.0073,-0.051,0.01962719585057221,1.246117255719407,0.04969332647259503,0.04160060808452221
0.1010000000000002,-0.016299999999995957,-1.051,0.01950197939697482,1.2499809143292662,0.04931361025262225,0.04188396202469709
0.10200000000000009,0.0019,-0.051,0.01941128748289926,1.2335884356457605,0.049038588961046674,0.0406817664134308
0.1030000000000002,-0.0002000000000014655,-0.051,0.019464431151824023,1.237491211986864,0.04919974600151421,0.0409679891793478
0.10400000000000009,-0.0068,-0.051000000000013875,0.01923501578823463,1.237491211986864,0.048504048813459835,0.0409679891793478
0.1050000000000002,-0.012499999999993872,-1.051,0.018825932231770925,1.2372035572678588,0.0472635116695724,0.04094689308720549
0.1060000000000001,0.0151,-1.051,0.01889467706196259,1.2369158356524383,0.04747197889822416,0.04092579208899752
0.1070000000000002,0.011100000000000823,-0.051,0.01931087312671095,1.2957210340366705,0.04873408457150836,0.04523846211176242
0.1080000000000001,0.0148,0.949,0.019474536817682152,1.3259642304438624,0.04923039121729627,0.047456445047312903
0.10900000000000021,0.0049999999999993565,-2.051,0.019509710639019396,1.3259642304438624,0.04933705507892519,0.047456445047312903
0.1100000000000001,0.0021,0.949,0.019291160516290803,1.311065596392895,0.04867430650161827,0.04636380537909983
0.11100000000000021,-0.016699999999997335,-1.051,0.018989613638378307,1.2804705602525706,0.04775987203764848,0.04412001913514141
0.1120000000000001,-0.0047,-1.051,0.018615986018286106,1.265036249797612,0.046626854263203274,0.04298809389978679
0.11300000000000021,-0.006800000000001288,0.949,0.018455914759290315,1.2766991754081183,0.046141441590619545,0.04384343239094397
0.1140000000000001,-0.0126,-0.051,0.01854803572172222,1.2729166167907489,0.04642079644080057,0.04356602618185525
0.11500000000000021,-0.018100000000003332,0.949,0.019129766309819277,1.2882565178075103,0.048184882019082435,0.044691027594738954
0.1160000000000001,-0.0331,0.949,0.019602017431443988,1.2919941667280448,0.04961697345458831,0.04496514020549636
0.11700000000000021,-0.0193999999999988,-1.051,0.019703611500404655,1.2919941667280448,0.0499250552979013,0.04496514020549636
0.1180000000000001,-0.014,0.9489999999999861,0.01971886590160857,1.291994166728045,0.04997131394360391,0.04496514020549637
0.11900000000000022,-0.006199999999997668,-0.05099999999998612,0.01975304637294987,1.2957210340366703,0.05007496549259552,0.045238462111762405
0.1200000000000001,0.0043,0.949,0.019751055221016462,1.2957210340366703,0.05006892736690338,0.045238462111762405
0.121,0.0166,0.949,0.019594441812670255,1.2917186494089263,0.049594000552528925,0.04494493424895573
0.12200000000000011,0.0277,0.949,0.01959522726262228,1.2917186494089263,0.04959638241272535,0.04494493424895573
0.123,0.0138,-2.051,0.01951712908126078,1.275862536326836,0.0493595513465087,0.04378207474936025
0.12400000000000011,-0.0065,-0.051,0.01974889694423482,1.271797657958258,0.05006238243868001,0.0434839637053024
0.125,0.0123,-0.051,0.019953648644327335,1.2717976579582582,0.050683287594180684,0.043483963705302414
0.1260000000000001,-0.0099,-0.051,0.019399490073120244,1.2717976579582575,0.04900281356797284,0.043483963705302366
0.127,-0.0012,0.949,0.01925709105158296,1.2598068716965598,0.048570991577870676,0.0426045804895139
0.1280000000000001,-0.0037,-0.051,0.019031168561723828,1.247700855637935,0.04788588645476937,0.04171674652269335
0.129,0.0031,-1.051,0.01870656223003086,1.2435439261825045,0.04690152468993295,0.041411884613512376
0.13000000000000012,0.0053,0.949,0.018711845998296863,1.2435439261825045,0.04691754760429875,0.041411884613512376
0.131,0.0035,0.949,0.018945723980589427,1.2474155552706407,0.04762677758821553,0.0416958230945727
0.13200000000000012,-0.0092,1.949,0.018281433138039326,1.2592416919388127,0.0456123298024102,0.042563131198198136
0.133,0.0089,-0.051,0.018177040825653745,1.2234203795750809,0.0452957623457026,0.039936059030228246
0.13400000000000012,-0.003,1.949,0.017824141558449975,1.2072569249286207,0.04422560285847869,0.038750659639809726
0.135,-0.0143,-1.051,0.01784338952413976,1.2072569249286207,0.04428397190315225,0.038750659639809726
0.13600000000000012,-0.0045,0.949,0.01773049964881316,1.2112445475517617,0.0439416357683976,0.03904310488311207
0.137,-0.01,0.949,0.017675168729101354,1.1992419023769076,0.04377384593665442,0.03816285195544987
0.13800000000000012,-0.0053,-0.051,0.017496095577243406,1.203551855646786,0.04323081042998895,0.03847893636256421
0.139,-0.001,-1.051,0.017514531239494195,1.203551855646786,0.04328671618184064,0.03847893636256421
0.14000000000000012,0.0112,-0.051,0.017661557838850674,1.203551855646786,0.04373257120279979,0.03847893636256421
0.14100000000000001,-0.0069,0.9489999999999444,0.01766425993650189,1.203551855646786,0.04374076525619006,0.03847893636256421
0.14200000000000013,0.0199,-1.0509999999999444,0.01757372568220115,1.203551855646786,0.04346622206451283,0.03847893636256421
0.14300000000000002,0.0162,0.9490000000000555,0.017508413536103627,1.2032560872907927,0.04326816437702871,0.038457245230527896
0.14400000000000013,-0.0001,2.9489999999999723,0.017482018573535676,1.2032560872907927,0.04318812221703549,0.038457245230527896
0.14500000000000002,-0.0447,1.949,0.017486462714467858,1.2075517133508546,0.0432015989794522,0.03877227890522432
0.14600000000000013,-0.0386,1.949,0.017518653377953802,1.2197644082372414,0.04329921647863965,0.039667936510008744
0.14700000000000002,-0.0328,1.949,0.017523004069103176,1.2197644082372414,0.04331240985658678,0.039667936510008744
0.14800000000000013,-0.0063,0.949,0.017333432278265604,1.1868180438596398,0.04273753745154516,0.03725170798065358
0.14900000000000002,0.0078,0.949,0.017286819723503176,1.1827480704042848,0.04259618587522139,0.03695322327187543
0.15000000000000013,0.0034,-1.051,0.017294619787246317,1.1827480704042848,0.04261983940185468,0.03695322327187543
0.15100000000000002,-0.0006,-0.051,0.017280620496127528,1.1868180438596398,0.042577386850666664,0.03725170798065358
0.15200000000000014,0.032,-1.051,0.017225578272753693,1.1827480704042848,0.042410472484399664,0.03695322327187543
0.15300000000000002,0.0102,0.949,0.017288811261077668,1.1827480704042848,0.04260222517036188,0.03695322327187543
0.15400000000000014,-0.0017,-1.051,0.017290748193918883,1.1998353452343087,0.04260809887781547,0.03820637401288116
0.15500000000000003,0.0237,-1.051,0.01728584103132092,1.1998353452343087,0.0425932180120909,0.03820637401288116
0.15600000000000014,0.04,-4.051,0.017278237808867416,1.1958096773683387,0.04257016140246242,0.037911138598254415
0.15700000000000003,0.0252,-3.051,0.01721209160969739,1.1917704113217473,0.04236957446685755,0.037614905916931174
0.15800000000000014,0.0172,-1.051,0.01720362660157683,1.1961072870425307,0.04234390451060793,0.037932964769335185
0.15900000000000003,0.0151,-0.051,0.017158025259742696,1.1958096773683375,0.042205619415882134,0.03791113859825434
0.16000000000000014,-0.0096,-1.051,0.017162679282329483,1.183650527364593,0.042219732639931784,0.03701940788117012
0.16100000000000003,-0.0194,-0.051,0.01717912648311278,1.1833497848489285,0.042269608424871735,0.03699735195299515
0.16200000000000014,-0.0107,-2.051,0.017135138558104838,1.1792678415509523,0.0421362159821967,0.036697989396971054
0.16300000000000003,0.019,-0.051,0.01719256452205901,1.1923675727555465,0.04231035899083902,0.037658700688227915
0.16400000000000015,0.047,-2.051,0.01717915686970639,1.1923675727555465,0.04226970057156758,0.037658700688227915
0.16500000000000004,0.0433,-1.051,0.017159770042123264,1.1967022843519564,0.04221091043116959,0.037976600827549285
0.16600000000000015,0.0205,-1.051,0.017064165195325755,1.1967022843519564,0.04192099077609174,0.037976600827549285
0.16700000000000004,0.0176,-1.051,0.01674134125089008,1.1967022843519564,0.040942034062527916,0.037976600827549285
0.16800000000000015,-0.012,-1.051,0.016676244633403392,1.1969996720975593,0.04074462996095085,0.037998410722776904
0.16900000000000004,-0.0,-2.051,0.016642286133298583,1.1969996720975595,0.04064165153499093,0.03799841072277692
0.17000000000000015,0.003,-0.051,0.016866397498790715,1.2138863507883013,0.04132126446214848,0.03923685009505447
0.17100000000000004,-0.0078,-0.051,0.0175062793356239,1.2138863507883013,0.04326169245967644,0.03923685009505447
0.17200000000000015,-0.0109,-0.051,0.017692155465265567,1.2138863507883013,0.04382535785110848,0.03923685009505447
0.17300000000000004,-0.0314,-0.05099999999997224,0.01753897406001592,1.226326221461637,0.04336083851279106,0.040149168373269005
0.17400000000000015,-0.0392,0.9490000000000277,0.01749288533526292,1.2102015778674435,0.04322107543977794,0.03896661531729474
0.17500000000000004,-0.017,1.9489999999999723,0.017620024956402195,1.226326221461637,0.04360662362422822,0.040149168373269005
0.17600000000000016,-0.0257,0.949,0.018069621300883357,1.2620650597341108,0.04497001493212201,0.04277019203616117
0.17700000000000005,-0.0231,0.949,0.019014141353893406,1.2968193507805754,0.04783425181085231,0.04531901073377353
0.17800000000000016,0.0037,-0.051,0.019507355282510772,1.307926848916346,0.049329912510640846,0.04613361514893182
0.17900000000000005,0.0073,-0.051,0.019713951995464236,1.3228608333788434,0.04995641262821905,0.047228847354272345
0.18000000000000016,0.037,-1.051,0.01988492738967547,1.3340183115960331,0.05047489185784961,0.048047117220866804
0.18100000000000005,-0.0228,-2.051,0.020079770200524205,1.3337514753675277,0.05106574851844661,0.04802754792027294
0.18200000000000016,-0.0145,-0.051,0.020080129227227714,1.3298635528620295,0.051066837259253504,0.047742414508584775
0.18300000000000005,-0.0069,-0.051,0.020098568995950573,1.3144676533115396,0.051122755463894005,0.046613306261537334
0.18400000000000016,-0.0137,-0.051,0.020463587281296474,1.3298635528620295,0.05222966561468093,0.047742414508584775
0.18500000000000005,0.0052,-1.051,0.02077213937718648,1.3184009786163626,0.053165343252483586,0.046901769434827836
0.18600000000000017,0.011,0.949,0.020977673458307464,1.3186709210584182,0.053788620961735575,0.04692156653967082
0.18700000000000006,0.006,0.949,0.021047374284866603,1.3186709210584184,0.05399998722894446,0.046921566539670834
0.18800000000000017,-0.0081,-0.051,0.021045970920860864,1.3301311690428477,0.05399573155758342,0.04776204100951213
0.18900000000000006,-0.0297,0.949,0.02105096502050352,1.3301311690428477,0.0540108760580384,0.04776204100951213
0.19000000000000017,-0.0098,-0.051,0.02107040961509415,1.3301311690428472,0.054069841375652315,0.0477620410095121
0.19100000000000006,0.0011,-1.051,0.021215740370117465,1.3301311690428472,0.05451055378490707,0.0477620410095121
0.19200000000000017,-0.0022,-1.051,0.021477044188963797,1.3262326334565349,0.055302952032151874,0.04747612925310725
0.19300000000000006,0.0065,0.949,0.02138464696119605,1.3378941604206844,0.05502275941324301,0.04833136516999581
0.19400000000000017,0.004,0.949,0.02136709768423014,1.3340183115960327,0.054969541605827885,0.04804711722086677
0.19500000000000006,0.0109,-2.051,0.021367178504816006,1.2994372125004041,0.05496978669252759,0.04551100011690732
0.19600000000000017,0.013,-1.051,0.020931815304500802,1.2994372125004041,0.05364955709019051,0.04551100011690732
0.19700000000000006,0.0032,-1.051,0.020591708159138713,1.2836764435021568,0.05261818943911596,0.04435513298505373
0.19800000000000018,-0.0059,-0.051,0.020329121166608278,1.2836764435021568,0.05182189999509232,0.04435513298505373
0.19900000000000007,0.0054,0.949,0.020333562091051825,1.2796363869428335,0.05183536700357597,0.04405884232891439
0.20000000000000018,-0.0022,-1.051,0.020377578237395083,1.2793582083058814,0.051968845026847336,0.04403844119599552
0.20100000000000007,-0.0087,-0.051,0.020440667694108374,1.275583534690642,0.05216016245626707,0.043761613259121666
0.20200000000000018,-0.0149,-0.051,0.020546183897394984,1.2793582083058814,0.0524801380881173,0.04403844119599552
0.20300000000000007,-0.0026,1.949,0.020447618854936497,1.2793582083058814,0.052181241702949493,0.04403844119599552
0.20400000000000018,0.00539999999999627,-0.051,0.02043347260598585,1.2793582083058814,0.052138343505276484,0.04403844119599552
0.20500000000000007,-0.0114,-0.051,0.02056064308943842,1.275583534690642,0.05252398527903238,0.043761613259121666
0.20600000000000018,-9.999999999782397e-05,-0.05099999999997224,0.020716144650254977,1.2717976579582575,0.052995540439530565,0.043483963705302366
0.20700000000000007,0.0097,0.9489999999999444,0.020559674105400064,1.2121257883814265,0.052521046855640824,0.03910773353862819
0.20800000000000018,0.007899999999999668,-1.0509999999999444,0.020412018014009325,1.1792678415509525,0.05207328291353845,0.036697989396971074
0.20900000000000007,0.0064,0.949,0.020365977786737374,1.1917704113217469,0.05193366690810035,0.03761490591693114
0.2100000000000002,0.007800000000000777,-1.051,0.02044659718517562,1.1917704113217469,0.052178143511230145,0.03761490591693114
0.21100000000000008,0.0113,-0.051,0.020611115503137267,1.1920690294318026,0.05267704179510535,0.03763680604492794
0.2120000000000002,0.014799999999996781,1.949,0.020520949952736827,1.1920690294318026,0.052403616690127504,0.03763680604492794
0.21300000000000008,0.0003,0.949,0.02050676187465016,1.1754745546199432,0.052360591646493294,0.0364197963921925
0.2140000000000002,-0.009599999999997978,0.949,0.020444448532669232,1.1754745546199432,0.052171627768415836,0.0364197963921925
0.21500000000000008,-0.0005,0.949,0.0198980858726623,1.1754745546199432,0.05051479467634342,0.0364197963921925
0.2160000000000002,-0.0020000000000023536,0.949,0.019426843682621948,1.1754745546199432,0.04908576280430878,0.0364197963921925
0.21700000000000008,-0.0126,0.949,0.01948076693623835,1.1754745546199432,0.049249283918695944,0.0364197963921925
0.2180000000000002,-0.00910000000000422,0.949,0.019532299975467706,1.2087301481019161,0.049405556759027275,0.038858703241241015
0.21900000000000008,-0.0281,1.949,0.01952479806277759,1.2047342029446648,0.04938280736909154,0.03856564763789641
0.2200000000000002,-0.04709999999999632,0.949,0.01954331150637463,1.1883166065376647,0.049438948991213746,0.03736160993688072
0.22100000000000009,-0.0305,0.949,0.01954273746644992,1.1883166065376647,0.04943720822740786,0.03736160993688072
0.2220000000000002,-0.015099999999997846,1.949,0.019634447138568344,1.1923675727555467,0.04971531584850148,0.03765870068822793
0.2230000000000001,-0.0054,-0.051,0.019619686562734842,1.1923675727555467,0.04967055471768284,0.03765870068822793
0.2240000000000002,0.022100000000004397,-2.051,0.019369336984447316,1.1967022843519566,0.048911374970868005,0.0379766008275493
0.2250000000000001,0.0419,-3.051,0.019017275834989755,1.1967022843519564,0.047843757057800994,0.037976600827549285
0.2260000000000002,0.059999999999996355,-3.051,0.018945847531118463,1.1795696247974163,0.047627152252554865,0.036720121650515955
0.2270000000000001,0.0436,-2.051,0.018812335264620936,1.1795696247974163,0.047222279157223115,0.036720121650515955
0.2280000000000002,0.028699999999999445,-2.051,0.018819795500472,1.175171719762895,0.04724490216303495,0.03639758701537335
0.2290000000000001,0.0262,-2.051,0.018824172034104664,1.1795696247974163,0.047258173907760465,0.036720121650515955
0.2300000000000002,0.028399999999994516,-1.051,0.0188130583448642,1.1967022843519568,0.047224471882610405,0.03797660082754931
0.2310000000000001,0.0037,-0.051,0.01845401931380682,1.1926660413491401,0.04613569369269176,0.037680589850949846
0.2320000000000002,-0.012600000000005973,-0.051,0.01832761445223628,1.1932627545701646,0.045752373650933695,0.037724351751108484
0.2330000000000001,-0.0395,1.949,0.0182709068973697,1.1972969859772213,0.045580409202498895,0.038020215200806076
0.2340000000000002,-0.03579999999999929,0.949,0.018333156922678968,1.1972969859772213,0.045769181074122464,0.038020215200806076
0.2350000000000001,-0.0326,0.949,0.018290216414160516,1.2016139153007397,0.045638964899571144,0.03833681121944862
0.2360000000000002,-0.017699999999998224,0.9490000000000277,0.01833713550891708,1.2016139153007397,0.04578124605187714,0.03833681121944862
0.2370000000000001,-0.0097,1.9489999999999446,0.01838015139347532,1.2013176698175627,0.04591169080265852,0.03831508509574219
0.2380000000000002,0.007000000000000467,-0.05100000000002775,0.018370340523733642,1.196999672097558,0.04588193954980055,0.03799841072277681
0.2390000000000001,0.0091,-1.0509999999999722,0.018353701350122053,1.196999672097558,0.045831481611360775,0.03799841072277681
0.2400000000000002,0.027200000000001532,-0.051,0.01811608835451705,1.196999672097558,0.04511092527938188,0.03799841072277681
0.2410000000000001,0.0341,-0.051,0.018090697813258835,1.2010213512620933,0.04503392900554848,0.038293353613042105
0.24200000000000021,0.00039999999999686917,1.949,0.018093564044934663,1.196999672097558,0.04504262079186125,0.03799841072277681
0.2430000000000001,-0.0137,-0.051,0.018108207122381956,1.1972969859772202,0.04508702561133436,0.038020215200806
0.24400000000000022,-0.0006000000000026423,-0.051,0.018096799636640293,1.1929644352686708,0.0450524326545721,0.037702473537207085
0.2450000000000001,-0.0125,1.949,0.018180655486899677,1.188616092353482,0.04530672372869465,0.037383573700894915
0.24600000000000022,-0.008799999999997825,-0.051,0.018153740716990482,1.1719727269139566,0.04522510526404609,0.03616297849534912
0.2470000000000001,0.001,1.949,0.01823306677702089,1.172276388169023,0.04546565984608952,0.03618524847874826
0.248,-0.0076,-0.051,0.018383599729985302,1.1848527340747341,0.04592214780944275,0.03710757561093638
0.2490000000000001,-0.0155,-1.051,0.018374837040715967,1.1892148377221878,0.04589557514147016,0.03742748463519726
0.25,0.0164,-0.051,0.018441708269012015,1.189214837722188,0.04609836071240764,0.03742748463519728
0.2510000000000001,0.0208,-1.051,0.018456489873657743,1.185153095204517,0.04614318561265002,0.03712960356894028
0.252,0.0249,-1.051,0.018517967750652318,1.189514097388965,0.04632961596100815,0.03744943181383783
0.2530000000000001,0.0068,0.949,0.018460728871797734,1.2065055513819893,0.04615604028393279,0.03869555522286205
0.254,-0.0229,-0.051,0.01897364475057699,1.2065055513819893,0.047711446726606044,0.03869555522286205
0.2550000000000001,-0.0347,-0.051,0.01993184219467603,1.2436733622451954,0.05061716000156219,0.041421377227137866
0.256,-0.0309,0.949,0.020419401444436432,1.2478298605068348,0.05209567300854328,0.04172620751332312
0.2570000000000001,0.0055,0.949,0.02066546217375144,1.264037664945543,0.05284184691249089,0.04291485943965342
0.258,0.0104,-2.051,0.020657036140059013,1.2637560527144893,0.0528162951453618,0.04289420649297048
0.2590000000000001,0.0236,-0.051,0.02077304418632881,1.26375605271449,0.05316808706687421,0.04289420649297053
0.26,0.0277,0.949,0.02129300199439562,1.2634743777156838,0.054744848009643604,0.04287354894301081
0.2610000000000001,0.0023,-0.051,0.022973602538509344,1.2634743777156838,0.05984123324945336,0.04287354894301081
0.262,-0.0075,-0.051,0.023118466100612155,1.2675659477748176,0.06028052890615943,0.043173617508799375
0.2630000000000001,-0.0103,-0.051,0.02309533131077475,1.2555347478839582,0.060210373150309894,0.042291270428390336
0.264,-0.0023,-2.051,0.023098429591429055,1.251403841423622,0.06021976862019159,0.041988316999988756
0.2650000000000001,0.0047,-1.051,0.02310012581432396,1.3103737485055584,0.06022491237987637,0.0463130664695134
0.266,0.0251,-1.051,0.02310388215919477,1.3064162552411354,0.06023630341543344,0.046022830860490305
0.2670000000000001,0.0226,-3.051,0.02321043979973202,1.3024467371620363,0.06055943718349334,0.04573171337266725
0.268,0.0107,-0.051,0.023634281393110513,1.3135066488987877,0.061844727758982664,0.04654282788485471
0.26900000000000013,0.0085,-0.051,0.02385045018328446,1.309558623310574,0.06250025499620072,0.04625328661858525
0.27,0.0026,-0.051,0.023707635897747183,1.2939211453016028,0.06206717372689173,0.045106461431459986
0.27100000000000013,-0.0205,-1.051,0.023245407900538848,1.2936460383853605,0.06066547720200951,0.04508628557314587
0.272,-0.0078,-0.051,0.023076276214227965,1.2896372140318768,0.06015258897719135,0.04479228543215774
0.27300000000000013,-0.0031,0.949,0.023089551519296658,1.2775352665868718,0.060192846056152216,0.043904749850318024
0.274,-0.0136,0.949,0.023407141487708446,1.2928203663868834,0.06115593084926053,0.04502573223816344
0.27500000000000013,0.0042,-0.051,0.023328035449915935,1.2813041904867684,0.0609160434799522,0.044181156113161694
0.276,-0.0125,0.949,0.02294857876136759,1.2502656293027896,0.0597653491799663,0.0419048425210662
0.27700000000000014,-0.0237,-0.051,0.02221006795253986,1.2181444912014237,0.05752583093231843,0.0395491346382067
0.278,-0.0055,0.949,0.021791412971266286,1.201910087765657,0.05625626864721239,0.038358531988124056
0.27900000000000014,-0.0034,1.949,0.021608020231212003,1.2025022138565058,0.0557001340816403,0.038401957476207865
0.28,-0.0056,-0.051,0.02151815558351102,1.1904114250008309,0.055427621457669024,0.03751524024572181
0.28100000000000014,-0.0074,1.949,0.021419677527989282,1.186353779269382,0.055128988858528204,0.037217659630574836
0.28200000000000003,0.0016,-1.0509999999999444,0.021416928217120174,1.2033898567028143,0.055120651632063505,0.03846705564438653
0.28300000000000014,-0.0166,-0.050999999999944486,0.021456299917714063,1.2201881022382137,0.05524004547284006,0.03969900948428696
0.28400000000000003,0.0055,0.9489999999998889,0.021150235864517048,1.207685006957301,0.05431191277134067,0.0387820544243373
0.28500000000000014,0.0141,-1.051,0.02100412818804765,1.2076850069573013,0.05386884436440152,0.03878205442433732
0.28600000000000003,0.0167,-1.0509999999999444,0.020790952416367314,1.2076850069573013,0.05322239339181204,0.03878205442433732
0.28700000000000014,-0.0,-0.051,0.020716387548448567,1.203389856702814,0.052996277023112506,0.03846705564438651
0.28800000000000003,0.0021,-0.050999999999944486,0.02083244887944918,1.2232610118629776,0.05334823052943255,0.03992437128197692
0.28900000000000015,0.0039,0.949,0.02092836921818089,1.2392157380841973,0.053639106907059586,0.04109446289609049
0.29000000000000004,0.002,-1.051,0.02111153227506539,1.2395029258311723,0.054194544963327075,0.04111552474132383
0.29100000000000015,0.0034,-0.051,0.02117123738097702,1.2433871377530812,0.054375599421255846,0.041400386025325114
0.29200000000000004,0.0076,0.949,0.020895900202457726,1.2472592535297393,0.05354064531066046,0.0416843601992673
0.29300000000000015,0.001,-0.051,0.02090507070267666,1.230830527687337,0.05356845465662381,0.040479506284995845
0.29400000000000004,-0.0179,-0.051,0.020861787720680754,1.2308305276873368,0.05343719993856991,0.04047950628499583
0.29500000000000015,-0.0046,-0.051,0.020861818656689398,1.2308305276873368,0.05343729375135509,0.04047950628499583
0.29600000000000004,-0.0214,0.949,0.020872753633655445,1.2141795296654503,0.053470453835351615,0.03925835131925792
0.29700000000000015,-0.0237,-2.051,0.020958636082408635,1.21417952966545,0.05373089052610331,0.03925835131925791
0.29800000000000004,-0.0016,0.949,0.021114108294841883,1.2016139153007412,0.05420235668825621,0.03833681121944873
0.29900000000000015,-0.0166,0.949,0.021137407987188134,1.2059153910032885,0.05427301250744028,0.038652273896656555
0.30000000000000004,0.0077,-0.051,0.021327999324106662,1.2062105072859737,0.05485097666418725,0.038673917206781115
0.30100000000000016,0.0174,0.949,0.02131214508899723,1.2102015778674426,0.05480289903498311,0.03896661531729468
0.30200000000000005,-0.0032,1.949,0.021238836845788315,1.2062105072859732,0.05458059335386522,0.03867391720678108
0.30300000000000016,-0.0439,1.949,0.02113738194282935,1.2022061872662784,0.05427293352847876,0.03838024740572611
0.30400000000000005,-0.0613,2.949,0.021126463268850225,1.1978913923587082,0.05423982288294173,0.03806380792140246
0.30500000000000016,-0.0458,0.949,0.021002726557177297,1.2022061872662784,0.05386459394873651,0.03838024740572611
0.30600000000000005,-0.0318,1.949,0.020719719714395728,1.2022061872662784,0.05300638174514725,0.03838024740572611
0.30700000000000016,0.0077,-1.051,0.020515461495858433,1.1978913923587085,0.052386973061918314,0.03806380792140248
0.30800000000000005,0.0233,-1.051,0.020509260238463545,1.1978913923587085,0.05236816788137363,0.03806380792140248
0.30900000000000016,0.0472,-1.051,0.02052732183972731,1.1857535892122764,0.05242293930127491,0.03717364274536125
0.31000000000000005,0.0866,-1.051,0.020469609555071162,1.2027981675901698,0.0522479280312218,0.038423662203517145
0.31100000000000017,0.0282,0.949,0.02028956362718754,1.2025022138565054,0.05170194260204426,0.03840195747620783
0.31200000000000006,-0.0106,0.949,0.02030818673024438,1.2068005233442822,0.05175841676413516,0.03871718794878238
0.31300000000000017,-0.0038,-0.051,0.020347485916532838,1.206800523344282,0.05187759070682994,0.03871718794878236
0.31400000000000006,-0.01,3.949,0.020328852071743155,1.206800523344282,0.05182108397066371,0.03871718794878236
0.31500000000000017,-0.0042,-0.051,0.020464040628095936,1.194753233762832,0.052231040379163415,0.03783366087870926
0.31600000000000006,0.0223,-0.051,0.020851685822968726,1.2076850069573006,0.053406566149610375,0.03878205442433727
0.31700000000000017,0.0463,-2.051,0.02097407114482174,1.2689691564812127,0.05377769702306251,0.043276526372131696
0.31800000000000006,0.0333,-0.051,0.02091089242896358,1.2698103374071512,0.05358610891719322,0.04333821710462975
0.3190000000000002,-0.0105,-0.051,0.021133247278447655,1.2738815572102065,0.05426039524708868,0.043636793218360385
0.32000000000000006,0.0069,-1.051,0.02187179895532631,1.2897620243396744,0.056500037426227716,0.04480143880103941
0.3210000000000002,0.0121,-0.051,0.022135965980777286,1.3054493238181437,0.05730111828632156,0.04595191780728099
0.32200000000000006,0.017,-1.051,0.022045482517745484,1.3054493238181437,0.0570267291180821,0.04595191780728099
0.3230000000000002,0.0388,-2.051,0.022365636067520386,1.3054493238181437,0.057997587916896756,0.04595191780728099
0.32400000000000007,0.0109,-1.051,0.0226116020801354,1.3014768565913923,0.0587434745944755,0.04566058403414606
0.3250000000000002,0.0,0.949,0.023286785919925355,1.312544940868807,0.06079095516165468,0.046472297906119675
0.32600000000000007,-0.0163,-1.051,0.025215252388376522,1.345996447007788,0.0666389885207451,0.04892557264552779
0.3270000000000002,-0.0077,-0.051,0.026798538578178936,1.3999738537867068,0.07144027006046928,0.052884180906671734
0.32800000000000007,-0.0053,1.949,0.027536354231438444,1.4859835622291448,0.07367768026371024,0.05919198194226713
0.32899999999999996,-0.0173,0.949,0.027673949995952043,1.485744018862854,0.07409493647952163,0.05917441425227814
0.3300000000000003,-0.019599999999991916,-0.051,0.02767233221624214,1.4752516745098219,0.07409003059711923,0.05840492413570401
0.3310000000000002,-0.0014,1.949,0.02766840619262125,1.4752516745098219,0.07407812501437816,0.05840492413570401
0.3320000000000001,-0.0181,1.949,0.027658783337684716,1.4752516745098219,0.07404894391239937,0.05840492413570401
0.33299999999999996,-0.016,0.949,0.02768982064489874,1.4754929212885124,0.07414306388333655,0.05842261675096821
0.3340000000000003,-0.02579999999999436,0.949,0.027666497484566368,1.4754929212885126,0.07407233689798602,0.05842261675096822
0.3350000000000002,-0.0131,0.949,0.027976495566444593,1.475492921288513,0.07501239945740087,0.058422616750968256
0.3360000000000001,0.0019,-0.051,0.028027359297769894,1.472221209460979,0.07516664263581457,0.05818267514870483
0.33699999999999997,0.024,-3.051,0.028094370636621072,1.4724629527479538,0.07536985308901667,0.058200404177015025
0.3380000000000003,0.021200000000003553,-2.051,0.02831771321847414,1.4759752965512194,0.07604713469621574,0.05845799330597287
0.3390000000000002,0.0292,0.949,0.028444370319266304,1.4759752965512194,0.07643121964802367,0.05845799330597287
0.3400000000000001,0.0315,-1.051,0.028453208857372722,1.4757341286292003,0.076458022325974,0.05844030647391853
0.34099999999999997,0.0022,-1.051,0.02846551078058024,1.4724629527479538,0.07649532764523957,0.058200404177015025
0.3420000000000003,0.006199999999998401,-0.051,0.028502995906132478,1.472462952747954,0.0766090004875137,0.05820040417701504
0.3430000000000002,0.0026,-0.051,0.028494641213823856,1.472462952747954,0.0765836650616066,0.05820040417701504
0.3440000000000001,-0.0007,-0.051,0.028499571692620178,1.472462952747954,0.0765986166332045,0.05820040417701504
0.345,0.0142,-0.051,0.028468614854147492,1.4759752965512194,0.07650474068200601,0.05845799330597287
0.3460000000000003,-0.020900000000002087,-0.050999999999944486,0.028471431174802254,1.4794793019314927,0.07651328111421388,0.05871497090962574
0.3470000000000002,-0.0256,0.949,0.02848229386491489,1.4897029682651284,0.07654622198987202,0.05946475665189515
0.3480000000000001,-0.0125,0.949,0.02838419681397335,1.4797198594572456,0.07624874477897955,0.05873261297628941
0.349,-0.0324,0.9489999999998889,0.028491057516498892,1.4794793019314927,0.07657279757604327,0.05871497090962574
0.3500000000000003,-0.01419999999999858,-1.0509999999999444,0.028638173431359635,1.4759752965512194,0.07701892344436065,0.05845799330597287
0.3510000000000002,-0.011,-0.051,0.02863020446938055,1.4794793019314927,0.07699475773743579,0.05871497090962574
0.3520000000000001,-0.0138,-0.051,0.02858736963450128,1.4759752965512194,0.0768648620159373,0.05845799330597287
0.353,-0.0004,-0.051,0.028587483159268387,1.4654130099008773,0.07686520627736781,0.057683373744090834
0.3540000000000003,0.0016999999999971133,0.949,0.028248473227631108,1.4547740385173356,0.07583716590346905,0.05690313025848843
0.3550000000000002,-0.0048,-0.051,0.02758978579989401,1.4267640468961795,0.07383971035335325,0.05484892664177474
0.3560000000000001,-0.0106,-0.051,0.027207242035463545,1.4267640468961795,0.07267965456171788,0.05484892664177474
0.357,0.0022,0.949,0.02702270640198484,1.4160860555422918,0.07212005419625699,0.054065821500042875
0.3580000000000003,0.013500000000001953,0.949,0.027155378334790856,1.4126767661130282,0.07252237899762505,0.05381579019797253
0.3590000000000002,0.0179,1.949,0.027316532306145364,1.423630370552087,0.07301107497230173,0.054619108319559205
0.3600000000000001,0.0058,-1.051,0.027062438702423426,1.4238803635090784,0.07224054154835748,0.054637442364186946
0.361,-0.009,0.949,0.02583320864752043,1.420489781167391,0.0685129276724249,0.054388783007081
0.3620000000000003,-0.014699999999995914,-0.051,0.02584648037645667,1.4168398955375112,0.0685531739068405,0.05412110680200039
0.3630000000000002,-0.0055,-0.051,0.025840765979801086,1.4165886601121274,0.06853584512108475,0.054102681636921786
0.3640000000000001,-0.0236,0.949,0.025968510534727464,1.4303886095497949,0.06892322775431851,0.055114745704228085
0.365,-0.0403,1.949,0.0262573469281759,1.3763109860269989,0.06979911794574219,0.05114878772300881
0.3660000000000003,-0.03379999999999196,3.949,0.02649701800141926,1.3763109860269986,0.07052591535418344,0.05114878772300879
0.3670000000000002,-0.0157,2.949,0.02651006604178537,1.3798101323893706,0.0705654832577898,0.0514054089748183
0.3680000000000001,-0.0324,0.949,0.02617984685103985,1.3690259056199814,0.06956410061780922,0.050614512714199374
0.369,-0.057,1.949,0.02596992791458906,1.3725436246051972,0.06892752592846296,0.05087249604956585
0.37000000000000033,-0.034199999999982814,1.949,0.02594886912831313,1.386781938091169,0.0688636656090546,0.05191670896666987
0.3710000000000002,0.0045,-1.051,0.025942048780717795,1.3870385724428764,0.06884298305070545,0.05193553007952776
0.3720000000000001,0.0385,-0.051,0.025915888413590545,1.3870385724428764,0.06876365229637345,0.05193553007952776
0.373,0.0334,-0.051,0.025889774956740504,1.3835577075997263,0.06868446379645472,0.051680249562246566
0.37400000000000033,0.05730000000001754,-2.051,0.025598742397580046,1.369285867847574,0.0678019137794359,0.05063357788763292
0.3750000000000002,0.0968,-3.051,0.025579650707819743,1.3695457807300777,0.06774401863817926,0.05065263944218428
0.3760000000000001,0.0916,-4.051,0.025579650707819743,1.3692858678475741,0.06774401863817926,0.05063357788763294
0.377,0.0676,-5.051,0.02558157936132181,1.3695457807300777,0.0677498672387138,0.05065263944218428
0.3779999999999999,0.0281,-1.051,0.025721713327708697,1.4023991699791716,0.06817482049747092,0.05306204933882337
0.3790000000000002,0.0016,-1.051,0.025936073582513493,1.4023991699791716,0.0688248633898259,0.05306204933882337
0.3800000000000001,-0.0031,-0.051,0.02607415893384307,1.3987020780509452,0.06924360426719549,0.052790911106688036
0.381,0.0012,1.949,0.026083451712714,1.4023991699791714,0.06927178442055823,0.05306204933882335
0.3819999999999999,0.0132,0.949,0.026092727467146817,1.4023991699791714,0.06929991294767615,0.05306204933882335
0.38300000000000023,-0.0121,-0.051,0.026035725587714224,1.3912784212786304,0.06912705596628389,0.05224647315050487
0.3840000000000001,-0.0419,0.949,0.026021610867386864,1.3910225691508689,0.06908425337848732,0.05222770940457804
0.385,-0.022,-0.051,0.026067855613012815,1.401383602531574,0.06922448958146389,0.05298756940494521
0.3859999999999999,-0.0256,0.949,0.026603461423810818,1.4011295956534136,0.07084870275815709,0.05296894098638498
0.38700000000000023,-0.0355,0.949,0.027376001388985313,1.4011295956534136,0.07319141369530886,0.05296894098638498
0.3880000000000001,-0.0269,-0.051,0.027344564208664646,1.3725436246051972,0.07309608111772008,0.05087249604956585
0.389,-0.0081,-1.051,0.027262489690622685,1.3581560510754451,0.07284719189548426,0.04981733666286228
0.3899999999999999,0.0086,-0.051,0.027114661961040232,1.3578939580999587,0.07239890746423298,0.04979811522411852
0.39100000000000024,0.015,-0.051,0.02693175946733769,1.369285867847574,0.0718442595602472,0.05063357788763292
0.3920000000000001,-0.0032,0.949,0.026958455773886454,1.3695457807300777,0.07192521553942327,0.05065263944218428
0.393,-0.0054,-0.051,0.026962876981752298,1.3843292611022973,0.07193862275780633,0.05173683394173893
0.3939999999999999,-0.012,0.949,0.02745462637841242,1.384329261102297,0.0734298422957279,0.05173683394173892
0.39500000000000024,-0.0061,0.949,0.02766915423934874,1.3989565256906684,0.07408039345009539,0.052809571849927565
0.39600000000000013,-0.0228,1.949,0.027913495578896025,1.4134324244197103,0.07482135334131143,0.05387120885170085
0.397,0.0019,-1.051,0.028183849682815603,1.4277615613362948,0.07564119638465898,0.05492208259977443
0.3979999999999999,0.0247,-1.051,0.02807131300308894,1.4241303125821096,0.07529993130801423,0.05465577319044207
0.39900000000000024,0.0334,-0.051,0.028230087878853727,1.4204897811673904,0.0757814127261504,0.05438878300708095
0.40000000000000013,0.0037,0.949,0.02828931055013277,1.4202391913943613,0.07596100421136427,0.05437040519301266
0.401,0.0076,-0.051,0.02835716203805246,1.4202391913943615,0.07616676239866474,0.05437040519301267
0.4019999999999999,-0.0033,-1.051,0.02856619329312679,1.4340040108535383,0.07680064521320443,0.05537989288936369
0.40300000000000025,-0.0001,-1.051,0.02871741242739027,1.4373627149504744,0.0772592140066851,0.0556262143519587
0.40400000000000014,-0.0089,0.949,0.029129145570987745,1.4679726795438282,0.07850778596694068,0.05787109542245686
0.405,-0.001,0.949,0.029145822830423603,1.4644411422357846,0.07855835939982875,0.05761209867555091
0.4059999999999999,-0.0032,0.949,0.02918796184793933,1.4644411422357848,0.07868614507004015,0.05761209867555092
0.40700000000000025,-0.0279,-0.050999999999888974,0.029217668581333858,1.4679726795438282,0.07877623010430074,0.05787109542245686
0.40800000000000014,-0.0377,1.9489999999999446,0.029220609505897548,1.4644411422357848,0.07878514839519994,0.05761209867555092
0.40900000000000003,-0.0291,0.9489999999999444,0.02937081648691277,1.4641980745255663,0.07924064785558246,0.057594272516364925
0.4099999999999999,-0.0316,-0.051,0.02935200619968829,1.4537950586757882,0.07918360606150285,0.056831333595412044
0.41100000000000025,-0.0294,-0.05100000000005551,0.029400171559747418,1.4504744056495364,0.0793296664867093,0.056587802731546115
0.41200000000000014,-0.0091,-1.0510000000000554,0.029400479222360106,1.4469001598694151,0.07933059946700831,0.05632567382026849
0.41300000000000003,0.026,-2.0509999999999446,0.029371362201243225,1.4469001598694151,0.07924230272262903,0.05632567382026849
0.4139999999999999,0.0401,-1.0509999999999444,0.029397674555418103,1.4504744056495367,0.07932209437443538,0.05658780273154613
0.41500000000000026,0.0358,-0.05100000000005551,0.02932497905064667,1.4504744056495364,0.07910164680953646,0.056587802731546115
0.41600000000000015,0.0238,-1.051,0.029047195746302008,1.4363718682207272,0.07825927487464322,0.05555354739213289
0.41700000000000004,0.0201,-1.051,0.0288599481170544,1.3790360504928627,0.07769145043996167,0.05134863916735296
0.4179999999999999,0.0038,-1.051,0.028826470150260707,1.3606559079152658,0.07758992922099991,0.050000671775242235
0.41900000000000026,0.0009,-2.051,0.02869542795504245,1.3606559079152658,0.07719254656404334,0.050000671775242235
0.42000000000000015,0.0035,0.949,0.028326032704464307,1.3790360504928616,0.0760723633597144,0.051348639167352876
0.42100000000000004,-0.0033,-0.051,0.028209509042166403,1.3790360504928598,0.07571900784361417,0.051348639167352744
0.42199999999999993,0.0124,-0.051,0.02831207730520454,1.3755349349882695,0.076030043909651,0.05109187350210957
0.42300000000000026,0.0027,-0.051,0.02807381296769707,1.3755349349882695,0.07530751239727042,0.05109187350210957
0.42400000000000015,0.0046,0.949,0.02791053565985399,1.3897426019751673,0.0748123774500625,0.05213383885876842
0.42500000000000004,-0.0,-1.051,0.02759158387987042,1.3897426019751666,0.07384516299246126,0.05213383885876837
0.42599999999999993,-0.0166,0.949,0.026076384149227024,1.3609174689793575,0.06925035218530007,0.05001985420453803
0.42700000000000027,-0.0279,2.949,0.02444590954907143,1.305053310717953,0.06430597279947774,0.045922874901674994
0.42800000000000016,-0.0337,1.949,0.02354232278530928,1.2104956491872707,0.06156586524575005,0.038988181991677626
0.42900000000000005,-0.0319,-0.051,0.023385376639943167,1.2107896490843424,0.06108992941347249,0.039009743428041
0.42999999999999994,-0.0208,0.949,0.023390617203602908,1.2068005233442776,0.06110582131079296,0.03871718794878203
0.43100000000000027,-0.0071,1.949,0.023396251948956816,1.2068005233442776,0.06112290855567832,0.03871718794878203
0.43200000000000016,0.0055,-1.051,0.023448529676960882,1.1898132817864944,0.06128143964880683,0.03747137347236388
0.43300000000000005,0.0135,-1.051,0.023633024365323774,1.1854533802310872,0.06184091584907891,0.037151625945668135
0.43399999999999994,0.0301,-2.051,0.023742596214928028,1.2232610118629719,0.062173190141728424,0.0399243712819765
0.4350000000000003,0.0547,-1.051,0.023639563384900197,1.2232610118629719,0.06186074528622198,0.0399243712819765
0.43600000000000017,0.0646,-0.051,0.024277314363857782,1.2397900470533292,0.06379471150277327,0.041136581707743786
0.43700000000000006,0.0201,-1.051,0.02416353068980277,1.2356065036888804,0.06344966494247295,0.0408297679811935
0.43799999999999994,0.0012,-0.051,0.024031839390259383,1.2670042291568369,0.06305031389052014,0.04313242205139838
0.4390000000000003,0.007,-1.051,0.02395478712731247,1.2708043861614082,0.06281665454954707,0.04341111889531227
0.44000000000000017,0.002,1.949,0.02441960315313267,1.282414854511923,0.0642261992158951,0.04426261026310521
0.44100000000000006,-0.0122,0.949,0.024975540617457943,1.282414854511923,0.06591206769747335,0.04426261026310521
0.44199999999999995,-0.0079,1.949,0.02523370456930279,1.282414854511923,0.06669494436512723,0.04426261026310521
0.4430000000000003,-0.0518,-0.051,0.025290269489942886,1.282414854511923,0.06686647627831795,0.04426261026310521
0.4440000000000002,-0.0344,1.949,0.025318450583164134,1.282414854511923,0.06695193484135215,0.04426261026310521
0.44500000000000006,-0.0395,1.949,0.02529495180076037,1.2783708109381249,0.06688067528582274,0.0439660272063231
0.44599999999999995,-0.0442,1.949,0.025439907270344442,1.2780923568467677,0.0673202496500019,0.0439456058720617
0.4470000000000003,-0.0047,-0.051,0.025409425883623615,1.26616118397931,0.06722781549608171,0.04307059459796136
0.4480000000000002,0.0324,-0.051,0.0255517152831141,1.2664422613938477,0.06765930505966931,0.04309120832213983
0.44900000000000007,0.0372,-1.051,0.02551127623654029,1.2664422613938475,0.06753667451501515,0.043091208322139814
0.44999999999999996,0.0242,-1.051,0.02532873260352853,1.2664422613938475,0.06698311484840622,0.043091208322139814
0.4510000000000003,0.0362,-2.051,0.025392809086618347,1.2623470492024471,0.06717742541422247,0.04279087264876422
0.4520000000000002,0.0325,-1.051,0.025483660598677883,1.26616118397931,0.06745293068327426,0.04307059459796136
0.45300000000000007,0.0488,-3.051,0.025716774059094345,1.2664422613938475,0.06815984227093767,0.043091208322139814
0.45399999999999996,0.01,-0.051,0.025792081291137445,1.2786492043899584,0.06838820984298186,0.04398644409338829
0.4550000000000003,-0.016399999999985215,-0.051,0.02580509952911956,1.274593213175418,0.06842768737149554,0.043688984817607045
0.4560000000000002,0.0169,0.949,0.026234743841768673,1.2705242737777973,0.0697305745691835,0.04339057594480794
0.4570000000000001,-0.0047,-0.051,0.02627793480067698,1.2702440996242121,0.06986155022919055,0.04337002846420214
0.45799999999999996,-0.0326,-1.051,0.026130300970986557,1.2702440996242121,0.06941385379521871,0.04337002846420214
0.4590000000000003,-0.014500000000001467,0.949,0.026149508876787884,1.2541165077462513,0.06947210135913649,0.0421872591862718
0.4600000000000002,-0.0178,-0.051,0.026212582312427953,1.2850620606588252,0.06966337020499401,0.04445675171500933
0.4610000000000001,-0.0091,-0.051,0.026619430372294573,1.288808973793428,0.07089712825321773,0.044731543746964086
0.46199999999999997,-0.0067,-0.051,0.026606544204785476,1.3039619293913434,0.07085805122559145,0.04584283491099389
0.4630000000000003,-0.013599999999999023,0.949,0.026592472503724346,1.3158208463710799,0.0708153790928005,0.04671254706512686
0.4640000000000002,-0.0114,0.949,0.026499404612012504,1.304780550969173,0.07053315269981157,0.045902871180502354
0.4650000000000001,-0.0015,-0.051,0.026215591945403374,1.316632094637728,0.06967249685268367,0.04677204258893639
0.46599999999999997,0.0076,-0.051,0.02600607081848822,1.316632094637728,0.06903712851225402,0.04677204258893639
0.4670000000000003,-0.007300000000004397,1.949,0.025918190344658698,1.316632094637728,0.06877063285315113,0.04677204258893639
0.4680000000000002,-0.0172,0.949,0.025934392073878643,1.3129645849924392,0.06881976425082033,0.04650307386950293
0.4690000000000001,-0.0338,2.9489999999999443,0.02594719849537048,1.3129645849924392,0.06885859945035325,0.04650307386950293
0.47,-0.0226,1.948999999999889,0.02595204337752644,1.2979167381125964,0.06887329145196823,0.04539949119434856
0.4710000000000003,-0.02449999999999436,-0.051,0.0259983146235954,1.3095586233105714,0.06901360801697196,0.046253286618585056
0.4720000000000002,-0.0118,-0.05100000000011102,0.02603285314735036,1.3095586233105714,0.06911834535225732,0.046253286618585056
0.4730000000000001,0.0142,-2.051,0.02609698748570306,1.313235644914058,0.06931283136292206,0.046522952928335456
0.474,0.0389,-2.0509999999999446,0.026152837478913605,1.313235644914058,0.06948219527395888,0.046522952928335456
0.4750000000000003,0.03519999999998988,-1.051,0.026152148960287367,1.313235644914058,0.06948010735593672,0.046522952928335456
0.4760000000000002,0.0124,-1.050999999999889,0.026262916228902276,1.3250115642950266,0.06981600673119294,0.0473865781842689
0.4770000000000001,0.0153,0.949,0.026816606130292447,1.380841566566659,0.07149505952619527,0.05148105254679951
0.478,0.0073,0.9489999999999444,0.026898433368443088,1.3808415665666587,0.0717431988774444,0.051481052546799494
0.4790000000000003,0.005199999999995026,-0.051,0.026968508251155633,1.3989565256906669,0.07195569946194585,0.052809571849927454
0.4800000000000002,-0.006,-0.051,0.027010829739115175,1.4129286971195776,0.0720840384698792,0.05383426637575279
0.4810000000000001,-0.0157,-0.051,0.02694111426041227,1.4126767661130246,0.07187262777035743,0.053815790197972266
0.482,-0.0323,-0.051,0.027183445373602514,1.4121727692667794,0.07260749169309923,0.05377882795398547
0.4830000000000003,-0.02580000000000435,2.949,0.027500555890840588,1.4226299594217635,0.07356912256076792,0.054545739923384504
0.4840000000000002,-0.0356,0.949,0.027607748828201037,1.4502289970262952,0.07389418285286949,0.05656980489390827
0.4850000000000001,-0.0595,1.949,0.027887830621989008,1.4399722471735805,0.0747435249078866,0.05581759286442447
0.486,-0.0102,-0.051,0.027432025958912802,1.4399722471735805,0.07336130700650954,0.05581759286442447
0.4870000000000003,0.024999999999997247,-3.051,0.02666299005273785,1.4433170628160308,0.07102922205340094,0.056062895772147306
0.4880000000000002,0.0188,-1.051,0.026594323726111518,1.4433170628160308,0.07082099288513363,0.056062895772147306
0.4890000000000001,0.0481,-2.051,0.026635784577821106,1.4433170628160308,0.07094672203202862,0.056062895772147306
0.49,0.0531,-0.051,0.02670305052421255,1.4433170628160308,0.07115070457715625,0.056062895772147306
0.4910000000000003,0.03899999999999032,-0.051,0.026709027841657934,1.4291438997481745,0.07116883066458911,0.05502346087234273
0.4920000000000002,0.0172,0.949,0.02668170980751529,1.4291438997481745,0.07108598930976935,0.05502346087234273
0.4930000000000001,0.0131,-0.051,0.02675812331587233,1.418483823444308,0.07131771164109721,0.05424166958893132
0.494,-0.005,-0.051,0.026373625300625782,1.4327624419287577,0.07015172962561951,0.055288838403872255
0.49500000000000033,-0.027799999999996133,-1.051,0.026304270514702473,1.4221294899506933,0.06994141271924476,0.05450903637090109
0.4960000000000002,-0.0191,0.949,0.026133691146440076,1.4221294899506935,0.06942413442984197,0.054509036370901105
0.4970000000000001,-0.027,0.949,0.025774081076714223,1.4111642355674652,0.06833362457736283,0.05370486386285936
0.498,-0.0201,-1.051,0.02577374061441327,1.4111642355674652,0.06833259213271002,0.05370486386285936
0.49900000000000033,0.013700000000002087,-0.051,0.025704171679549637,1.414577170369461,0.06812162582424956,0.053955162510166785
0.5000000000000002,0.0184,-0.051,0.025612219643386936,1.4423303065879178,0.06784278323937037,0.05599052880253089
0.5010000000000001,0.0228,-1.051,0.025720705315440382,1.4525704060346818,0.06817176372180596,0.05674151972047041
0.502,0.0347,0.949,0.0255775126794834,1.438983197301565,0.06773753511293361,0.0557450576829905
0.5030000000000003,-0.019699999999996623,1.949,0.025372285220859436,1.4497380551530492,0.06711518722985207,0.05653380007872452
0.5040000000000002,-0.0121,-0.051,0.024902899729090273,1.4223797466977282,0.06569178575565184,0.05452738976142755
0.5050000000000001,-0.0473,-0.051,0.02497546806166259,1.4260154531526406,0.06591184767357428,0.05479402609070618
0.506,-0.0154,-1.051,0.025033989504551806,1.440219403514133,0.06608931269867949,0.055835718876581966
0.5069999999999999,0.0021,-0.051,0.025016028380319043,1.440219403514133,0.06603484597322777,0.055835718876581966
0.5080000000000002,0.039,-0.051,0.025117107423886297,1.4438101880347158,0.06634136601304003,0.056099060710052905
0.5090000000000001,0.0343,-3.051,0.02499730006976668,1.4404665174474134,0.06597805277165471,0.05585384177866458
0.51,0.0561,-1.051,0.024955632222890756,1.4368673769951221,0.06585169591634077,0.055589887135830164
0.5109999999999999,0.0282,-2.051,0.025086930986847403,1.4368673769951221,0.0662498566125143,0.055589887135830164
0.5120000000000002,0.0028,1.949,0.02521760812979999,1.4368673769951221,0.06664613225627548,0.055589887135830164
0.5130000000000001,-0.0135,0.949,0.025241170659477348,1.4402194035141331,0.06671758512404996,0.05583571887658198
0.514,-0.0106,1.949,0.025216893600036178,1.4402194035141338,0.06664396546003443,0.05583571887658203
0.5149999999999999,0.0137,-0.051,0.0252236078605225,1.4507197727586232,0.06666432631149231,0.05660579752460874
0.5160000000000002,0.0105,-1.051,0.02523887783300317,1.4540398654296214,0.06671063217675896,0.05684928729300402
0.5170000000000001,-0.0221,-0.051,0.025232185891023093,1.4540398654296214,0.06669033900569438,0.05684928729300402
0.518,-0.009,-1.051,0.025270483367244665,1.4399722471735759,0.06680647528401536,0.05581759286442413
0.5189999999999999,-0.0051,-0.051,0.025218825579859713,1.4399722471735734,0.06664982414756775,0.05581759286442395
0.5200000000000002,-0.0159,1.949,0.024993044112898814,1.4218791891574036,0.06596514667339202,0.054490679750099615
0.5210000000000001,0.0138,-0.051,0.024896562829273633,1.4111642355674552,0.06567256924236152,0.05370486386285862
0.522,-0.0221,-1.051,0.024784543456381165,1.4111642355674554,0.06533287288763792,0.053704863862858644
0.5229999999999999,-0.0173,-0.051,0.024760741293390936,1.4145771703694512,0.06526069333696254,0.05395516251016607
0.5240000000000002,-0.0042,0.949,0.02476189669380235,1.4040600057492845,0.06526419706402214,0.05318385211876981
0.5250000000000001,-0.0241,1.949,0.024455267903551323,1.3934634650965623,0.06433435180947347,0.052406720428482746
0.526,-0.0567,3.949,0.024210655293365666,1.389998689701956,0.06359256929584294,0.05215261988311432
0.5269999999999999,-0.0349,2.949,0.024221133442906214,1.3865252562385562,0.0636243440604329,0.051897884370178955
0.5280000000000002,-0.0389,2.949,0.024179228878487627,1.3862685268586747,0.06349726936422889,0.051879056288121596
0.5290000000000001,-0.0353,-2.051,0.024204735199933543,1.3862685268586752,0.06357461673900756,0.05187905628812163
0.53,0.0075,-1.051,0.024282433338657664,1.3862685268586752,0.06381023468447426,0.05187905628812163
0.5309999999999999,0.0369,-2.051,0.024291323573241843,1.3862685268586752,0.06383719413088879,0.05187905628812163
0.5320000000000003,0.042,-2.051,0.02428446422220616,1.386268526858675,0.06381639329544019,0.05187905628812162
0.5330000000000001,0.0278,-3.051,0.024151675694501044,1.386268526858675,0.06341371492253195,0.05187905628812162
0.534,0.0496,-1.051,0.02404346717337949,1.3530235186855437,0.06308557489437532,0.04944092574704208
0.5349999999999999,0.0217,-1.051,0.023779204544861536,1.3491911329763373,0.06228420412002367,0.04915986530650458
0.5360000000000003,-0.0037,-1.051,0.023048702185711707,1.334018311596021,0.060068971324903575,0.04804711722086591
0.5370000000000001,0.0062,-1.051,0.02307895699309098,1.3491911329763373,0.060160718381811924,0.04915986530650458
0.538,0.0149,-0.051,0.022943318285926478,1.3158208463710719,0.059749396900594276,0.04671254706512628
0.5389999999999999,-0.0202,-1.051,0.022912718432497918,1.3121510692595273,0.05965660349891423,0.04644341205369792
0.5400000000000003,-0.006,-0.051,0.02253568028178805,1.3126934690992673,0.05851324336324542,0.04648319070581495
0.5410000000000001,-0.0017,0.949,0.02205844985347193,1.3126934690992673,0.05706605228659313,0.04648319070581495
0.542,-0.0217,0.949,0.021711532974603834,1.3126934690992673,0.05601403426416853,0.04648319070581495
0.5429999999999999,-0.0253,1.949,0.021679931714659498,1.3126934690992673,0.055918204118626934,0.04648319070581495
0.5440000000000003,-0.0286,0.949,0.021643444438044068,1.3126934690992673,0.055807557231932155,0.04648319070581495
0.5450000000000002,-0.0258,1.949,0.021774767391206293,1.3126934690992673,0.056205791281354736,0.04648319070581495
0.546,0.0093,-1.051,0.021603149140104028,1.3090149245253493,0.055685362601938355,0.04621341270408654
0.5469999999999999,0.0045,-0.051,0.021568031168524186,1.305053310717945,0.05557886810350539,0.04592287490167441
0.5480000000000003,0.0263,-1.051,0.021425682264703413,1.304780550969164,0.05514719809430765,0.04590287118050169
0.5490000000000002,0.0302,-3.051,0.021331521722472796,1.304780550969164,0.05486165826196774,0.04590287118050169
0.55,0.0338,-2.051,0.021291219384890765,1.3084709998212258,0.05473944228441002,0.04617352222109238
0.5509999999999999,0.024,-0.051,0.02121491861935186,1.3084709998212258,0.05450806184326913,0.04617352222109238
0.5520000000000003,0.0033,1.949,0.021100232716157238,1.304780550969164,0.05416027929238131,0.04590287118050169
0.5530000000000002,-0.0047,0.949,0.020819889862757394,1.304507734189001,0.05331014557966937,0.04588286327674753
0.554,-0.0215,0.949,0.020726560179170028,1.2888089737934194,0.05302712530841175,0.04473154374696345
0.5549999999999999,-0.0237,1.949,0.020879768389389163,1.3045077341890008,0.0534917259322264,0.04588286327674752
0.5560000000000003,-0.014,0.949,0.02089573552970721,1.320019805225435,0.053540145944063165,0.047020491336646514
0.5570000000000002,-0.023,0.949,0.021306597200474814,1.3505095340071995,0.054786075181583335,0.04925655452378484
0.558,-0.0215,-0.051,0.021413717660866877,1.3505095340071995,0.05511091568882691,0.04925655452378484
0.5589999999999999,0.0014,-0.051,0.02106242626195109,1.3505095340071995,0.0540456320278302,0.04925655452378484
0.5600000000000003,0.0312,-0.051,0.021008259725755346,1.3505095340071995,0.053881373164219516,0.04925655452378484
0.5610000000000002,0.0272,-0.051,0.020945442344078993,1.3795521533511768,0.05369088079653574,0.05138648924501397
0.562,-0.0128,-1.051,0.022051438326188257,1.379552153351177,0.05704478997992413,0.05138648924501398
0.563,-0.0079,0.949000000000111,0.022500262493527982,1.3682457225853688,0.058405839677136,0.05055729545997537
0.5640000000000003,-0.0128,1.948999999999667,0.022459936388413995,1.368245722585369,0.05828355162504548,0.05055729545997539
0.5650000000000002,0.0089,-1.050999999999889,0.02249622608977917,1.3532865549264443,0.058393599369015545,0.049460216363215515
0.5660000000000001,0.0049,-0.051,0.02255805016429112,1.3571073754714182,0.05858107955394774,0.049740428634909704
0.567,0.0157,-0.050999999999888974,0.02259682933424347,1.368505833017029,0.05869867655821472,0.05057637150243508
0.5680000000000003,0.0059,0.9489999999996669,0.022588206637630562,1.3722842795193237,0.05867252841498147,0.050853476136222646
0.5690000000000002,0.0029,-2.050999999999667,0.022589011944482932,1.3722842795193237,0.05867497049080389,0.050853476136222646
0.5700000000000001,0.0054,0.9489999999998889,0.022619483842259976,1.3722842795193237,0.05876737586970481,0.050853476136222646
0.571,-0.0066,-0.05100000000011102,0.02258617832236951,1.3609174689793493,0.05866637759229233,0.05001985420453743
0.5720000000000003,0.0046,-1.051,0.022568836857505443,1.3609174689793493,0.05861378997063562,0.05001985420453743
0.5730000000000002,0.0144,-1.051,0.02249856058805562,1.361178979782465,0.058400678685156505,0.05003903294778147
0.5740000000000001,0.0021,-1.050999999999889,0.022432302955268348,1.361178979782465,0.0581997538294884,0.05003903294778147
0.575,-0.007,-0.051,0.022551205618439617,1.3609174689793493,0.05856032361490383,0.05001985420453743
0.5760000000000003,0.0143,-0.05100000000011102,0.02242222036077003,1.3494549162274547,0.05816917857711199,0.049179210707096015
0.5770000000000002,0.0056,-1.051,0.021708329389594543,1.2882565178074974,0.05600431946108043,0.04469102759473801
0.5780000000000001,-0.0133,0.949,0.021432820396347353,1.2685617552406592,0.05516884432599395,0.04324664828030226
0.579,-0.0201,-0.051,0.021079359292029694,1.236052268960465,0.05409698107972721,0.04086245962371447
0.5800000000000003,-0.008900000000002531,-0.051,0.020818753439174952,1.2200561746209833,0.053306699399438134,0.03968933414442522
0.5810000000000002,-0.0146,-0.051,0.020884716498996637,1.2160974459495524,0.05350673096888238,0.039399007932820806
0.5820000000000001,-0.02,-0.051,0.020653177043634518,1.2038475513366556,0.05280459251791372,0.03850062216539459
0.583,-0.012,-0.051,0.02022232450185831,1.1914717183691348,0.0514980413912147,0.03759300030011263
0.5840000000000003,0.0018000000000040412,-0.051,0.020133831117524974,1.158027880031585,0.05122968709410535,0.035140287903801415
0.5850000000000002,0.0109,-0.051,0.019548217117722384,1.1583351969783708,0.049453825152805206,0.03516282598921405
0.5860000000000001,0.0156,1.949,0.01966523760766896,1.1541647877894898,0.04980868728813406,0.03485697550004415
0.587,-0.001,-0.051,0.01971010241253678,1.1544731330791689,0.049944738850247465,0.03487958900231942
0.5880000000000003,0.014600000000004396,-0.051,0.01971346999389683,1.1502887219371793,0.04995495096876506,0.03457271163448759
0.5890000000000002,0.0245,1.949,0.019819131803967046,1.1547813960356768,0.05027536815007533,0.034902196466424444
0.5900000000000001,0.0263,-0.051,0.019716622413086745,1.1547813960356768,0.04996451061259919,0.034902196466424444
0.591,0.0017,-0.051,0.019747772473789935,1.1547813960356768,0.050058972506083,0.034902196466424444
0.5920000000000003,0.012599999999992761,0.949,0.01975031752027497,1.1547813960356768,0.05006669030516762,0.034902196466424444
0.5930000000000002,-0.0037,-0.051,0.019663318406158266,1.1544731330791689,0.04980286735056141,0.03487958900231942
0.5940000000000001,-0.0244,-0.051,0.019595259910445667,1.140938398231439,0.049596481416552166,0.03388697530748105
0.595,0.0053,-0.051,0.019503303054459874,1.1406263941056454,0.04931762421566244,0.03386409347258786
0.5960000000000003,-0.014599999999988721,-0.051,0.019340676029814798,1.1226382824854908,0.04882446123835755,0.03254487694272422
0.5970000000000002,0.0108,-1.051,0.019332852428017706,1.1363909977400755,0.0488007363330786,0.03355347693795818
0.5980000000000001,0.0011,-1.051,0.019334585252927722,1.175777311478409,0.0488059910875921,0.03644200004873252
0.599,0.004,-1.051,0.01925993510892575,1.1760799903985568,0.04857961612099232,0.03646419798941313
0.6000000000000003,-0.0038000000000009324,-0.051,0.019195726790999706,1.141873899099346,0.048384905768852175,0.0339555832989537
0.6010000000000002,-0.0059,-0.051,0.018941741870881098,1.124538954004181,0.04761470192561271,0.032684268855463286
0.6020000000000001,0.0054,-1.051,0.018824211280530294,1.124538954004181,0.04725829292170759,0.032684268855463286
0.603,-0.0004,-0.051,0.01933344792680196,1.1239057539740018,0.04880254217041754,0.03263783107677024
0.6040000000000003,-0.028000000000008882,1.949,0.020156523191132935,1.1192891561172351,0.051298500322448835,0.03229925789393787
0.6050000000000002,-0.048,1.949,0.020043133048593724,1.132139756637369,0.0509546471380614,0.03324169837812079
0.6060000000000001,-0.0444,2.949,0.020097114081410555,1.1183347629919271,0.05111834346663927,0.03222926437747092
0.607,-0.0215,-0.051,0.020361866293646037,1.1180164509021036,0.05192119889315316,0.03220591992756879
0.6080000000000003,0.00540000000001128,-0.051,0.020283463318754767,1.1176980481593684,0.05168344354707015,0.03218256882934125
0.6090000000000002,0.0308,-3.051,0.020186294945813678,1.1176980481593684,0.051388782532370524,0.03218256882934125
0.6100000000000001,0.0537,-3.051,0.02018734859637195,1.135764405362193,0.05139197770517461,0.033507523752885494
0.611,0.0745,-2.051,0.020089850358890736,1.135764405362193,0.05109631638330544,0.033507523752885494
0.6120000000000003,0.0447999999999805,-1.051,0.020271909681026296,1.135764405362193,0.0516484073875308,0.033507523752885494
0.6130000000000002,0.0009,0.949,0.02051692849354281,1.1360777447499841,0.052391421701050135,0.033530503513549664
0.6140000000000001,-0.0166,-0.051,0.02051142283282136,1.135764405362192,0.05237472590255448,0.033507523752885425
0.615,-0.0216,0.949,0.020560340090163543,1.1176980481593732,0.05252306644020566,0.03218256882934161
0.6160000000000003,-0.016900000000001907,1.949,0.020662773121764042,1.1180164509021098,0.0528336924197974,0.03220591992756925
0.6170000000000002,-0.0212,0.949,0.020670910437434735,1.1180164509021095,0.052858368655694765,0.03220591992756923
0.6180000000000001,-0.0092,-1.051,0.020617463878390946,1.13607774474999,0.052696293107413285,0.03353050351355009
0.619,-0.0128,-0.051,0.02061118372586093,1.131510810068553,0.052677248679057105,0.033195572540817585
0.6200000000000003,0.010099999999990807,-1.051,0.02062586224722308,1.1140146188136313,0.052721760981444675,0.03191243258702237
0.6210000000000002,-0.0106,-0.051,0.020629037666868962,1.1136950719573147,0.05273139037367006,0.031888997581513145
0.6220000000000001,-0.0131,0.949,0.02065340924296614,1.1318253270405652,0.05280529665742535,0.03321863866344139
0.623,-0.0012,-0.051,0.020650305578756252,1.1318253270405654,0.052795884862026375,0.03321863866344141
0.6240000000000003,0.023499999999989876,-1.051,0.0206390871153915,1.1321397566373848,0.052761865111583164,0.033241698378121944
0.6250000000000002,0.0007,-1.051,0.020688856503524453,1.1324540989317993,0.052912789717649455,0.03326475169019737
0.6260000000000001,-0.008,-0.051,0.02069658422688098,1.1324540989317993,0.05293622387360607,0.03326475169019737
0.627,-0.0054,1.949,0.020651558787753477,1.1367041644039122,0.05279968519153253,0.03357644403135073
0.6280000000000003,-0.0031999999999930725,-1.051,0.020666282923886743,1.1367041644039122,0.05284433581973883,0.03357644403135073
0.6290000000000002,0.0124,-0.051,0.020625646690948306,1.1321397566373859,0.052721107311647315,0.03324169837812203
0.6300000000000001,0.0182,-0.051,0.020533619266852873,1.1363909977400921,0.05244203611447297,0.0335534769379594
0.631,0.02,-1.051,0.020627792849273616,1.1363909977400921,0.052727615490910804,0.0335534769379594
0.6320000000000003,0.001799999999990141,-1.051,0.02076849998824561,1.1409383982314554,0.053154306883285006,0.03388697530748225
0.6330000000000002,-0.0204,0.949,0.020792003258469593,1.1454677461077618,0.05322558004803335,0.03421914972990641
0.6340000000000001,-0.0117,0.949,0.020764125757094107,1.1496697041146031,0.05314104212078442,0.03452731395400468
0.635,-0.0305,-0.051,0.021028603754527714,1.1541647877895063,0.05394306599677089,0.03485697550004536
0.6359999999999999,-0.0138,0.949,0.02105521466780067,1.1586424324127929,0.05402376302266272,0.03518535809665301
0.6370000000000002,-0.0072,-0.051,0.02134009380999405,1.1454677461077618,0.054887652934211946,0.03421914972990641
0.6380000000000001,-0.0253,0.949,0.02162814935151031,1.1499792546769847,0.05576117520883614,0.03455001584886422
0.639,0.0016,-1.051,0.022006869489301858,1.1544731330791853,0.0569096359343903,0.034879589002320625
0.6399999999999999,0.0126,-0.051,0.02203112988530784,1.1412503170590713,0.05698320506689468,0.03390985088675682
0.6410000000000002,-0.0036,0.949,0.02188258833834864,1.1412503170590713,0.056532755999700895,0.03390985088675682
0.6420000000000001,0.0113,-1.051,0.02200673481152295,1.145467746107761,0.056909227526903486,0.03421914972990635
0.643,0.0193,-1.051,0.02225404420242393,1.1451569760276203,0.0576591879704298,0.03419635839775511
0.6439999999999999,0.0214,-1.051,0.022887561618152898,1.1833497848489205,0.05958031599695093,0.03699735195299457
0.6450000000000002,0.0058,-0.051,0.023457844901921876,1.187717408357822,0.06130968786945806,0.037317665794204445
0.6460000000000001,0.0075,1.949,0.023484103860128197,1.1877174083578217,0.06138931759913071,0.03731766579420443
0.647,-0.0052,2.949,0.02344798228346057,1.1877174083578217,0.06127977968971356,0.03731766579420443
0.6479999999999999,-0.0201,0.949,0.02345585065424256,1.1880170452248109,0.061303640355982604,0.03733964063604641
0.6490000000000002,-0.0258,-1.051,0.02346693320204692,1.18801704522481,0.061337247945393095,0.03733964063604634
0.6500000000000001,-0.0132,-0.051,0.023494158333614616,1.1839511934868454,0.061419807575139415,0.037041458206786344
0.651,0.0115,-0.051,0.023547543842955404,1.18801704522481,0.061581697991501025,0.03733964063604634
0.6519999999999999,0.0442,-2.051,0.023572251266990925,1.19206902943179,0.06165662272695311,0.03763680604492701
0.6530000000000002,0.0572,-0.051,0.023620276307222743,1.1880170452248093,0.061802257635281535,0.03733964063604629
0.6540000000000001,-0.0025,-2.051,0.023660548697086135,1.192069029431788,0.061924382797022386,0.03763680604492686
0.655,-0.0279,-1.051,0.023514792294825296,1.179267841550938,0.06148237962161484,0.03669798939697
0.6559999999999999,-0.0356,-1.051,0.02303544238209808,1.1663261607723505,0.06002876125377397,0.03574886924651452
0.6570000000000003,-0.0145,-1.051,0.022603856067014066,1.1266094828551994,0.05871998497519792,0.032836117806787475
0.6580000000000001,-0.0083,-0.051,0.022514572702214793,1.1311962056484706,0.05844923507920551,0.03317250000490582
0.659,-0.0025,1.949,0.022562742180709427,1.135764405362192,0.058595307993479645,0.033507523752885425
0.6599999999999999,0.0241,-0.051,0.022422991230720283,1.100629138149941,0.058171516223764576,0.03093076493204043
0.6610000000000003,0.0384,-0.051,0.021780350436278104,1.0594584872411912,0.05622272174623934,0.02791138166541595
0.6620000000000001,0.0341,0.949,0.020484042507781835,1.0407517205442742,0.05229169565192094,0.026539460233750773
0.663,0.0063,-1.051,0.020048076982144353,1.0361081375175587,0.05096963951091424,0.026198908005924164
0.6639999999999999,-0.0191,-0.051,0.02013494065233639,1.0357645557758917,0.051233051734712994,0.026173710324114214
0.6650000000000003,-0.0224,0.949,0.02018133431686719,1.0404096722865437,0.05137373953108649,0.026514375014960845
0.6660000000000001,-0.0076,-0.051,0.020154317062626336,1.040067511538996,0.051291810284892006,0.02648928154636519
0.667,-0.0051,1.949,0.020118037866814955,1.0253704207478789,0.05118179439878934,0.025411422707040193
0.6679999999999999,-0.003,-0.051,0.02000967403655326,1.0253704207478789,0.050853183398983794,0.025411422707040193
0.6690000000000003,0.0083,-0.051,0.02015686243043583,1.0257174841900456,0.051299529058386174,0.025436875730653008
0.6700000000000002,0.0065,-1.051,0.020116370433759606,1.0307532615458432,0.05117673794367785,0.025806190802115974
0.671,0.012,1.949,0.02009580386184027,1.0260644302389739,0.05111437025378849,0.025462320144851783
0.6719999999999999,-0.0029,-1.051,0.020082256202859406,1.0260644302389739,0.05107328726740848,0.025462320144851783
0.6730000000000003,-0.0127,0.949,0.020039870596823148,1.0210055270111877,0.050944753822777536,0.02509130906253237
0.6740000000000002,-0.0145,0.949,0.020039938734717384,1.0407517205442742,0.05094496044948587,0.026539460233750773
0.675,-0.009,-0.051,0.020009971314065678,1.05557184987976,0.050854084886688126,0.02762634250393772
0.6759999999999999,-0.0043,-1.051,0.02022752710613841,1.0509937483509668,0.0515138181775275,0.02729059257422242
0.6770000000000003,0.0096,-1.051,0.020466534078751358,1.05557184987976,0.0522386017149972,0.02762634250393772
0.6780000000000002,-0.003,-0.051,0.020464161906504328,1.0407517205442742,0.05223140815334545,0.026539460233750773
0.679,0.005,-1.051,0.020558252760116087,1.0361081375175587,0.052516736656437746,0.026198908005924164
0.6799999999999999,0.0216,-0.051,0.02057704583309011,1.0407517205442745,0.052573726248670676,0.026539460233750787
0.6810000000000003,0.0282,0.949,0.020997584300839,1.0826339904940894,0.05384900016626773,0.029611032391669845
0.6820000000000002,0.0223,0.949,0.021059534017767948,1.0826339904940894,0.05403686135914482,0.029611032391669845
0.683,-0.0053,-1.051,0.021372816348913824,1.1186529845062239,0.054986883334287646,0.032252602184722916
0.6839999999999999,-0.0333,0.949,0.021318734006882313,1.1321397566373679,0.05482287978768099,0.03324169837812071
0.6850000000000003,-0.0152,0.949,0.02132810989857663,1.1275568720666296,0.054851311978904735,0.03290559766850531
0.6860000000000002,-0.0381,0.949,0.02111044429964528,1.1318253270405485,0.054191245701112896,0.033218638663440166
0.687,-0.0352,0.949,0.02110985312645087,1.1315108100685431,0.054189452981032726,0.03319557254081686
0.688,-0.0432,0.949,0.02109798436039134,1.135764405362192,0.05415346120156294,0.033507523752885425
0.6890000000000003,-0.0266,0.9489999999998889,0.020997283712791727,1.1311962056484706,0.053848088639437186,0.03317250000490582
0.6900000000000002,-0.0063,-0.05100000000011102,0.021064536886845633,1.1315108100685431,0.05405203245272414,0.03319557254081686
0.6910000000000001,0.0234,-1.051,0.02111241802828685,1.1315108100685431,0.05419723099104483,0.03319557254081686
0.692,0.0354,-1.051000000000222,0.02117927615884004,1.14484612158849,0.05439997684335694,0.03417356087886364
0.6930000000000003,0.0536,-3.050999999999556,0.02126838536694568,1.1406263941056445,0.0546701986128972,0.03386409347258779
0.6940000000000002,0.0569,0.9489999999998889,0.021181847077887388,1.1406263941056445,0.054407773100433945,0.03386409347258779
0.6950000000000001,0.0123,-0.051,0.021090537769896906,1.1363909977400746,0.054130879575003524,0.03355347693795812
0.696,-0.0066,-0.050999999999888974,0.021227858030164595,1.1757773114784078,0.05454730033007602,0.03644200004873244
0.6970000000000003,-0.0124,0.9489999999997779,0.021394604570292703,1.1969996720975449,0.0550529556500595,0.03799841072277584
0.6980000000000002,-0.0073,-1.050999999999889,0.021479705676497138,1.1757773114784078,0.05531102293622742,0.03644200004873244
0.6990000000000001,-0.012,-0.05100000000011102,0.021424946017616044,1.1886160923534688,0.055144965440746964,0.037383573700893936
0.7,-0.0163,-1.051,0.02127900831385636,1.1845522967838384,0.054702412472418124,0.037085542067410174
0.7010000000000003,-0.0123,-1.050999999999889,0.021250272454824,1.1845522967838384,0.05461527159391567,0.037085542067410174
0.7020000000000002,-0.016,-0.05100000000011102,0.02128165695700326,1.1889155027293168,0.054710444426166245,0.0374055319322732
0.7030000000000001,0.0138,-1.050999999999778,0.021215567821214146,1.176382591440532,0.0545100305340447,0.036486390218645255
0.704,0.0098,0.949,0.021073924880718315,1.2135931010852155,0.05408050134354519,0.03921534367660112
0.7050000000000003,-0.008499999999995737,0.949,0.021778501367536077,1.2135931010852155,0.056217114484789096,0.03921534367660112
0.7060000000000002,0.0011,-0.051,0.021624156862826545,1.2135931010852155,0.05574906807221208,0.03921534367660112
0.7070000000000001,-0.0077,0.949,0.02134609012366013,1.213886350788287,0.054905836627278166,0.03923685009505342
0.708,-0.0157,0.949,0.021453673587944186,1.2099074350727586,0.055232081183930984,0.03894504340107126
0.7090000000000003,-0.017899999999994982,0.949,0.021835536250604592,1.2099074350727586,0.05639007154900209,0.03894504340107126
0.7100000000000002,-0.0066,-0.051,0.021849112705438052,1.1972969859772071,0.05643124185818979,0.038020215200805035
0.7110000000000001,-0.0085,-0.051,0.02171905726707362,1.2135931010852155,0.05603685152030791,0.03921534367660112
0.712,0.0155,-0.051,0.021376826696126307,1.2175599723165151,0.05499904462651845,0.03950626704925285
0.7130000000000003,0.018700000000001243,-1.051,0.021183124632742363,1.2172676076191788,0.05441164725823352,0.03948482553556764
0.7140000000000002,0.0215,-1.051,0.021284693840451667,1.2172676076191788,0.054719653710332966,0.03948482553556764
0.7150000000000001,0.0189,-1.051,0.021417216766081826,1.2332998706439748,0.05512152665062415,0.04066060356274728
0.716,0.0118,0.949,0.02130476046324995,1.2332998706439748,0.0547805053151954,0.04066060356274728
0.7170000000000003,-0.003800000000009859,0.949,0.021373139520471606,1.2332998706439748,0.054987863345131255,0.04066060356274728
0.7180000000000002,-0.026,0.949,0.021369320309500714,1.2206394981679618,0.054976281669468975,0.03973211406939358
0.7190000000000001,0.0008,0.949,0.021385315398123127,1.224874162231358,0.05502478643394155,0.040042676898267314
0.72,0.0044,-0.051,0.02137022091396706,1.2290942364669228,0.054979012733269515,0.04035216973477892
0.7210000000000003,0.007599999999996092,-0.051,0.021367155643465488,1.2410949654647587,0.05496971736597064,0.041232282133382266
0.7220000000000002,-0.0012,-0.051,0.02133595151041468,1.2285149274059552,0.05487509149924806,0.040309684225167564
0.7230000000000001,0.0013,1.949,0.021398435952842253,1.2245835437704922,0.05506457423577398,0.04002136345049951
0.724,-0.0208,1.949,0.021365685327604963,1.2369158356524237,0.05496525866454055,0.040925792088996445
0.7250000000000003,-0.029600000000001157,-0.051,0.021327285829565057,1.2369158356524237,0.054848813007235424,0.040925792088996445
0.7260000000000002,-0.0322,-1.051,0.02131042536962251,1.2410949654647587,0.054797684022725356,0.041232282133382266
0.7270000000000001,0.0044,-1.051,0.021388042318297756,1.2413817184615075,0.05503305576110367,0.04125331209479717
0.728,0.0199,-0.051,0.021384974752173717,1.2374912119868497,0.05502375343237871,0.040967989179346756
0.7290000000000003,0.0152000000000135,-1.051,0.02142112601643936,1.2416684052350366,0.0551333813688025,0.041274337199517404
0.7300000000000002,0.0456,-3.051,0.021434585072557178,1.2419550258312066,0.05517419566889354,0.04129535745090628
0.7310000000000001,0.0257,-1.051,0.021425700784089178,1.2458315927015,0.05514725425394927,0.04157965806024222
0.732,0.0365,-3.051,0.021239440484008113,1.2573895859797968,0.054582423873868524,0.04242730099835352
0.7330000000000003,0.013599999999988054,1.949,0.021208223321458282,1.2688423008742,0.054487758495468566,0.043267223004595914
0.7340000000000002,-0.0133,-0.051,0.021320715388072835,1.2804705602525568,0.0548288882838041,0.044120019135140395
0.7350000000000001,-0.0025,-1.051,0.021073222162300603,1.2764203566455918,0.0540783703649588,0.043822984312339164
0.736,0.0137,-1.051,0.021043610622479485,1.2761414769651465,0.05398857400317554,0.04380253176612111
0.7370000000000003,-0.0013000000000059507,-1.051,0.02080724589088678,1.2720774899417677,0.05327180300514167,0.043504486091755515
0.7380000000000002,-0.0147,-0.051,0.02066901908533996,1.2717976579582437,0.05285263317088081,0.04348396370530136
0.7390000000000001,-0.0169,0.949,0.020329789150769727,1.271517764390101,0.05182392564278877,0.04346343680233936
0.74,-0.019,-0.051,0.02041854704398577,1.3028696338421877,0.05209308205743303,0.045762727872836084
0.7410000000000003,-0.017200000000002352,1.949,0.02072383699164337,1.3184009786163504,0.05301886730042484,0.04690176943482694
0.7420000000000002,-0.0225,-0.051,0.020772691849512488,1.3301311690428361,0.05316701861300726,0.047762041009511286
0.7430000000000001,0.0023,-1.051,0.020471093521991935,1.3265009821607727,0.0522524281292004,0.04749580947601633
0.744,-0.0085,-0.051,0.019800877197048188,1.2965448588191886,0.05022001144464902,0.04529887997516902
0.7450000000000003,-0.024800000000001286,2.949,0.01909281052274405,1.296270308732711,0.04807281438442922,0.0452787449537724
0.7460000000000002,-0.0277,2.949,0.019210053115803587,1.3113370488450036,0.048428350042702344,0.046383713225429425
0.7470000000000001,-0.0198,1.949,0.01945388524716581,1.3150090976336577,0.04916776577097769,0.04665301483766929
0.748,-0.013,1.949,0.01963278620780253,1.3110655963928937,0.04971027911144408,0.04636380537909973
0.7490000000000003,-0.006499999999993916,-0.051,0.01963208660777612,1.322322604068621,0.049708157589312685,0.04718937456146917
0.7500000000000002,0.0072,-0.051,0.019599704383427674,1.3259642304438615,0.04960995918590287,0.04745644504731284
0.7510000000000001,0.0163,0.949,0.01961102352380944,1.3376280973646197,0.04964428423724895,0.04831185257251152
0.752,0.0409,-1.051,0.019577603638527674,1.3378941604206849,0.049542939149231066,0.04833136516999584
0.7530000000000003,0.05170000000000147,-3.051,0.01957849916807217,1.3378941604206849,0.049545654823439526,0.04833136516999584
0.7540000000000002,0.055,-2.051,0.019679191813741975,1.3342850944614537,0.04985100311988413,0.048066682607905704
0.7550000000000001,0.0104,-1.051,0.019693799520971646,1.3303987313913725,0.04989530067992807,0.04778166356247359
0.756,-0.0085,0.949,0.01967807715291438,1.3265009821607885,0.04984762293474195,0.04749580947601748
0.7570000000000003,-0.025900000000006928,-0.051,0.019707907343443815,1.3303987313913725,0.049938082350126166,0.04778166356247359
0.7580000000000002,-0.0415,-0.051,0.019751415620059717,1.3265009821607885,0.05007002026930123,0.04749580947601748
0.7590000000000001,-0.0081,0.949,0.019694575486143954,1.3265009821607885,0.04989765377773266,0.04749580947601748
0.76,-0.0038,-2.051,0.019659478885721473,1.3225917461028176,0.04979122408687774,0.04720911296580482
0.7609999999999999,0.0002,-1.051,0.019720065105536207,1.3265009821607885,0.04997495050389048,0.04749580947601748
0.7620000000000002,0.0184,-1.051,0.019718382406252198,1.3303987313913728,0.049969847754266786,0.04778166356247361
0.7630000000000001,0.0217,-1.051,0.019922481764183177,1.334285094461454,0.05058877469610152,0.04806668260790572
0.764,0.0305,-2.051,0.019898873686853197,1.345876851626741,0.0505171837060437,0.048916801730219714
0.7649999999999999,-0.0046,0.949,0.019787926167128794,1.3458768516267403,0.05018073772314946,0.048916801730219665
0.7660000000000002,-0.0187,-0.051,0.019698649172577666,1.3422892492152887,0.04991000714479844,0.04865369326704653
0.7670000000000001,0.0031,-1.051,0.01968713521621506,1.3422892492152878,0.04987509131815319,0.048653693267046466
0.768,-0.0088,0.949,0.01991071250924019,1.3384261278623875,0.05055308468196634,0.048370378728353855
0.7689999999999999,0.0021,0.949,0.019768749424012154,1.3384261278623875,0.05012258465940711,0.048370378728353855
0.7700000000000002,0.0054,-2.051,0.019780261668891057,1.3384261278623875,0.05015749529601461,0.048370378728353855
0.7710000000000001,-0.0033,-1.051,0.01977617199875532,1.3422892492152863,0.05014509345871397,0.04865369326704635
0.772,-0.0166,-0.051,0.019799197051379724,1.3458768516267376,0.0502149164388099,0.048916801730219464
0.7729999999999999,-0.0046,1.949,0.019814212962241947,1.349454916227459,0.050260451867647264,0.04917921070709633
0.7740000000000002,-0.0068,0.949,0.01984891698101122,1.3381601705760857,0.050365691063027324,0.048350873887838305
0.7750000000000001,0.003,0.949,0.01975631228607987,1.3228608333788345,0.05008486930437788,0.04722884735427169
0.776,0.0187,0.949,0.019550988283756003,1.3265009821607767,0.049462228654589296,0.04749580947601662
0.7769999999999999,-0.0089,-0.051,0.019295386165471887,1.3228608333788336,0.04868712069246839,0.04722884735427162
0.7780000000000002,-0.0128,0.949,0.019294514513769824,1.3192106402322488,0.04868447742730689,0.04696114859645569
0.7790000000000001,-0.0091,0.949,0.019233514465234944,1.3228608333788336,0.04849949608354279,0.04722884735427162
0.78,0.0207,-1.051,0.019183328744506015,1.3228608333788336,0.04834730895777519,0.04722884735427162
0.7809999999999999,0.0009,-2.051,0.018650510718747685,1.2925450251794761,0.04673154967964683,0.04500553919734657
0.7820000000000003,0.0191,-2.051,0.018747568366489695,1.2928203663868731,0.04702587492254617,0.04502573223816269
0.7830000000000001,0.0225,-2.051,0.018390164089890165,1.2740345928646848,0.04594205409059035,0.04364801658462081
0.784,0.0077,-0.051,0.018731253538626664,1.3205589731035705,0.046976400555658444,0.04706003296237286
0.7849999999999999,0.0103,-1.051,0.01898011333632319,1.335884672819039,0.04773106257466395,0.048183992876748724
0.7860000000000003,-0.0215,-0.051,0.0190361288202206,1.3322701632503327,0.04790092833267256,0.0479189110898954
0.7870000000000001,-0.0258,-1.051,0.019281824054076285,1.3322701632503327,0.048645993879449505,0.0479189110898954
0.788,-0.0218,-1.051,0.01994459000345818,1.3433494925271052,0.050655817459305384,0.04873144965038243
0.7889999999999999,-0.0327,2.949,0.020975911923535068,1.357893958099953,0.05378327914517786,0.049798115224118096
0.7900000000000003,-0.036,1.949,0.021171356087326815,1.3685058330170339,0.05437595939572514,0.05057637150243544
0.7910000000000001,-0.0274,1.949,0.021117877389809213,1.3722842795193286,0.05421378638820854,0.05085347613622301
0.792,-0.0031,-0.051,0.02104779079762559,1.3573696203272743,0.05400125029498626,0.049759661212293166
0.7929999999999999,0.0132,0.949,0.021008804511125887,1.3573696203272743,0.05388302521421499,0.049759661212293166
0.7940000000000003,0.022,-1.051,0.021012157456765435,1.3573696203272743,0.053893192950222886,0.049759661212293166
0.7950000000000002,0.0245,-2.051,0.02108354166629179,1.371765442252769,0.05410966404031018,0.050815425521861246
0.796,0.0314,-1.051,0.021192665013396172,1.3417588133871103,0.05444057825871221,0.04861479203453579
0.7969999999999999,0.0292,-0.051,0.021073315019685793,1.3073824715282347,0.054078651952995264,0.04609369146688863
0.7980000000000003,0.0071,-2.051,0.020986343326526772,1.2957210340366627,0.053814912151857304,0.04523846211176185
0.7990000000000002,0.0041,-1.051,0.020951109331576068,1.2836764435021493,0.053708065815031326,0.044355132985053176
0.8,0.0176,1.949,0.021000593856642078,1.2836764435021493,0.05385812657993391,0.044355132985053176
0.8009999999999999,-0.0045,0.949,0.020990369221147397,1.2836764435021493,0.05382712059127109,0.044355132985053176
0.8020000000000003,0.0161,-0.051,0.02107688248876031,1.279636386942826,0.05408947022673588,0.04405884232891384
0.8030000000000002,0.0242,-0.051,0.020794937993917312,1.2758625363268281,0.05323447957057063,0.04378207474935966
0.804,-0.0124,-0.051,0.020293937000599505,1.244688285017287,0.051715204763468026,0.04149580988164608
0.8049999999999999,0.0032,-0.051,0.019617931233820773,1.228804616075212,0.049665231720257906,0.04033092948365092
0.8060000000000003,-0.0109,0.949,0.019745361057814034,1.2248741622313641,0.050051659938661994,0.04004267689826777
0.8070000000000002,-0.0152,-0.051,0.01981832014317662,1.2206394981679682,0.050272906806071514,0.03973211406939406
0.808,0.0047,0.949,0.01967381971462744,1.220639498167968,0.04983471234410757,0.03973211406939404
0.8089999999999999,-0.0135,-0.051,0.019286613615851385,1.220639498167968,0.04866051812319158,0.03973211406939404
0.8100000000000003,-0.0168,0.949,0.019437668810491145,1.23243377024692,0.04911858977326631,0.040597085279981224
0.8110000000000002,-0.0081,0.949,0.019438709386056942,1.2163900919004198,0.0491217452964351,0.03942047007314628
0.812,-0.0324,0.949,0.019703513124166728,1.2494112897402763,0.04992475697406183,0.04184218675726044
0.813,-0.016,1.948999999999667,0.019941269326590547,1.2617830072453708,0.05064574757765882,0.04274950680175235
0.8140000000000003,0.0047,-1.050999999999889,0.019918434080942328,1.2740345928646846,0.050576500183162475,0.043648016584620794
0.8150000000000002,0.0022,-0.050999999999888974,0.019981719662630567,1.2626289756926197,0.05076841235737803,0.042811548642659285
0.8160000000000001,-0.0097,0.9489999999998889,0.02000192772153666,1.2626289756926197,0.050829692864215265,0.042811548642659285
0.817,-0.03,-0.050999999999888974,0.01995548853312228,1.2664422613938455,0.05068886701763754,0.04309120832213967
0.8180000000000003,0.0106,0.949,0.02014312006474929,1.2626289756926197,0.0512578556280816,0.042811548642659285
0.8190000000000002,-0.0068,0.949,0.020654260931855337,1.2740345928646846,0.052807879385783386,0.043648016584620794
0.8200000000000001,-0.0018,0.9489999999997779,0.02121740536404057,1.2737551908382587,0.05451560284340215,0.04362752573046546
0.821,0.0122,-1.051,0.021262823613210264,1.274313933630311,0.054653332713535265,0.04366850294601664
0.8220000000000003,0.0078,-1.050999999999778,0.02128474606747898,1.285892714276786,0.05471981208767733,0.044517670393219945
0.8230000000000002,0.0118,0.9489999999998889,0.021221926886688128,1.28963721403187,0.05452931426421728,0.044792285432157235
0.8240000000000001,0.0081,-0.05100000000011102,0.021284984759798356,1.2778138420762415,0.05472053591703558,0.04392518008769656
0.825,-0.0083,-1.050999999999889,0.021283180617206982,1.277535266586865,0.05471506489317724,0.04390474985031752
0.8260000000000003,0.0066,-0.051,0.02134644835256297,1.2734757275107111,0.05490692294877157,0.04360703038059347
0.8270000000000002,0.004,-0.05100000000011102,0.021279367722795612,1.269403206134559,0.05470350237234674,0.04330835881177669
0.8280000000000001,-0.0127,-1.051,0.021265971575986784,1.2734757275107111,0.054662878843391,0.04360703038059347
0.829,-0.0062,-1.051,0.021230000581609815,1.2731962028416752,0.0545537975715527,0.04358653053204441
0.8300000000000003,-0.008000000000010658,-1.050999999999778,0.021210791209838036,1.2731962028416755,0.054495545562110836,0.04358653053204442
0.8310000000000002,-0.032,0.949000000000111,0.021123156708934908,1.269403206134559,0.05422979581065141,0.04330835881177669
0.8320000000000001,-0.0023,1.949000000000222,0.02119447000442187,1.28963721403187,0.05444605185542951,0.044792285432157235
0.833,-0.0381,3.949,0.021124879130457446,1.2783708109381229,0.05423501901711469,0.043966027206322957
0.8340000000000003,-0.03339999999997859,1.949,0.021015979688314316,1.2789275372418651,0.05390478378572337,0.04400685653616121
0.8350000000000002,0.0148,-0.051,0.021032744418466587,1.2829698259623175,0.05395562247168993,0.04430331089507942
0.8360000000000001,0.0336,-1.051,0.021245245532790204,1.295020988545163,0.05460002756026089,0.04518712200427617
0.837,0.051,-2.051,0.02126094586739398,1.2987391701023934,0.0546476384894701,0.0454598069127819
0.8380000000000003,0.06659999999998521,-2.051,0.02125732689899448,1.299013198388195,0.05463666404512689,0.04547990366623292
0.8390000000000002,0.0333,-2.051,0.021145762935918487,1.295295803436792,0.05429834871094079,0.04520727644601778
0.8400000000000001,0.0116,0.949,0.020897702796328108,1.2634743777156767,0.05354611163805549,0.04287354894301029
0.841,-0.0004,-0.051,0.020602110927406426,1.2634743777156767,0.052649735611606754,0.04287354894301029
0.8420000000000003,-0.01849999999998983,-0.051,0.0204192154532966,1.251119385470989,0.052095108994385894,0.04196745549975707
0.8430000000000002,0.0044,-1.051,0.0204192154532966,1.2549676441594295,0.052095108994385894,0.04224968003672814
0.8440000000000001,0.0193,-2.051,0.02038361698599652,1.2546839961753693,0.0519871574029483,0.042228877791493265
0.845,0.0328,-1.051,0.02026474528386203,1.2549676441594295,0.05162668150621534,0.04224968003672814
0.8460000000000003,0.01619999999999507,-0.051,0.0201894019007565,1.2555347478839511,0.0513982043068468,0.042291270428389816
0.8470000000000002,0.0051,0.949,0.020037745784615257,1.2558182037112262,0.05093831037515901,0.04231205858118338
0.8480000000000001,-0.0046,-1.051,0.01999219512477084,1.2599346370295277,0.05080017897248408,0.042613950574754304
0.849,0.0158,-0.051,0.02001675255738312,1.2481150661701688,0.05087464886215013,0.04174712399602158
0.8500000000000003,-0.0030000000000098143,-0.051,0.020028545709348096,1.259934637029528,0.05091041134349386,0.04261395057475432
0.8510000000000002,-0.0251,-0.051,0.02041135710726507,1.2593695146102988,0.052071278727958414,0.04257250548854481
0.8520000000000001,-0.0222,-0.051,0.022164203249360366,1.2708043861614062,0.0573867471999402,0.043411118895312115
0.853,-0.0248,0.949,0.023951518446915003,1.3053260134711009,0.06280674234608524,0.04594287444288804
0.8540000000000003,-0.018100000000002933,-0.051,0.024237276925874653,1.305326013471101,0.06367329882758897,0.045942874442888054
0.8550000000000002,-0.0247,-0.051,0.024503647851870595,1.305326013471101,0.06448106296899361,0.045942874442888054
0.8560000000000001,-0.019,-0.051,0.024546787690915967,1.3090149245253546,0.06461188360910862,0.04621341270408693
0.857,-0.01,-0.051,0.02461837907382303,1.308742990430759,0.06482898294804615,0.04619346953494281
0.8580000000000003,0.01460000000000484,-0.051,0.024620248993622924,1.3126934690992726,0.06483465343988383,0.046483190705815344
0.8590000000000002,0.0255,-2.051,0.02470769634321206,1.3126934690992726,0.06509983565898253,0.046483190705815344
0.8600000000000001,-0.0043,-0.051,0.024723913710378877,1.316632094637724,0.06514901447839147,0.046772042588936094
0.861,-0.0322,2.949,0.02469357201338713,1.3281099357524426,0.0650570039305899,0.04761380730806982
0.8620000000000003,-0.03579999999999276,1.949,0.024690495968324733,1.3242054495546076,0.06504767588966555,0.047327459144261605
0.8630000000000002,-0.0195,1.949,0.024552201746441654,1.3202894166870698,0.0646283016168055,0.04704026416796644
0.8640000000000001,-0.0344,0.949,0.024549628256871472,1.3047805509691743,0.06462049756467293,0.04590287118050245
0.865,-0.0101,0.949,0.02457589626167639,1.3047805509691752,0.0647001547279625,0.045902871180502514
0.8660000000000003,0.012800000000006573,-1.051,0.02461767481622545,1.3384261278623908,0.0648268473019297,0.0483703787283541
0.8670000000000002,0.0276,-0.051,0.02460120275280693,1.3345518239957856,0.06477689612157969,0.04808624408373618
0.8680000000000001,0.0465,-2.051,0.024450685503187373,1.3381601705760942,0.06432045577828419,0.04835087388783892
0.869,0.0486,-1.051,0.024430960109208165,1.3342850944614513,0.06426063894252439,0.048066682607905524
0.8700000000000003,0.014899999999997913,1.949,0.024421971227244686,1.3342850944614515,0.06423338035003999,0.04806668260790554
0.8710000000000002,0.0102,-2.051,0.024435769292492287,1.3303987313913719,0.06427522268807331,0.04778166356247354
0.8720000000000001,-0.0029,-1.051,0.024428300659388304,1.3267692765895691,0.06425257421777143,0.04751548571845981
0.873,0.017,0.949,0.0244655862667915,1.3231298659301172,0.06436564202552178,0.04724857772932261
0.8740000000000003,0.00619999999998983,-1.051,0.024441601565418657,1.323129865930118,0.0642929089311015,0.04724857772932267
0.8750000000000002,-0.0167,-0.051,0.02442861846728235,1.3267692765895718,0.06425353796341937,0.04751548571846
0.8760000000000001,-0.008,-0.051,0.024514308584070266,1.3267692765895727,0.06451339141159602,0.047515485718460065
0.877,0.0047,0.949,0.024628529047661007,1.3420240575080955,0.06485976252683034,0.04863424457275891
0.8780000000000003,-0.003299999999999023,-1.051,0.024726900415928732,1.3420240575080955,0.065158071599153,0.04863424457275891
0.8790000000000002,-0.0011,0.949,0.02474475333876927,1.3535495400513433,0.06521221020619479,0.04947950323063112
0.8800000000000001,-0.0076,-0.051,0.02473816509520536,1.3649777081754537,0.06519223149836147,0.05031762501982967
0.881,-0.0174,2.949,0.024742742581977346,1.3614404403535822,0.0652061126291881,0.050058208007098925
0.8820000000000003,-0.008399999999999333,0.949,0.024561958982831065,1.3611789797824823,0.06465789022766873,0.05003903294778274
0.8830000000000002,-0.0069,1.949,0.024690896678823345,1.3497186479259147,0.0650488910356904,0.04919855232690604
0.8840000000000001,-0.0114,0.949,0.024400374186639043,1.2922696253057153,0.06416788778587793,0.04498534185404231
0.885,-0.0317,1.949,0.024182409699042288,1.2804705602525726,0.06350691513459475,0.044120019135141554
0.8860000000000003,-0.02300000000000111,-1.051,0.02415418040286025,1.2804705602525723,0.06342131039711191,0.04412001913514154
0.8870000000000002,-0.0255,0.949,0.023945460785745103,1.27669917540812,0.06278837261802454,0.0438434323909441
0.8880000000000001,0.0014,-0.051,0.023432011860361885,1.2612187130376111,0.06123134972291464,0.042708122455118167
0.889,0.0051,-1.051,0.022477671383796787,1.2612187130376091,0.05833733261959146,0.04270812245511802
0.8899999999999999,0.0083,1.949,0.022384661359227464,1.2494112897402843,0.058055281707475745,0.04184218675726103
0.8910000000000002,-0.0005,-1.051,0.022535561351229784,1.249126380036066,0.05851288270886873,0.04182129197968458
0.8920000000000001,-0.0031,-1.051,0.022688527761882748,1.252980759823456,0.05897675008066561,0.04210396542730762
0.893,-0.0054,-1.051,0.022627895584618793,1.2571064844721795,0.0587928842986701,0.04240653883074169
0.8939999999999999,0.001,0.949,0.022639553150774754,1.2573895859798094,0.058828235618945124,0.04242730099835445
0.8950000000000002,-0.0172,1.949,0.0226068860788144,1.2458315927015107,0.05872917342123868,0.041579658060243
0.8960000000000001,-0.0194,0.949,0.02243057547315532,1.2458315927015116,0.05819451527689261,0.041579658060243066
0.897,-0.0259,0.949,0.02237571318890166,1.2615008916939798,0.05802814657216268,0.0427288169424394
0.8979999999999999,-0.0122,-1.051,0.022387173930820486,1.2612187130376047,0.05806290102714424,0.042708122455117695
0.8990000000000002,0.008,-2.051,0.022382725033921615,1.261218713037605,0.05804940984236017,0.04270812245511771
0.9000000000000001,0.0431,-2.051,0.022341200938361762,1.2650362497976069,0.05792348890984061,0.04298809389978642
0.901,0.0865,-2.051,0.022384308082459538,1.2650362497976069,0.05805421040322565,0.04298809389978642
0.9019999999999999,0.0922,-3.051,0.022244478986729523,1.2810263740182959,0.05763018165822116,0.04416078154104337
0.9030000000000002,0.0443,-0.051,0.02226750641970715,1.285062060658823,0.057700011856687376,0.044456751715009166
0.9040000000000001,0.0381,-0.051,0.022232214380238414,1.2850620606588237,0.05759298950110073,0.044456751715009214
0.905,-0.0149,-1.051,0.022739927608912847,1.300806041411698,0.05913261901849867,0.045611387626417255
0.9059999999999999,-0.0217,-1.051,0.02265644908813098,1.3047805509691683,0.05887947218795411,0.045902871180502014
0.9070000000000003,-0.0155,0.949,0.022601527852954325,1.3047805509691683,0.05871292471580984,0.045902871180502014
0.9080000000000001,-0.0213,0.949,0.022763671824403503,1.3202894166870656,0.0592046228446198,0.047040264167966125
0.909,-0.0162,0.949,0.022755118668005385,1.3202894166870656,0.05917868558060199,0.047040264167966125
0.9099999999999999,-0.0115,1.949,0.02262772315344843,1.320289416687064,0.05879236140483039,0.047040264167966014
0.9110000000000003,-0.0071,-0.051,0.02282438481693808,1.32393663556895,0.059388733697196654,0.04730774479842995
0.9120000000000001,-0.0192,-0.051,0.022669389014714703,1.2928203663868705,0.0589187122388255,0.045025732238162496
0.913,-0.0156,-0.051,0.022432589113369577,1.2807484972866339,0.0582006215978159,0.04414040254932852
0.9139999999999999,-0.0123,-1.051,0.02236310553126136,1.2685617552406583,0.05798991411976247,0.04324664828030219
0.9150000000000003,0.0145,-3.051,0.02210384714995033,1.2644734074091961,0.057203718618137604,0.042946816027034755
0.9160000000000001,-0.0036,-0.051,0.022094925247571978,1.2644734074091961,0.05717666313981392,0.042946816027034755
0.917,0.0127,-1.051,0.022195705013266058,1.2644734074091961,0.05748227562587059,0.042946816027034755
0.9179999999999999,0.004,-0.051,0.02209848982735245,1.2644734074091961,0.05718747265183207,0.042946816027034755
0.9190000000000003,0.0015,0.949,0.021620354810957643,1.2526966619494362,0.055737538431159944,0.04208313018793285
0.9200000000000002,0.0084,-0.051,0.021140361357471275,1.2529807598234435,0.05428196853971779,0.04210396542730671
0.921,0.0106,-0.051,0.021109616024513327,1.2405212606178997,0.05418873397447341,0.04119020762699598
0.9219999999999999,-0.0156,-0.051,0.021089109948227998,1.2288046160752057,0.05412654973630152,0.04033092948365046
0.9230000000000003,-0.0047,0.949,0.021154698415886655,1.2413817184615072,0.05432544536301548,0.04125331209479716
0.9240000000000002,-0.0015,-1.051,0.021166331632126965,1.2413817184615075,0.05436072284269159,0.04125331209479717
0.925,-0.0221,-1.051,0.021446339533921662,1.2416684052350366,0.055209840821818006,0.041274337199517404
0.9259999999999999,-0.0246,1.949,0.021876716959158826,1.2778138420762355,0.05651495116776443,0.04392518008769612
0.9270000000000003,-0.0224,-0.051,0.022233988452628722,1.2778138420762355,0.057598369337716865,0.04392518008769612
0.9280000000000002,-0.0158,1.949,0.022451024437661404,1.2778138420762355,0.05825652632481426,0.04392518008769612
0.929,0.0024,1.949,0.022471294357604515,1.2740345928646786,0.058317994423924435,0.04364801658462035
0.9299999999999999,0.0093,-0.051,0.02249944478508313,1.2699638636597619,0.05840335999374936,0.043349476450496
0.9310000000000003,0.0115,-1.051,0.022713235655567498,1.2699638636597619,0.05905167624031894,0.043349476450496
0.9320000000000002,0.0253,-1.051,0.022907875688208686,1.2374912119868495,0.05964191798033442,0.04096798917934674
0.933,0.005,-1.051,0.02289408425732149,1.2332998706439746,0.05960009576085726,0.04066060356274726
0.9339999999999999,0.0075,0.949,0.022884254053899405,1.2206394981679618,0.05957028587902656,0.03973211406939358
0.9350000000000003,-0.0091,-0.051,0.02295672124999609,1.2206394981679618,0.059790041102747674,0.03973211406939358
0.9360000000000002,-0.0112,-0.051,0.02276153992594025,1.2081410744087369,0.059198157908083304,0.0388155016106441
0.937,-0.013,-0.051,0.022678488945870223,1.2081410744087369,0.05894630758561192,0.0388155016106441
0.938,0.0074,-2.050999999999889,0.022585958487431394,1.2081410744087369,0.05866571094753981,0.0388155016106441
0.9390000000000003,0.0263,-1.051,0.02276594020842141,1.2444022939671824,0.05921150167068444,0.04147483580006053
0.9400000000000002,0.0285,-1.051,0.02303547789761999,1.2444022939671824,0.06002886895383529,0.04147483580006053
0.9410000000000001,0.0263,-1.050999999999778,0.023202505344666547,1.2318560316806808,0.060535376118046685,0.040554714947696406
0.942,0.0082,0.949,0.02325221719877913,1.2279353450415504,0.06068612625342555,0.040267178671961876
0.9430000000000003,-0.0085,0.949,0.02325161566932253,1.2240020998415602,0.06068430212820159,0.03997872137341919
0.9440000000000002,-0.015,0.9489999999997779,0.02327732379461874,1.2200561746209826,0.06076226146884424,0.03968933414442517
0.9450000000000001,-0.0168,-1.051000000000111,0.02328589099468278,1.2197644082372265,0.06078824131997888,0.039667936510007655
0.946,-0.0041,-2.050999999999889,0.023236771523814613,1.2029602462150764,0.06063928757413096,0.03843554876535473
0.9470000000000003,-0.0088,-1.051,0.023165653775733597,1.1986481657098549,0.06042362452268304,0.03811930835053447
0.9480000000000002,-0.0011,-1.051,0.023047188160461377,1.198648165709855,0.06006438007568286,0.03811930835053448
0.9490000000000001,0.008,-1.050999999999889,0.023103336188774155,1.1989450707968543,0.06023464777179894,0.03814108284842736
0.95,0.0142,-0.05099999999977795,0.023118063102513783,1.1995386605045384,0.060279306823037185,0.038184615675600636
0.9510000000000003,-0.0024,1.948999999999889,0.022736433299888784,1.1830489658815888,0.05912202260104782,0.036975290417988534
0.9520000000000002,-0.0244,0.949,0.02104097401791578,1.1663261607723505,0.053980578556173726,0.03574886924651452
0.9530000000000001,-0.0214,0.949000000000111,0.018913868271655383,1.1275568720666296,0.04753017583154957,0.03290559766850531
0.954,-0.0511,1.948999999999889,0.018418197516048715,1.1275568720666298,0.046027064856412205,0.03290559766850532
0.9550000000000003,-0.015199999999997956,0.9489999999998889,0.01802723662650639,1.1454677461077445,0.044841484312727956,0.03421914972990514
0.9560000000000002,-0.0106,-0.05099999999977795,0.01796566400285607,1.1454677461077427,0.04465476664716077,0.03421914972990501
0.9570000000000001,0.0289,1.948999999999778,0.01789146189662464,1.1412503170590529,0.044429750345526715,0.033909850886755466
0.958,0.0132,-0.05100000000022204,0.017825049726735095,1.1367041644038927,0.044228356859398035,0.0335764440313493
0.9590000000000003,0.008500000000009637,-2.050999999999889,0.017708579375077898,1.1499792546769654,0.04387516300667665,0.034550015848862796
0.9600000000000002,0.0302,-1.051,0.017635385012503217,1.1499792546769616,0.04365320266614873,0.03455001584886252
0.9610000000000001,0.0182,-1.051,0.017646605257802588,1.1363909977400688,0.04368722782027059,0.033553476937957696
0.962,0.0146,-1.051,0.017734457654026925,1.140626394105635,0.04395363833463571,0.03386409347258709
0.9630000000000003,-0.008299999999998756,-1.051,0.0177149897038663,1.1451569760275926,0.04389460219175484,0.03419635839775307
0.9640000000000002,-0.0055,-0.051,0.017660873030880667,1.1627967824917325,0.04373049453726337,0.03549003083889
0.9650000000000001,0.0079,0.949,0.017915193833897232,1.163102839391943,0.04450171693821392,0.03551247651469868
0.966,0.0247,-1.051,0.018209665909994482,1.1288188208293408,0.04539469721684973,0.032998146775535774
0.9670000000000003,0.018199999999995692,-0.051,0.018324495725432873,1.1288188208293408,0.04574291617854173,0.032998146775535774
0.9680000000000002,0.0085,-1.051,0.01828149024513618,1.1288188208293388,0.04561250297846117,0.03299814677553563
0.9690000000000001,0.0176,0.949,0.01827711504951532,1.1288188208293388,0.045599235291227856,0.03299814677553563
0.97,0.0096,-1.051,0.01851311754448404,1.1415621506583944,0.04631490781443958,0.033932720215538
0.9710000000000003,-0.004200000000005639,0.949,0.018951848717372263,1.1457784318975381,0.047645350721639224,0.0342419348803503
0.9720000000000002,-0.0169,1.949,0.018989720078673954,1.162796782491721,0.04776019481557067,0.03549003083888915
0.9730000000000001,-0.0184,0.949,0.01892559595108448,1.1669363429762831,0.047565739768827234,0.03579361893823617
0.974,-0.0351,0.949,0.01894114264935337,1.1624906450138104,0.04761288479913373,0.03546757925365338
0.9750000000000003,-0.04629999999999743,2.949,0.019016649361797047,1.158335196978345,0.04784185729123027,0.03516282598921216
0.9760000000000002,-0.0405,-0.051,0.018894747040566075,1.154164787789464,0.04747219110684396,0.03485697550004226
0.9770000000000001,-0.0315,0.949,0.018784776101340425,1.1409383982314127,0.04713870658344511,0.033886975307479125
0.978,-0.0101,-0.051,0.01865982900072931,1.1409383982314127,0.0467598071706478,0.033886975307479125
0.9790000000000003,0.011300000000009192,-0.051,0.018624751568971993,1.1229552844750263,0.04665343560836041,0.03256812531217099
0.9800000000000002,0.032,-0.051,0.018629140707059712,1.1093568596786836,0.046666745575826556,0.03157084070830277
0.9810000000000001,0.0345,-1.051,0.018608156605147044,1.1140146188135898,0.046603111735153975,0.031912432587019327
0.982,0.0027,-0.051,0.018652914829961433,1.109677655783257,0.0467388400955327,0.031594367331486226
0.9830000000000003,-0.0016000000000088374,-1.051,0.018586192865863535,1.1099983591758589,0.04653650716508671,0.031617887155336415
0.9840000000000002,-0.0215,0.949,0.018661644800574074,1.1056456422323275,0.04676531354487797,0.03129866653546377
0.9850000000000001,-0.0106,0.949,0.01867893941326983,1.1053236759243248,0.04681775908833539,0.031275054091615
0.986,0.0123,-1.051,0.018657165042380963,1.1053236759243248,0.04675172877387855,0.031275054091615
0.9870000000000003,0.01520000000000595,0.949,0.01865843228251178,1.109677655783257,0.04675557165249751,0.031594367331486226
0.9880000000000002,0.0286,-3.051,0.01868266264597788,1.1140146188135898,0.046829049711966414,0.031912432587019327
0.9890000000000001,0.0355,-1.051,0.01877916623557141,1.100629138149917,0.04712169478536932,0.030930764932038675
0.99,0.029,-1.051,0.01859402764619071,1.1140146188135918,0.046560265969019285,0.03191243258701947
0.9910000000000003,0.015199999999994404,-0.051,0.01848930577859783,1.1278724916288647,0.046242699143187314,0.03292874465316057
0.9920000000000002,0.0026,-0.051,0.018315371505744766,1.1278724916288667,0.04571524717729922,0.032928744653160716
0.9930000000000001,-0.0122,-0.051,0.01845235941408406,1.1412503170590336,0.04613066008225038,0.03390985088675405
0.994,-0.0064,-1.051,0.018451901722713812,1.1367041644038733,0.04612927214294982,0.033576444031347887
0.9950000000000003,-0.00819999999999938,-0.051,0.0185173339967841,1.1363909977400553,0.046327694115944514,0.033553476937956704
0.9960000000000002,-0.0068,-0.051,0.018460609296580808,1.1321397566373477,0.04615567767464249,0.033241698378119224
0.9970000000000001,-0.0111,0.949,0.01846132121068146,1.1146534377049,0.0461578365389409,0.03195928244312436
0.998,-0.0202,0.949,0.018502934848302465,1.1146534377049,0.04628402900584761,0.03195928244312436
0.9990000000000003,-0.01149999999999951,1.949,0.018540868344291046,1.1103189699368323,0.04639906152188939,0.03164140018574559
1.0000000000000002,-0.0104,-0.051,0.01858264855058866,1.1106394881463852,0.04652575910474878,0.031664906428596054
1.0010000000000001,-0.0078,-0.051,0.018568431339013203,1.1149727098973445,0.04648264571443232,0.03198269730526735
1.002,-0.0017,-0.051,0.018572088133233706,1.101275721607262,0.04649373486476949,0.030978184227786774
1.0030000000000003,0.010599999999997603,-0.05099999999955591,0.018443971794085398,1.101275721607262,0.046105224803826825,0.030978184227786774
1.0040000000000002,0.0052,1.949,0.01832682165902483,1.0965638541313296,0.04574996952245998,0.03063262413832123
1.0050000000000001,0.0005,-1.050999999999778,0.017658102722596603,1.0826339904940743,0.04372209363658648,0.029611032391668738
1.006,0.0143,-0.051,0.01759267296779248,1.0823051786555635,0.0435236793032126,0.029586917908629162
1.0070000000000003,0.0016999999999964472,-0.05099999999955591,0.017562250250846328,1.0823051786555633,0.04343142306413049,0.029586917908629145
1.0080000000000002,-0.0063,1.949,0.017325702537745513,1.0678561294958928,0.042714097178583134,0.02852725000714178
1.0090000000000001,-0.0019,0.9489999999995559,0.01740607024184017,1.0867513841401,0.042957810523994076,0.029912994813989194
1.01,0.0131,-1.051,0.01779563107965043,1.1103189699368434,0.04413914544071644,0.031641400185746404
1.0110000000000003,0.018999999999999243,-1.0509999999995558,0.01821436659425847,1.1242223985690394,0.04540895194143845,0.032661053235531895
1.0120000000000002,0.0173,0.949,0.018546402056848495,1.1245389540041726,0.04641584238697831,0.03268426885546267
1.0130000000000001,-0.0072,1.948999999999778,0.01862758393950864,1.1202427361456244,0.046662024711492146,0.032369191779304106
1.014,-0.0325,0.949,0.018620820602437034,1.1202427361456244,0.04664151503633804,0.032369191779304106
1.0150000000000003,-0.03569999999999338,0.9489999999997779,0.018928014843901064,1.1889155027293097,0.04757307500960786,0.03740553193227268
1.0160000000000002,-0.0208,-0.051,0.019287626017129477,1.2215139611863381,0.04866358820843492,0.03979624565212759
1.0170000000000001,-0.002,-1.050999999999778,0.019879195994643405,1.2335884356457392,0.0504575115248804,0.04068176641342923
1.018,0.0002,-0.051,0.02007553330780052,1.2691227844917883,0.051052900231793805,0.04328779318074846
1.019,0.0295,-2.050999999999778,0.020217757018036363,1.2653175771048262,0.05148419059412031,0.043008725950655496
1.0200000000000002,0.0414,-1.051,0.02015976628447854,1.2653175771048262,0.051308334933722624,0.043008725950655496
1.0210000000000001,0.016,-2.050999999999778,0.02013797367620114,1.2615008916939634,0.051242249314774745,0.0427288169424382
1.022,-0.0003,-1.051,0.020147924699238606,1.25738958597979,0.05127242557950747,0.04242730099835302
1.023,-0.009,-0.051,0.02011962277817303,1.2410949654647518,0.05118660060861713,0.04123228213338176
1.0240000000000002,-0.017,-0.051,0.020069457882369114,1.2408081461988711,0.051034476633989655,0.04121124731190504
1.0250000000000001,0.0051,-0.051,0.01977405367294208,1.2408081461988711,0.05013866968094863,0.04121124731190504
1.026,0.0138,0.949,0.019267741633273976,1.2035518556467635,0.048603289239272485,0.03847893636256257
1.027,0.0058,-0.051,0.018960872989902674,1.2197644082372194,0.047672716635261646,0.039667936510007135
1.0280000000000002,-0.0109,-0.051,0.018714979729267014,1.2155119426760301,0.046927050576505765,0.039356068150534024
1.0290000000000001,0.0047,0.949,0.0187256107686878,1.2155119426760301,0.04695928897639067,0.039356068150534024
1.03,0.0029,0.949,0.018818101414116148,1.2524124996305201,0.0472397648823592,0.04206229022228252
1.031,-0.0173,-0.051,0.018632026527396973,1.2685617552406512,0.04667549676433656,0.04324664828030167
1.0320000000000003,-0.0198,0.949,0.01852102178365292,1.2688423008741931,0.04633887725082546,0.04326722300459541
1.0330000000000001,-0.0175,-0.051,0.01855112410176376,1.2729166167907282,0.046430161887285604,0.043566026181853734
1.034,-0.011,-1.051,0.018556379470584142,1.2729166167907282,0.04644609868093937,0.043566026181853734
1.035,-0.0012,-0.051,0.01845543750891323,1.2842308697657296,0.046139994339048675,0.04439579363398346
1.0360000000000003,0.0114,-1.051,0.018852170668449506,1.295446309353086,0.04734307916815066,0.04521831428572046
1.0370000000000001,0.0161,-1.051,0.018918037695545495,1.295446309353086,0.04754281952040622,0.04521831428572046
1.038,0.0204,-1.051,0.01910840916036708,1.306565480170749,0.04812011691971733,0.0460337747548785
1.039,0.0001,-2.051,0.018900515043414768,1.272077489941761,0.04748968245223488,0.04350448609175503
1.0400000000000003,-0.0206,1.949,0.018666129430670534,1.268281147550009,0.0467789130898202,0.04322606900484915
1.0410000000000001,-0.0072,-1.051,0.018450493695741744,1.28047056025255,0.046125002331243024,0.044120019135139896
1.042,-0.0239,1.949,0.01839597568806362,1.2845079931583596,0.045959677637872086,0.04441611737713611
1.043,-0.0084,-0.051,0.018395016923357498,1.300258682769006,0.04595677020438717,0.045571245304396414
1.0440000000000003,0.0216,-1.051,0.018361643330894125,1.300258682769006,0.04585556549835189,0.045571245304396414
1.0450000000000002,0.0085,-0.051,0.018354024203951436,1.300532390886388,0.0458324606586998,0.04559131857725757
1.046,0.0044,-0.051,0.018336045385743713,1.300532390886388,0.045777940276647104,0.04559131857725757
1.047,0.0152,-1.051,0.01836947434257736,1.3045077341889935,0.045879312873952235,0.045882863276746975
1.0480000000000003,0.0119,-0.051,0.018496193343131313,1.3045077341889935,0.04626358553546514,0.045882863276746975
1.0490000000000002,0.0148,0.949,0.01847840429352831,1.3045077341889935,0.04620964062265137,0.045882863276746975
1.05,0.0122,-1.051,0.01851712866751524,1.2928203663868638,0.04632707145932406,0.045025732238162
1.051,-0.0044,0.949,0.018488703518867163,1.2968193507805557,0.04624087280342285,0.04531901073377208
1.0520000000000003,-0.011,0.949,0.018507377589358404,1.3008060414116853,0.046297501523169526,0.04561138762641633
1.0530000000000002,-0.0052,-0.051,0.018577410445601933,1.3158208463710646,0.04650987466330168,0.04671254706512574
1.054,-0.0143,0.949,0.018656845009995333,1.3158208463710646,0.04675075828250742,0.04671254706512574
