time_sec,bts_raw,diy_raw,bts_rms,diy_rms,bts_norm_rms,diy_norm_rms
0.0,0.0024,0.028,0.010021127472647873,0.9533112018375155,0.015115257038310723,0.003245379067117159
0.0010000000000000009,-0.0081,-0.972,0.01001825695257159,0.9596202550757125,0.015108691962913095,0.0034031250640771714
0.0020000000000000018,-0.0045,1.028,0.009899072979479034,0.9658880992921813,0.01483611007923066,0.0035598407070409786
0.0030000000000000027,-0.0082,-0.972,0.009895498638449799,0.9721155315891984,0.014827935317260645,0.0037155459260501426
0.0040000000000000036,-0.0027,0.028,0.009899921816450278,0.9762859119140811,0.014838051427337769,0.003819818433701235
0.0050000000000000044,-0.0035,1.028,0.009862702828373487,0.9763356812724465,0.01475292906050035,0.0038210628227968732
0.006000000000000005,-0.006,0.028,0.009865890344199341,0.9763854480939151,0.014760219126819955,0.003822307148462184
0.007000000000000006,0.003,-1.972,0.009880984130780902,0.976435212378875,0.014794739647251906,0.0038235514107068684
0.008000000000000007,0.0219,0.028,0.009860872144102372,0.9764849741277138,0.014748742160583354,0.003824795609540623
0.009000000000000008,0.0353,-1.9719999999999982,0.009865717282930888,0.9806367725830809,0.01475982332388334,0.003928603512532116
0.010000000000000009,0.0132,-0.972,0.009894092597532978,0.9806863211373882,0.01482471960568721,0.003929842380838031
0.01100000000000001,0.0103,0.028,0.010124906247315043,0.984820407744957,0.015352606181412907,0.0040332074324248126
0.01200000000000001,0.0023,1.028,0.010248627583669572,0.9848697458216324,0.015635565324661437,0.004034441038133848
0.013000000000000012,-0.0047,2.0279999999999982,0.01027623328015363,0.9849190814267891,0.015698701437284118,0.004035674582047211
0.014000000000000012,-0.0069,1.028,0.010333652351808487,0.9849684145607986,0.015830022774414094,0.004036908064174194
0.015000000000000013,-0.0127,1.028,0.010330390548689096,0.9890846034224637,0.015822562807982245,0.004139825616324162
0.016000000000000014,-0.0109,1.028,0.010333411186286634,1.0111027370197965,0.015829471212400175,0.0046903475891744975
0.017000000000000015,-0.0094,2.028,0.010336318301359402,1.0326515079592316,0.015836119983053263,0.005229134032522941
0.018000000000000016,-0.008,1.028,0.010345812521734372,1.0384786580826602,0.01585783391326346,0.005374830949469326
0.019000000000000017,-0.0014,1.028,0.010351172589007931,1.0442732926278684,0.015870092753073717,0.005519714875605608
0.020000000000000018,-0.0025,1.028,0.010298822970189768,1.0500359499076863,0.015750365600695343,0.005663799270430519
0.02100000000000002,-0.0014,1.028,0.010258009785980361,1.0557671535434434,0.01565702306191088,0.005807097226109479
0.02200000000000002,-0.0022,-0.972,0.010239827454062147,1.0596083510175744,0.015615438827425282,0.005903139136393033
0.02300000000000002,0.0022,0.028,0.010209337884809846,1.065288056794438,0.015545707100886812,0.00604514948507523
0.02400000000000002,-0.0101,3.028,0.010206879155050565,1.0690950467539493,0.015540083818058924,0.006140336100864745
0.025000000000000022,-0.0047,0.028,0.010213470718878955,1.0691404957804433,0.015555159174569823,0.006141472468196655
0.026000000000000023,0.0065,0.02799999999999653,0.010196633270654183,1.0691859428749872,0.015516650780912316,0.006142608787223789
0.027000000000000024,0.008,-0.972,0.01020597016440984,1.0692313880378272,0.015538004894402754,0.006143745057952304
0.028000000000000025,-0.0011,-0.972,0.010201539547558251,1.0730243875188756,0.015527871771165259,0.006238581868170406
0.029000000000000026,-0.0,-1.972,0.010150246200099708,1.0730696701212281,0.015410560383502678,0.006239714074380014
0.030000000000000027,-0.0033,-1.972,0.010093242155758497,1.0731149508127749,0.01528018824217477,0.006240846232813523
0.031000000000000028,-0.0098,-0.972,0.010117635465499873,1.0787235438519878,0.015335977406993011,0.0063810785413883145
0.03200000000000003,-0.0091,2.028,0.01010404548560568,1.07876858722546,0.01530489619512664,0.006382204766130214
0.03300000000000003,-0.0083,0.028,0.010072189078033575,1.07881362871825,0.01523203841603065,0.006383330943849194
0.03400000000000003,0.0,-1.972,0.010062579266864097,1.0788586683305934,0.01521006012178152,0.0063844570745511505
0.03500000000000003,0.0055,-2.972,0.010054748292701197,1.0844375558946437,0.015192150149215544,0.0065239466536516815
0.03600000000000003,0.0145,-1.971999999999993,0.010054370634129908,1.0899878893994355,0.015191286418278577,0.006662722292264639
0.03700000000000003,0.0283,-0.972,0.010042845202146287,1.0900324672968504,0.01516492696843955,0.006663836878654167
0.038000000000000034,0.041,0.028,0.010021820120443099,1.0955544560467758,0.015116841171108548,0.006801903810041782
0.039000000000000035,0.0164,0.028,0.010019770937516253,1.1010487512215952,0.015112154549848022,0.0069392783157278615
0.040000000000000036,-0.0235,-0.972,0.009974006520000436,1.1065157653505535,0.015007488202449086,0.007075970710229428
0.041000000000000036,-0.0285,0.028,0.009974006520000437,1.1262404410475024,0.01500748820244909,0.007569149086612466
0.04200000000000004,0.0048,2.028,0.009985395557379585,1.1630132822707158,0.015033535708515419,0.008488584742138143
0.04300000000000004,-0.0082,3.0279999999999863,0.009990607729946194,1.1681903445675244,0.015045456303033451,0.008618027437024571
0.04400000000000004,-0.0043,1.028,0.00998923039765506,1.1682319383857875,0.015042306250047027,0.008619067412133606
0.04500000000000004,-0.0151,1.028,0.009964686727936113,1.168273530723194,0.014986173201694337,0.008620107350216606
0.04600000000000004,-0.0024,0.028,0.009962853683133207,1.1683151215799017,0.014981980903079973,0.008621147251277522
0.04700000000000004,-0.0057,0.028,0.009949327351096425,1.1734687936689872,0.014951045258209025,0.008750005118061052
0.04800000000000004,-0.0028,1.028,0.00998169791686577,1.1785999304758317,0.015025078952205968,0.008878299532543632
0.049000000000000044,-0.0053,-0.972,0.00998279501757652,1.1820420344313456,0.015027588096435394,0.008964362860843856
0.050000000000000044,0.0067,1.028,0.009952341686317593,1.1820831408519528,0.014957939248661904,0.008965390649492219
0.051000000000000045,0.0002,1.028,0.009954966837176166,1.1854741440485126,0.01496394314790618,0.009050176299531969
0.052000000000000046,-0.0016,1.0279999999999863,0.009928388330603029,1.1820831408519528,0.0149031562887406,0.008965390649492219
0.05300000000000005,-0.0034,-0.972,0.009918642489194648,1.177008473294714,0.014880866884047708,0.008838508142270574
0.05400000000000005,-0.002,0.028,0.009897214072300577,1.1735930094740754,0.01483185863159767,0.008753110900382432
0.05500000000000005,-0.0034,0.028,0.00996471716831812,1.1735930094740756,0.014986242820926287,0.008753110900382437
0.05600000000000005,0.0056,0.028,0.00996036740579639,1.1684814702029098,0.014976294617061466,0.008625306485379475
0.05700000000000005,0.002,0.028,0.009949142255285105,1.18380983897323,0.01495062193145122,0.009008563484829984
0.05800000000000005,0.0031,-0.972,0.009946474582026568,1.1684814702029098,0.014944520780575033,0.008625306485379475
0.05900000000000005,0.0079,0.02799999999999306,0.009746962502575727,1.1684814702029098,0.014488223033294225,0.008625306485379475
0.06000000000000005,0.0217,-0.972,0.00908718521519153,1.1529493300077336,0.012979267331117657,0.008236954565129875
0.061000000000000054,0.0159,0.028,0.008992744888525226,1.154658117766038,0.012763275856170818,0.008279679585564767
0.062000000000000055,0.0105,0.028,0.008969483916807911,1.154658117766038,0.012710076425723355,0.008279679585564767
0.06300000000000006,-0.0109,0.028,0.008993130194992273,1.1529493300077336,0.012764157078367538,0.008236954565129875
0.06400000000000006,-0.0022,-0.972,0.008983270726836204,1.1389998032863824,0.012741607801544881,0.007888172914904215
0.06500000000000006,-0.0048,2.028,0.008961388256644463,1.1337323080020052,0.012691561098202835,0.007756469113439115
0.06600000000000006,-0.0026,2.028,0.00887815562787407,1.1337323080020052,0.012501202393543314,0.007756469113439115
0.06700000000000006,-0.0047,1.028,0.00881568490941788,1.1319919323254144,0.0123583275952803,0.007712954296584086
0.06800000000000006,-0.0065,1.028,0.008801691362917299,1.116015644071907,0.012326323399031832,0.0073134972904184015
0.06900000000000006,0.0025,1.028,0.008765269908617099,1.116015644071907,0.012243025046392653,0.0073134972904184015
0.07000000000000006,0.004,1.028,0.008765407481033662,1.1160156440719067,0.012243339683902012,0.007313497290418396
0.07100000000000006,-0.0036,-0.9719999999999722,0.008794644268454572,1.1106391457779474,0.012310206212859104,0.007179068073939508
0.07200000000000006,-0.0072,1.0279999999999723,0.008923775710294218,1.1088625256435716,0.012605538636724051,0.007134647032661936
0.07300000000000006,0.0015,-0.972,0.008963282754363809,1.105236493450838,0.012695893943832762,0.007043984925106902
0.07400000000000007,-0.0062,0.028,0.00896068863392004,1.1052364934508383,0.012689961013265725,0.007043984925106908
0.07500000000000007,0.0047,0.028,0.008932622936837548,1.0609584767647187,0.01262577284786814,0.005936896488560426
0.07600000000000007,0.0062,0.028,0.008920486481487952,1.0647353115868976,0.012598015945873847,0.006031329131919792
0.07700000000000007,-0.0061,-0.972,0.009014356036859801,1.0647353115868976,0.012812702027901175,0.006031329131919792
0.07800000000000007,-0.0046,0.028,0.009066955558819149,1.0609584767647189,0.012933000725825435,0.005936896488560431
0.07900000000000007,-0.006,0.028,0.00924535263433234,1.0571681489232336,0.013341007017485636,0.005842126477659199
0.08000000000000007,-0.0071,1.028,0.009300448689878138,1.0399748585689486,0.013467015458171557,0.005412240625446172
0.08100000000000007,0.0017,0.028,0.009297946608794579,1.0264108885501793,0.013461293027905255,0.005073099094607234
0.08200000000000007,0.0049,0.028,0.009266222972958598,1.0224925025706706,0.013388738906834702,0.004975127231084273
0.08300000000000007,0.0003,0.028,0.009309645587348113,1.0047766422328102,0.01348804939059847,0.004532175500374391
0.08400000000000007,-0.0023,1.028,0.00979589113585862,1.0047766422328102,0.014600126158187543,0.004532175500374391
0.08500000000000008,0.0032,1.028,0.009909942363641297,0.9927189520771892,0.01486096910291094,0.00423069566135231
0.08600000000000008,-0.0052,0.02800000000001388,0.009931085164860498,0.9494238962917592,0.014909324132812296,0.0031481843113190986
0.08700000000000008,0.004999999999999001,1.028,0.009825655842724936,0.9302413376148974,0.014668200074959684,0.0026685605502759476
0.08800000000000008,-0.003999999999999323,1.028,0.00941842806442676,0.9302413376148974,0.013736842342740717,0.0026685605502759476
0.08900000000000008,0.002100000000000122,1.028,0.008488152332293485,0.9743891056302719,0.011609238229291493,0.0037723923640545307
0.09000000000000008,0.0032000000000002777,2.028,0.008331860254658737,0.9805129957577438,0.011251787576985778,0.003925508706072861
0.09100000000000008,0.005699999999999922,-2.972,0.00800103293185494,0.976410436511557,0.010495162902681243,0.003822931936794846
0.09200000000000008,0.004999999999999401,1.028,0.007475934447482132,0.9764104365115571,0.00929422681811241,0.0038229319367948486
0.09300000000000008,-0.00039999999999960033,0.028,0.007468268311724439,0.9536425583891278,0.009276693842233393,0.0032536640137818752
0.09400000000000008,0.0031999999999989454,0.028,0.007423557061297105,0.9063926888802137,0.009174436159870219,0.002072269993077078
0.09500000000000008,-0.006299999999999589,0.028,0.0074293237223874015,0.9238610891981358,0.009187624907499319,0.0025090344519287065
0.09600000000000009,-0.0026000000000006105,1.028,0.00727410303523597,0.9173590935154574,0.008832624598377541,0.002346464292434075
0.09700000000000009,-0.008099999999999268,1.028,0.007278100255805486,0.9217245254286325,0.008841766514728046,0.0024556136977894904
0.09800000000000009,-0.0015000000000002886,-0.972,0.007257461886335764,0.9281959418439093,0.008794565154677546,0.00261741928028018
0.09900000000000009,-0.004099999999999912,0.028,0.007270705406685133,0.9410807029255831,0.008824853989910569,0.0029395784705236057
0.10000000000000009,-0.003299999999999234,-0.972,0.007261206854044798,0.9368054734563487,0.008803130151513702,0.002832684407437535
0.10100000000000009,0.003599999999999711,0.028,0.007235316056851566,0.9346984988433679,0.00874391613065294,0.0027800034744440007
0.10200000000000009,0.0010000000000004441,0.028,0.0072452185835734356,0.9325867639969577,0.008766563885355384,0.002727203520776568
0.10300000000000009,0.005000000000000766,0.028,0.007302784204041394,0.9304702365065683,0.008898220389626461,0.002674283736070462
0.10400000000000009,0.011899999999998469,0.028,0.007364297942464412,0.9304702365065683,0.009038906509216328,0.002674283736070462
0.1050000000000001,-0.0019000000000002,0.028,0.007370397110842014,0.9496481715176738,0.00905285572371325,0.003153791891057234
0.1060000000000001,-0.0036999999999998002,-1.972,0.007364732458506931,0.9496481715176738,0.009039900277071912,0.003153791891057234
0.1070000000000001,-0.0018999999999987566,0.028,0.007352335217846886,0.9496481715176738,0.00901154694126765,0.003153791891057234
0.1080000000000001,0.009299999999999156,0.028,0.007439193914733137,0.9725095686031009,0.009210198711275932,0.0037253980796539314
0.10899999999999999,0.0017,0.028,0.007674460491360632,0.9908025424176008,0.009748269434718241,0.004182779446205272
0.10999999999999999,-0.0018,1.028,0.0077004139127281,1.0380773068985634,0.009807626681341112,0.0053647959188116165
0.11099999999999999,-0.008,0.028,0.00739779730874113,1.0552342451486143,0.009115521847041863,0.005793772855105328
0.11199999999999999,-0.0069,-0.972,0.007281036831575102,1.0608915674154593,0.00884848266400624,0.005935223546265224
0.11299999999999999,-0.0021,1.028,0.007228290853617368,1.0814037771207192,0.00872784901121447,0.00644809272768519
0.11399999999999999,-0.0029,0.028,0.007190243417447072,1.0869248984404685,0.00864083192702537,0.006586137970614527
0.11499999999999999,-0.0036,1.028,0.0072392171682564635,1.10332250583699,0.008752838238782161,0.006996129268653151
0.11599999999999999,-0.0029,-0.972,0.007227584518124132,1.0997427559074706,0.008726233573716774,0.006906624361945318
0.11699999999999999,0.008,-0.972,0.0072299240273970035,1.0795790465793742,0.008731584191152532,0.0064024687762680174
0.118,0.0004,1.028,0.007217955425611581,1.0777512266082105,0.008704211181719611,0.00635676757947529
0.119,0.0015,1.0279999999999863,0.007198111495413264,1.0721828672277123,0.008658826758522717,0.0062175412377810544
0.12,0.0076,0.028,0.007264236334007684,1.0665854373175052,0.008810058779024889,0.006077588042228096
0.121,0.0152,-0.972,0.007268418786771209,1.0647353115868965,0.008819624334049718,0.006031329131919764
0.122,0.0087,0.028,0.007266914746454247,1.0609584767647178,0.008816184491157304,0.005936896488560404
0.123,0.0004,0.028,0.0072319238725003935,1.0553015131894992,0.0087361579734423,0.005795454765809249
0.124,-0.0072,0.028,0.007234677223713187,1.055301513189499,0.008742455075649488,0.005795454765809243
0.125,-0.0007,-0.972,0.007208841506306545,1.055301513189499,0.0086833670260212,0.005795454765809243
0.126,-0.0145,0.028,0.007193558728806186,1.0722490719894864,0.008648414270454709,0.00621919656319285
0.127,-0.0126,0.028,0.007182975651801817,1.0778170893343542,0.008624210050791996,0.0063584143529301605
0.128,-0.0181,0.028,0.007178896505119319,1.0740862552607418,0.008614880763827644,0.0062651318716742945
0.129,-0.0101,0.028,0.007183605515657141,1.0778170893343542,0.008625650592432728,0.0063584143529301605
0.13,-0.0025,-0.972,0.007162484351522415,1.0815350537002095,0.008577345048020824,0.0064513750513758225
0.131,-0.0061,0.028,0.007158467617478934,1.075986276261668,0.008568158503023093,0.006312638319269551
0.132,0.0128,-0.972,0.007156637525408605,1.092613040076734,0.008563972957509727,0.0067283592420772625
0.133,0.0316,0.028,0.007140160130199018,1.092613040076734,0.008526288029680367,0.0067283592420772625
0.134,0.015,1.028,0.0071468635869445934,1.0962808260965156,0.008541619292932297,0.0068200653254597175
0.135,0.0085,0.028,0.007144128347688819,1.0944808990152046,0.008535363614007396,0.00677506153785848
0.136,-0.0013,0.028,0.007139501994150274,1.0926780069862312,0.008524782827603015,0.006729983617323615
0.137,0.0041,-0.972,0.00721582589407158,1.0926780069862312,0.008699340797695042,0.006729983617323615
0.138,-0.0038,-2.972,0.007276042913708268,1.087186102409582,0.008837061232887815,0.006592668884043543
0.139,-0.0024,1.028,0.007278254337750212,1.087186102409582,0.008842118910655493,0.006592668884043543
0.14,-0.0035,0.028,0.007276092699878509,1.087186102409582,0.008837175097258279,0.006592668884043543
0.14100000000000001,0.0002,0.028,0.007367610477311601,1.0667850814080642,0.009046482502573332,0.006082579766804413
0.14200000000000002,0.0034,0.027999999999972245,0.007387862596141923,1.0305210435854952,0.009092800481040478,0.005175865782290381
0.14300000000000002,0.0009,-0.9719999999999167,0.007451261018382594,1.0246960601044945,0.009237797001197059,0.0050302230381583535
0.14400000000000002,-0.0052,2.0279999999999445,0.007462466999556978,1.0246960601044945,0.009263425845225035,0.0050302230381583535
0.14500000000000002,0.0002,0.028,0.007458081012414878,1.0246960601044945,0.009253394793180209,0.0050302230381583535
0.14600000000000002,-0.0034,-0.972,0.007441535799229263,1.0286060518560105,0.009215554761009439,0.005127985019815776
0.14700000000000002,-0.0016,1.028,0.007439629061055913,1.0227701619796823,0.009211193920625494,0.00498206958180414
0.14800000000000002,-0.0052,-1.972,0.007395473792509706,1.0382824326332454,0.009110207806783812,0.00536992470157789
0.14900000000000002,0.0038,0.028,0.007404258011096186,1.034409017552377,0.009130297914428752,0.005273077250700119
0.15000000000000013,0.0027000000000002443,-0.972,0.007465761675993983,1.034409017552377,0.009270960995178672,0.005273077250700119
0.15100000000000002,0.0038,-0.972,0.007641108340737363,1.034409017552377,0.009671990789143213,0.005273077250700119
0.15200000000000014,0.009300000000000176,-0.972,0.00779062059840931,1.0382824326332454,0.010013935530305548,0.00536992470157789
0.15300000000000002,0.0101,-0.972,0.00784305870233415,1.0440316161849093,0.01013386505416416,0.005513672211199873
0.15400000000000014,-0.0035999999999996,-1.972,0.007832937937892347,1.0478694622493823,0.01011071817489617,0.005609630325795268
0.15500000000000003,-0.0018,0.028,0.007834720205220002,1.0516933033142062,0.010114794341957833,0.00570523827174433
0.15600000000000014,-0.003600000000001754,0.028,0.00783422201468061,1.090937205891959,0.010113654946180557,0.0066864581637004795
0.15700000000000003,-0.0115,2.028,0.007956675634006479,1.1127319450435897,0.010393714734031867,0.007231394579063481
0.15800000000000014,-0.019099999999998,2.028,0.007980024417524082,1.1498945884227378,0.010447114996061888,0.00816057650354324
0.15900000000000003,-0.0101,3.028,0.007963952677770683,1.1858932276757896,0.010410357829956734,0.009060654696543139
0.16000000000000014,0.0036999999999971804,2.028,0.007990225304841982,1.18927336713156,0.010470445121817858,0.009145168719199693
0.16100000000000003,-0.009,1.028,0.008246820348052393,1.1842295115768626,0.01105729550452454,0.009019056608085945
0.16200000000000014,0.005799999999996935,2.028,0.008345433277601793,1.1842295115768624,0.011282830007147172,0.00901905660808594
0.16300000000000003,-0.008,1.028,0.008325889636223549,1.1858932276757899,0.011238132364983836,0.009060654696543144
0.16400000000000015,0.008699999999997512,2.028,0.008363432552571302,1.1992974414740352,0.01132399557789297,0.00939580182389147
0.16500000000000004,-0.0025,-1.972,0.008387564439977475,1.2386400486673919,0.011379186851982135,0.010379489638910736
0.16600000000000015,0.003199999999998801,0.028,0.008381342404538857,1.2386400486673919,0.011364956632127993,0.010379489638910736
0.16700000000000004,-0.0022,-0.972,0.00839066369453422,1.2530538644445222,0.011386275058753299,0.010739879962770354
0.16800000000000015,-0.0036999999999969358,0.028,0.008407603730084166,1.2673037537370209,0.011425018076627573,0.0110961716135375
0.16900000000000004,0.0101,0.028,0.008470472360017547,1.2673037537370209,0.011568802925606105,0.0110961716135375
0.17000000000000015,0.00469999999999969,-0.972,0.00849262122428463,1.2657470493262923,0.011619458890386366,0.01105724915085234
0.17100000000000004,0.0033,0.028,0.008459485615736043,1.2704673150290329,0.011543675491320425,0.011175270507002403
0.17200000000000015,-0.0010999999999992008,0.027999999999972245,0.008322552954754007,1.2704673150290329,0.011230501146652914,0.011175270507002403
0.17300000000000004,0.0025,-0.9719999999999722,0.008277144424151239,1.2736230183528467,0.011126648736922103,0.01125417292676821
0.17399999999999993,-0.0011,0.02799999999994449,0.008295360943297504,1.2736230183528467,0.011168311159932368,0.01125417292676821
0.17500000000000004,-0.0,-1.9719999999999167,0.008280906266858809,1.2877004238255447,0.011135252328032042,0.011606151944389513
0.17599999999999993,-0.0048,1.028,0.008497839428185975,1.2877004238255447,0.011631393278978724,0.011606151944389513
0.17700000000000005,-0.0056,0.028,0.008376486707224594,1.2877004238255447,0.011353851320850226,0.011606151944389513
0.17799999999999994,0.0053,-0.972,0.008328649931428594,1.3016255875491842,0.011244445348575402,0.011954324443730267
0.17900000000000005,-0.0024,-0.972,0.008130032633150888,1.3047059302708388,0.010790194026928242,0.012031342613534899
0.17999999999999994,0.0067,0.028,0.00812879534614236,1.3184514982077145,0.010787364267064654,0.012375024658386956
0.18100000000000005,0.0005,-1.972,0.008127406080435648,1.3199460460503283,0.010784186921542056,0.012412393013120467
0.18199999999999994,-0.0006,0.028,0.008104647036207394,1.3199460460503283,0.010732135433530899,0.012412393013120467
0.18300000000000005,-0.0031,-0.972,0.008014122897052414,1.379172067900962,0.01052510054679799,0.01389322817333758
0.18399999999999994,0.0012,-0.972,0.007378863634497814,1.4387501574608679,0.009072219241361276,0.015382866123719832
0.18500000000000005,0.0019,-0.972,0.007232087720960031,1.4387501574608679,0.008736532706056154,0.015382866123719832
0.18599999999999994,0.0117,0.028,0.007362686429010215,1.4539412735566033,0.009035220867921391,0.015762691378474206
0.18700000000000006,0.0106,0.028,0.007369879365216911,1.4539412735566033,0.009051671604119842,0.015762691378474206
0.18799999999999994,0.0044,1.028,0.007446166314531583,1.45117773984797,0.009226145065651713,0.015693594421523252
0.18900000000000006,-0.0011,1.028,0.007467522874598045,1.426114741297388,0.009274988976631022,0.015066941333666482
0.18999999999999995,-0.012,0.028,0.007477851849867305,1.4345342234708518,0.009298612048276887,0.015277454632444678
0.19100000000000006,0.0079,-0.972,0.007473498717843234,1.449769516049654,0.009288656138130158,0.015658384436978624
0.19199999999999995,-0.0109,0.028,0.0074853138810234325,1.4538924497175545,0.009315678222996995,0.01576147063030877
0.19300000000000006,-0.0041,0.028,0.007492962577284413,1.456650833132926,0.009333171313556357,0.015830438813874154
0.19399999999999995,-0.0019,0.028,0.007492437712630386,1.4566508331329266,0.009331970912257756,0.015830438813874168
0.19500000000000006,0.0039,-0.972,0.007658422530462169,1.441488271998466,0.009711589523160558,0.015451327522160586
0.19599999999999995,0.002,0.028,0.007794300996023843,1.4539412735566026,0.010022352850927093,0.01576269137847419
0.19700000000000006,0.0005,2.028,0.007787247323544179,1.4552966839476835,0.01000622062038052,0.01579658086321281
0.19799999999999995,-0.0039,0.028,0.007799213163968925,1.451177739847969,0.010033587314393043,0.01569359442152323
0.19900000000000007,-0.0104,0.028,0.00778876080408488,1.4428553807179887,0.010009682053709149,0.015485509501575212
0.19999999999999996,-0.0166,-0.972,0.0077937619912995925,1.4469980149764257,0.010021120110322483,0.015589088271077653
0.20100000000000007,-0.0156,-0.972,0.007841992631502218,1.4483599230520858,0.010131426877386137,0.015623140218184745
0.20199999999999996,-0.0091,1.028,0.007841515495691362,1.4483599230520858,0.010130335635210526,0.015623140218184745
0.20300000000000007,-0.003,-0.972,0.0077869249028312245,1.4497205517137335,0.010005483222196897,0.01565716017595345
0.20399999999999996,-0.012,-0.9720000000000555,0.007728269168019116,1.4497205517137335,0.009871333551993794,0.01565716017595345
0.20500000000000007,0.0017,-2.972,0.007904985796453599,1.4400212789191815,0.010275496546453397,0.0154146481224015
0.20599999999999996,0.0144,-2.972,0.008310554999357268,1.4428061817379254,0.011203061003506811,0.015484279373715057
0.20700000000000007,0.0064,-2.972,0.008489463962026633,1.4428061817379256,0.011612238016041995,0.015484279373715062
0.20799999999999996,0.0078,-2.9719999999999445,0.008478989542951893,1.4303058627526422,0.011588282304482903,0.01517173243422922
0.20900000000000007,0.0067,-0.972,0.008361113550135685,1.4148610001222213,0.011318691860994106,0.014785562725152164
0.20999999999999996,0.0205,0.028,0.008330168947823468,1.3805494676505654,0.01124791944278048,0.013927667460582483
0.21100000000000008,0.0151,0.028,0.00856817384170198,1.3645415425235436,0.011792252884732962,0.013527419433963368
0.21199999999999997,0.0039,1.028,0.009115603798745275,1.37333856140281,0.013044262571968123,0.013747372327209597
0.21300000000000008,0.0082,2.028,0.009124013950893958,1.3572455904802974,0.013063497164130642,0.013344997890606216
0.21399999999999997,0.007,3.028,0.00909283444447197,1.3528281440003187,0.012992187504180025,0.01323454795894565
0.21500000000000008,-0.0016,1.028,0.009122813294030722,1.3394883986667279,0.01306075117991024,0.012901012744168902
0.21599999999999997,-0.0049,2.028,0.009226329639163188,1.3289848666714075,0.013297500128749326,0.012638391703634346
0.21700000000000008,-0.0096,2.028,0.00936045448045164,1.332001940750371,0.013604252798075275,0.01271382796015646
0.21799999999999997,-0.0103,1.028,0.009370713028883626,1.3289848666714075,0.013627714798735941,0.012638391703634346
0.21900000000000008,-0.0063,-0.972,0.009424406678087312,1.333481301526378,0.013750515840368934,0.012750816590885065
0.21999999999999997,-0.0012,1.028,0.00937233722191126,1.333481301526378,0.013631429439081019,0.012750816590885065
0.22100000000000009,0.001,-0.972,0.009511774331429291,1.333481301526378,0.013950331628540188,0.012750816590885065
0.22199999999999998,-0.0004,-0.972,0.009873697947577267,1.364645582004313,0.014778075648805069,0.01353002074528498
0.2230000000000001,-0.0055,0.028,0.010028572316620228,1.377793291145723,0.015132283904768095,0.013858754456659506
0.22399999999999998,0.0053,-1.972,0.010045830283306967,1.40512317672453,0.015171754052858786,0.01454208678635531
0.2250000000000001,0.0191,-0.972,0.010101956214434504,1.407977107800255,0.015300117889314327,0.014613443959261977
0.22599999999999998,0.0024,0.028,0.010170542396337405,1.3951138833254089,0.015456979170009849,0.01429182325132119
0.2270000000000001,0.0089,-1.972,0.01027660521764186,1.3908167175327015,0.015699552083713528,0.014184380711770389
0.22799999999999998,-0.001,-0.972,0.010262001461090636,1.4065256318767057,0.015666152295417485,0.014577152536764934
0.2290000000000001,-0.01,-1.972,0.010331842620164046,1.4065256318767057,0.01582588379458483,0.014577152536764934
0.22999999999999998,-0.002,1.028,0.01035015357694803,1.4036687496717417,0.015867762202920237,0.014505721576428302
0.2310000000000001,-0.0006,0.028,0.010353506405235222,1.4192354174564412,0.01587543035012554,0.014894936794042236
0.23199999999999998,-0.0042,4.028,0.010396960062754585,1.4107246319531501,0.015974811831646726,0.014682140627415949
0.2330000000000001,0.0045,4.028,0.010400849282105058,1.4107246319531501,0.015983706741835555,0.014682140627415949
0.23399999999999999,-0.0032,1.028,0.010473589743053794,1.4121215240046017,0.01615006914234,0.014717067282966682
0.2350000000000001,-0.0162,2.0279999999999445,0.010498381457137997,1.4135170355941267,0.016206769485091123,0.014751959422666201
0.236,-0.0035,0.028,0.010499673996435149,1.4149111708063282,0.016209725610711115,0.014786817148642316
0.2370000000000001,0.0114,0.028000000000027756,0.010446792103280936,1.4149111708063282,0.016088781110585457,0.014786817148642316
0.238,-0.0068,1.0279999999999168,0.010393915799403693,1.419135380064706,0.01596784939351784,0.014892435547421425
0.2390000000000001,-0.0046,-1.971999999999889,0.010395682675926722,1.4149111708063278,0.015971890360758526,0.014786817148642306
0.24,-0.0024,2.028,0.010422898477855687,1.4135170355941256,0.016034134757913873,0.014751959422666173
0.2410000000000001,-0.0042,1.028,0.01036007091328803,1.4135170355941258,0.01589044382823046,0.014751959422666178
0.242,0.0048,-0.972,0.010332295437917905,1.4149111708063278,0.015826919419703787,0.014786817148642306
0.2430000000000001,0.0001,-0.972,0.010377645960191908,1.4149111708063278,0.015930639160426228,0.014786817148642306
0.244,0.0167,0.028,0.010369531283834055,1.4149111708063278,0.01591208034157078,0.014786817148642306
0.2450000000000001,0.0145,-1.972,0.010415970565130247,1.4149111708063278,0.016018290148511385,0.014786817148642306
0.246,0.0008,1.028,0.010418029576372468,1.4275462998828183,0.016022999247800197,0.015102734760626041
0.2470000000000001,-0.0046,0.028,0.010416166592222255,1.4428553807179894,0.016018738475854447,0.015485509501575227
0.248,0.0033,1.028,0.010417768031784425,1.4275462998828181,0.016022401077470532,0.015102734760626036
0.2490000000000001,-0.0047,1.028,0.01041081565515888,1.4401198654804388,0.016006500517458246,0.015417113093737965
0.25,0.0091,1.028,0.010362195046658087,1.444270346102232,0.015895301866271812,0.01552088804678228
0.2510000000000001,0.0037,-0.972,0.01023495062320139,1.4414882719984665,0.015604285182283802,0.015451327522160597
0.252,-0.001,1.028,0.01011941579376107,1.4414882719984665,0.015340049139277296,0.015451327522160597
0.2530000000000001,0.0033,-0.972,0.010085160723997243,1.4401198654804386,0.015261705455981506,0.01541711309373796
0.254,-0.017,-0.972,0.01008818145659574,1.4401198654804386,0.015268614077673113,0.01541711309373796
0.2550000000000001,-0.0257,-0.972,0.010040944341523285,1.4373297577905564,0.015160579570414535,0.015347351704421796
0.256,-0.0177,0.028,0.010042907310374494,1.4106239910011413,0.015165069014197861,0.014679624289906937
0.2570000000000001,-0.0107,-0.972,0.01005317707932894,1.3848272335217289,0.015188556676959467,0.014034624941623022
0.258,-0.0129,0.028,0.010115323771744577,1.3702570908766594,0.015330690405545038,0.013670325958777076
0.2590000000000001,-0.0071,0.028,0.010105503981498318,1.342217458706113,0.015308231874811104,0.012969247751930476
0.26,0.0204,0.028,0.010089083765138358,1.339223398889954,0.015270677718914695,0.012894386923716432
0.2610000000000001,0.0324,-1.972,0.009881007497233786,1.352618239111329,0.014794793087924982,0.013229299682424542
0.262,0.007,0.028,0.009807465708606748,1.3555827142221046,0.014626597996310053,0.013303420800785254
0.2630000000000001,-0.0027,0.028,0.009891046272409698,1.3511598311890805,0.014817752452144107,0.013192834938352223
0.264,-0.0114,-0.972,0.009857583138536328,1.337803450579461,0.014741219980298778,0.012858883789820794
0.2650000000000001,-0.014,-0.972,0.009835706785820074,1.3014619684592093,0.014691187268040837,0.011950233456462395
0.266,-0.0161,-0.972,0.0098851880231876,1.2999461696501098,0.01480435423620445,0.011912333761325168
0.2670000000000001,-0.0049,0.028,0.00991310323355298,1.2829329026220597,0.014868198228205601,0.011486949053420303
0.268,-0.0107,1.028,0.00987014457804059,1.27041144002697,0.01476994885007035,0.01117387345778237
0.26900000000000013,0.002,0.028,0.009916796148608267,1.268858548299877,0.014876644177068772,0.011135046324072652
0.27,0.0169,-0.972,0.009922805697364069,1.2656909659441105,0.014890388425371905,0.01105584689147979
0.27100000000000013,0.0267,-2.972,0.009922310870539184,1.2782586698127258,0.014889256722639367,0.01137007866309494
0.272,0.0176,-1.972,0.0099430290654721,1.279800155613808,0.014936640648974231,0.011408620613100884
0.27300000000000013,0.0064,-2.972,0.009946108815316126,1.2813397869678658,0.01494368424713573,0.0114471161961507
0.274,0.0107,-0.972,0.009946015711656354,1.2813397869678658,0.014943471312709233,0.0114471161961507
0.27500000000000013,0.011800000000000822,0.028,0.0099558103211337,1.2671917222838003,0.014965872253305462,0.011093370477992762
0.276,0.0155,0.028,0.009802994697602062,1.2640199629370763,0.014616372488886538,0.011014066607605831
0.27700000000000014,-0.0012000000000026423,2.028,0.009802344754684179,1.2640199629370763,0.014614886025058846,0.011014066607605831
0.278,-0.0131,-0.972,0.009769755256845826,1.249675829189785,0.014540351618472615,0.010655418551698654
0.27900000000000014,-0.006599999999996936,0.028,0.009841547285443893,1.2639638029222864,0.01470454488943739,0.01101266243217921
0.28,0.0072,2.028,0.009792351577243329,1.2496190245252736,0.014592030945972967,0.010653998258019553
0.28100000000000014,-0.009499999999998534,1.028,0.00985068918841342,1.2480402618095974,0.01472545304568706,0.010614524268952564
0.28200000000000003,-0.0029,0.02800000000005551,0.009896124341722117,1.2528272429894844,0.01482936634336398,0.010734213719990688
0.28300000000000014,-0.0126999999999988,1.028,0.009887686191146008,1.2023447464928285,0.014810067716886362,0.009471993948142458
0.28400000000000003,-0.0073,1.028,0.009877483435896872,1.133920129914177,0.014786733319044123,0.007761165246704737
0.28500000000000014,-0.0024999999999983126,1.0279999999999445,0.009872990338017121,1.1286289272146623,0.014776457297429364,0.007628868685962608
0.28600000000000003,0.0051,0.02800000000005551,0.009741731028802573,1.1251296959152157,0.014476258295599048,0.0075413769959919216
0.28700000000000014,-0.0013999999999986233,1.0279999999999445,0.009760484393261645,1.1251296959152157,0.014519148520492518,0.0075413769959919216
0.28800000000000003,0.0048,0.02799999999994449,0.00971417594340202,1.1286918210704824,0.014413237933979786,0.007630441228405098
0.28900000000000015,-0.007599999999997491,-0.972,0.009693238121967526,1.1269436612331938,0.014365351706840937,0.007586731783268548
0.29000000000000004,0.0037,0.028,0.009687211614724264,1.1144387023396771,0.01435156867331915,0.007274068831613777
0.29100000000000015,0.0022000000000027536,1.028,0.009686299681607936,1.0945457550576931,0.01434948302002038,0.00677668314108403
0.29200000000000004,0.0146,0.028,0.009740701373595869,1.0890632691611408,0.014473903403842175,0.006639603904165432
0.29300000000000015,-0.00020000000000217606,0.028,0.00993657246779496,1.0890632691611408,0.01492187396926598,0.006639603904165432
0.29400000000000004,-0.01,0.028,0.0102178175929574,1.0853710931818736,0.015565100772367649,0.00654728799576968
0.29500000000000015,-0.004399999999998957,2.028,0.010383737304176273,1.0853710931818736,0.015944570480001606,0.00654728799576968
0.29600000000000004,0.0003,2.028,0.010598639947110038,1.0742184260900598,0.01643606749675006,0.006268436554398095
0.29700000000000015,0.001899999999999778,0.028,0.010666157875142242,1.0723814692513454,0.016590485607908857,0.006222506907435988
0.29800000000000004,0.0009,-1.972,0.01087706852595306,1.0926780069862259,0.017072852666121078,0.0067299836173234815
0.29900000000000015,-0.002700000000000222,1.028,0.01088455561022387,1.1251927853643235,0.01708997613902495,0.007542954428876291
0.30000000000000004,-0.0037,0.028,0.011067610002344207,1.1198603477921079,0.017508634031741407,0.0074096268677830545
0.30100000000000016,-0.0029000000000001776,-0.972,0.01229394895898064,1.1145023969818084,0.020313354953182046,0.007275661396210185
0.30200000000000005,-0.0037,-0.972,0.012925875307758775,1.1108947738454173,0.021758613657259146,0.007185459572446744
0.30299999999999994,0.0039,-0.972,0.013055672566550883,1.1251927853643235,0.022055468849952655,0.007542954428876291
0.30400000000000005,-0.007,0.028,0.013067163587763662,1.1269436612331838,0.022081749600009394,0.0075867317832682985
0.30499999999999994,-0.0026,-0.972,0.01307087943729761,1.1427671821636485,0.022090248001591102,0.007982369130165552
0.30600000000000005,0.0151,1.028,0.012837441314464574,1.1583745722635823,0.021556359076813386,0.008372602532596229
0.30699999999999994,0.0129,2.028,0.012756299825779157,1.1583745722635823,0.02137078295229964,0.008372602532596229
0.30800000000000005,0.0064,-0.972,0.012713523494542854,1.154904002653771,0.021272950562231885,0.008285827474208026
0.30899999999999994,-0.0034,0.028,0.012647836733900896,1.1549040026537711,0.021122720455916524,0.008285827474208033
0.31000000000000005,0.0021,-1.972,0.012675737875014897,1.1600753686828136,0.0211865322705792,0.00841512774464442
0.31099999999999994,-0.0091,-0.972,0.012682510294446782,1.1755133558011317,0.02120202125620311,0.008801125544487188
0.31200000000000006,-0.0134,0.028,0.01231861636550105,1.1652237839588713,0.020369770996047743,0.008543854174716198
0.31299999999999994,-0.001,-0.972,0.012409059826153979,1.1703495513658704,0.02057662136553818,0.008672014337465637
0.31400000000000006,-0.0024,0.028,0.012420644966262695,1.1737744530800753,0.02060311737193584,0.008757647556111883
0.31499999999999995,-0.01,-0.972,0.012406185358730996,1.1703495513658704,0.020570047262289146,0.008672014337465637
0.31600000000000006,-0.0089,0.028,0.012398476410380537,1.1720329704150914,0.020552416371087467,0.008714105061096421
0.31699999999999995,-0.0027,1.028,0.012318800132110407,1.187255701513627,0.020370191282829905,0.0090947207894682
0.31800000000000006,0.0141,-0.972,0.012312652297571884,1.1922867551287646,0.020356130765500306,0.009220512812187916
0.31899999999999995,0.0072,0.028,0.012380398883998731,1.1922867551287646,0.02051107183401918,0.009220512812187916
0.32000000000000006,0.0007,2.028,0.012431101877285284,1.2105746229841459,0.020627033041384312,0.00967776651384546
0.32099999999999995,0.0065,1.028,0.012355463263177664,1.2105746229841459,0.020454042366735693,0.00967776651384546
0.32200000000000006,-0.0025,1.028,0.01207620146461045,1.1753321806407748,0.019815351566967836,0.008796595600735589
0.32299999999999995,0.0055,0.028,0.011948882172202946,1.159891782110524,0.019524163652577694,0.008410537508077867
0.32400000000000007,0.0069,0.028,0.011932037881963795,1.1230599998415576,0.01948563961076617,0.007489628142682715
0.32499999999999996,-0.0079,0.028,0.01189336457265356,1.1230599998415578,0.019397191111974882,0.007489628142682721
0.32600000000000007,-0.0021,0.028,0.011836644843450874,1.1230599998415578,0.019267469218780243,0.007489628142682721
0.32699999999999996,-0.0039,0.028,0.011741618174798123,1.1230599998415576,0.01905013673967822,0.007489628142682715
0.32800000000000007,-0.0119,2.028,0.011761303373810742,1.106954807662683,0.019095158133816143,0.007086948136575299
0.32899999999999996,0.0019,0.028,0.011742604225274043,1.1087344847010288,0.0190523919044387,0.007131445609980822
0.33000000000000007,0.0109,-0.972,0.01189858649630705,1.1087344847010288,0.019409134007894357,0.007131445609980822
0.33099999999999996,0.0095,1.028,0.011895204246477208,1.1087344847010285,0.01940139857161228,0.007131445609980817
0.3320000000000001,-0.001,2.028,0.011959431888681118,1.1087344847010285,0.019548291574439318,0.007131445609980817
0.33299999999999996,0.0001,-0.972,0.01196991421493739,1.1087344847010285,0.01957226537026244,0.007131445609980817
0.3340000000000001,0.0012,0.028,0.011905772541009822,1.1033225058369793,0.01942556898275282,0.006996129268652885
0.33499999999999996,0.0023,-1.972,0.011894294825349868,1.1177173871624506,0.019399318663403824,0.007356046172200282
0.3360000000000001,0.007,0.028,0.01191347727215192,1.115952035800611,0.019443190228911052,0.007311906885362104
0.33699999999999997,0.0063,-0.972,0.01190280291522864,1.121303059786422,0.0194187772458417,0.007445699164731096
0.3380000000000001,0.0024,-0.972,0.011902470177360607,1.1159520358006114,0.019418016251620016,0.007311906885362115
0.33899999999999997,0.0031,-0.972,0.011971374100856205,1.1159520358006116,0.019575604229031665,0.00731190688536212
0.3400000000000001,-0.002,0.028,0.012284531045246428,1.1123491142111785,0.020291815541469062,0.007221822614927861
0.34099999999999997,-0.0111,0.028,0.012367753803152637,1.1177173871624517,0.020482151670788266,0.007356046172200309
0.3420000000000001,-0.0202,-0.972,0.012476622526160332,1.1123491142111785,0.02073114187325864,0.007221822614927861
0.34299999999999997,-0.0238,0.028,0.01263267295535763,1.1159520358006116,0.02108803985908949,0.00731190688536212
0.3440000000000001,-0.0249,0.02800000000005551,0.012793005562570457,1.1159520358006116,0.02145473147840519,0.00731190688536212
0.345,-0.0257,1.027999999999889,0.0128599778233207,1.1159520358006116,0.02160790161123501,0.00731190688536212
0.3460000000000001,-0.012,-0.9719999999998334,0.012852433821311718,1.099742755907461,0.02159064796357791,0.00690662436194508
0.347,-0.0218,2.0279999999997225,0.013008754352522103,1.0795790465793644,0.021948163691153755,0.006402468776267773
0.3480000000000001,-0.0052,-2.9719999999998334,0.013202398069262558,1.0795790465793644,0.022391040092256696,0.006402468776267773
0.349,0.0206,0.028,0.013215762426243982,1.062748384694579,0.022421605289117286,0.005981649766144617
0.3500000000000001,0.0543,0.028,0.013237842939281557,1.0608915674154495,0.02247210492996902,0.005935223546264979
0.351,0.0401,0.028000000000111023,0.013247676152349746,1.0646686395937213,0.022494594159613145,0.00602966212426653
0.3520000000000001,0.0184,2.028,0.013268672959486283,1.0646686395937213,0.022542615291079784,0.00602966212426653
0.353,0.0064,1.028,0.013267615262709111,1.0608915674154495,0.02254019626633673,0.005935223546264979
0.3540000000000001,0.0173,2.028,0.013270262345171691,1.0740201637466333,0.02254625032465674,0.006263479377807146
0.355,0.0075,2.028,0.013252293619784717,1.0740201637466333,0.022505154622891956,0.006263479377807146
0.3560000000000001,0.0103,0.028,0.013286723270211203,1.0740201637466333,0.022583897584082645,0.006263479377807146
0.357,0.0024,0.028,0.013202755198565829,1.088802515524835,0.022391856871356086,0.006633084250460346
0.3580000000000001,0.0002,0.028,0.013140650141640429,1.0684323593262612,0.022249818365979324,0.006123766849503761
0.359,-0.011,1.028,0.013125411049532118,1.0646686395937213,0.022214965521887044,0.00602966212426653
0.3600000000000001,-0.0208,-1.972,0.013121525853881355,1.064668639593721,0.02220607981417417,0.006029662124266524
0.361,-0.0118,1.028,0.013120246288453954,1.0514232819436735,0.02220315336068008,0.0056984868957950345
0.3620000000000001,-0.0165,1.028,0.013119555855022573,1.0683659180495189,0.022201574292283557,0.006122105610480516
0.363,-0.006,-0.972,0.013056960452531508,1.0721166583776804,0.022058414333120047,0.006215885810150072
0.3640000000000001,-0.0097,0.028,0.013057330646250117,1.0887373173578252,0.02205926099142928,0.006631454093055321
0.365,-0.0133,1.028,0.013069391973650164,1.0942214364041567,0.02208684607067363,0.006768574163809105
0.3660000000000001,-0.0079,2.028,0.013032268641991388,1.0942214364041563,0.022001942476595107,0.006768574163809094
0.367,0.003,1.028,0.01301302949642735,1.094221436404156,0.021957941237148136,0.006768574163809088
0.3680000000000001,0.0168,1.028,0.013023095083777551,1.1266916744038353,0.021980961922640454,0.0075804313270642345
0.369,0.0114,2.028,0.013258584549240936,1.1266916744038353,0.022519542408068055,0.0075804313270642345
0.3700000000000001,0.0099,-0.972,0.013251728187758301,1.1302488767930954,0.022503861441242987,0.007669372474982449
0.371,0.0055,0.028,0.013254702167770836,1.1160156440718876,0.022510663136578485,0.007313497290417918
0.3720000000000001,0.0019,0.028,0.01328043643047409,1.1160156440718876,0.022569519152373364,0.007313497290417918
0.373,0.0008,0.028,0.013278796449798794,1.1302488767930956,0.02256576840460019,0.007669372474982454
0.3740000000000001,-0.0047,-0.972,0.013277267031970564,1.1355325310931952,0.02256227052160687,0.007801480302210024
0.375,-0.0021,0.028,0.013259549905991461,1.1355325310931952,0.0225217502448657,0.007801480302210024
0.3760000000000001,0.004,0.028,0.013236496351190863,1.140791714052036,0.022469025191068047,0.007932976269626293
0.377,-0.0069,-0.972,0.013252231404362852,1.140791714052036,0.022505012331974425,0.007932976269626293
0.3780000000000001,-0.0113,1.028,0.013248625456511424,1.14602676257086,0.02249676528304412,0.008063868800812467
0.379,-0.0203,0.028,0.013195551332446348,1.14602676257086,0.022375381137700857,0.008063868800812467
0.3800000000000001,-0.0066,2.028,0.013311174182264986,1.149524134087572,0.022639818489322124,0.00815131399041764
0.381,-0.0156,1.028,0.013282009292575066,1.149524134087572,0.022573116395384583,0.00815131399041764
0.3820000000000001,0.0058,0.028,0.013256064454175582,1.1443050857052581,0.022513778778595495,0.008020821512518388
0.383,0.0029,0.028,0.013368204411377886,1.1302488767930956,0.02277025051701064,0.007669372474982454
0.3840000000000001,-0.0051,2.028,0.01340056983220693,1.1319919323253953,0.02284427244417784,0.007712954296583608
0.385,-0.0072,-0.972,0.013407565633588234,1.1319919323253953,0.02286027231957135,0.007712954296583608
0.3860000000000001,-0.0007,1.028,0.013572071842404937,1.115952035800603,0.023236509250705455,0.007311906885361904
0.387,0.0011,0.028,0.013834035886625334,1.115952035800603,0.023835638905287542,0.007311906885361904
0.3880000000000001,0.0137,0.028,0.013831029129058555,1.11234911421117,0.023828762245447617,0.007221822614927651
0.389,0.0286,0.028,0.013832454329715435,1.1141201745072669,0.023832021776654683,0.007266104642917624
0.3900000000000001,0.0148,1.028,0.013829092482966463,1.1105113096780992,0.02382433300361156,0.007175871772964276
0.391,0.0166,0.028,0.013828668625252056,1.1158884239034972,0.02382336361208006,0.007310316389649058
0.3920000000000001,0.0246,-0.972,0.013789193859278442,1.1158884239034972,0.023733082127180616,0.007310316389649058
0.393,0.0202,0.028,0.013676250696576051,1.1158884239034972,0.023474773402948363,0.007310316389649058
0.39400000000000013,0.0165,0.028,0.013470313826014069,1.1194799546767091,0.023003781719747325,0.007400115854171376
0.395,0.0002,-0.972,0.013238645828540974,1.1248141955904676,0.022473941192522127,0.007533488504424393
0.39600000000000013,-0.0201,0.028,0.01298941729908875,1.1194799546767102,0.02190393852972506,0.007400115854171403
0.397,-0.0226,0.028,0.012934650703612185,1.1194799546767116,0.02177868358671118,0.007400115854171436
0.39800000000000013,-0.006,0.028,0.012769836752131362,1.0996782063700525,0.02140174282709328,0.006905010422301939
0.399,-0.0081,-0.972,0.012759243890657777,1.0663857558504435,0.021377516229681436,0.006072595383122704
0.40000000000000013,-0.006300000000000377,-0.972,0.012599702925841392,1.071984228409908,0.02101263515057535,0.006212574648157147
0.401,-0.008,-0.972,0.011381916869134867,1.075722352784733,0.018227475295218912,0.006306039409667993
0.40200000000000014,-0.003300000000000311,0.028,0.010687040523699206,1.0959570208901668,0.016638245650909895,0.0068119691859649546
0.403,-0.0047,-1.972,0.010761016612128927,1.0757223527847328,0.01680743401582514,0.006306039409667988
0.40400000000000014,-0.0012000000000019317,0.028,0.010743864264702545,1.0757223527847328,0.01676820542619398,0.006306039409667988
0.405,-0.0099,-0.972,0.010620811752110349,1.055099696200787,0.01648677592855348,0.005790408712005942
0.40600000000000014,-0.0022999999999998447,2.028,0.010601200159097901,1.037940533887371,0.016441922876363358,0.005361376167195458
0.40700000000000003,-0.0016,0.028,0.010567656899604117,1.0436916007927175,0.01636520715175361,0.005505170766530123
0.40800000000000014,-0.0008999999999995337,0.028,0.010571751824314315,1.0494111507145945,0.016374572524144548,0.005648177343036187
0.40900000000000003,0.0012,0.02799999999994449,0.010573114797963457,1.0532293945600195,0.016377689737936407,0.005743645341053135
0.41000000000000014,-0.0010000000000017764,-0.9719999999998334,0.010520543867764885,1.0513557657651083,0.016257456431321125,0.005696798780875632
0.41100000000000003,-0.009,2.0279999999998335,0.010369192813825865,1.0340658381192491,0.0159113062375532,0.005264496695144305
0.41200000000000014,0.003999999999998801,-0.9719999999998334,0.010326925250295705,1.0321574231712607,0.01581463743396523,0.005216780372707651
0.41300000000000003,-0.0014,2.0279999999999445,0.010194619926565708,1.0321574231712607,0.015512046125522021,0.005216780372707651
0.41400000000000015,-0.006099999999999045,1.027999999999889,0.010179082415348465,1.028260935699884,0.015476510776553211,0.005119356040148021
0.41500000000000004,-0.0018,-0.9719999999999445,0.010132754725076312,1.0321574231712607,0.015370556185903403,0.005216780372707651
0.41600000000000015,-0.0053999999999975136,0.027999999999833467,0.010045025114767448,1.0302454731032835,0.01516991257743647,0.005168975661251925
0.41700000000000004,0.0058,-2.972,0.010014458780447748,1.0126652545699473,0.01510000528394777,0.004729415398465404
0.41800000000000015,0.02859999999999494,-0.972,0.010013089875180905,1.0107164322674724,0.01509687450414125,0.004680688766212471
0.41900000000000004,0.0058,-0.972,0.009882434218400031,1.008763845058773,0.014798056096640783,0.004631867999568301
0.42000000000000015,0.0028999999999970243,1.028,0.009818224305673444,0.9927904559467192,0.014651203642338843,0.004232483480975898
0.42100000000000004,-0.0105,1.028,0.009768514599811104,0.9887388406944266,0.014537514151129036,0.004131180470343207
0.42200000000000015,0.0013999999999985567,2.028,0.009754083207271566,0.9887388406944265,0.01450450857109578,0.004131180470343204
0.42300000000000004,-0.0051,1.028,0.00977656879394522,0.9927904559467191,0.014555934643009402,0.004232483480975896
0.42400000000000015,0.0006999999999995781,0.028,0.009805810097074492,0.9968256034733605,0.014622811499699826,0.004333374747135616
0.42500000000000004,-0.0012,1.028,0.009796951052865049,0.9927904559467186,0.014602550260746491,0.004232483480975882
0.42600000000000016,0.006799999999999023,0.028,0.009794760283764824,0.99682560347336,0.01459753982224073,0.004333374747135604
0.42700000000000005,0.0024,1.028,0.009855031680940126,0.99682560347336,0.014735384622576909,0.004333374747135604
0.42800000000000016,-0.0012000000000036415,2.028,0.009838887855818471,0.9988015293829672,0.014698462592312965,0.004382779054051736
0.42900000000000005,-0.0176,-0.972,0.009829834375687588,0.9968256034733588,0.014677756665132293,0.004333374747135574
0.42999999999999994,-0.0064,-0.972,0.009618021827457317,1.0008444824552731,0.014193326905945235,0.004433859248966294
0.43100000000000005,-0.0046,0.028,0.009660534061766377,1.0207015477929107,0.014290555288309309,0.004930347779039456
0.43199999999999994,-0.0173,1.028,0.009544740244184453,1.032432483327724,0.01402572692174068,0.005223657734011658
0.43300000000000005,-0.0093,1.028,0.009588266851208203,1.032432483327724,0.014125275243758985,0.005223657734011658
0.43399999999999994,0.0045,0.028,0.009719998817223111,1.032432483327724,0.014426555243962106,0.005223657734011658
0.43500000000000005,0.0212,0.028,0.009707447512852031,1.0148901495204585,0.014397849553932092,0.004785044707467716
0.43599999999999994,0.0277,0.028,0.009686645313148175,1.0168309726554297,0.014350273502950709,0.004833571335598781
0.43700000000000006,0.0056,0.028,0.009730057992453732,1.0109271097722738,0.014449561264499157,0.004685956360537201
0.43799999999999994,-0.0031,1.028,0.009735708729071993,1.0148901495204585,0.01446248488494603,0.004785044707467716
0.43900000000000006,-0.0005,0.028,0.009641222822169329,1.0188377740910448,0.014246389164886672,0.004883747626907485
0.43999999999999995,0.0017,1.028,0.00920777795818484,1.0227701619796752,0.0132550711677461,0.004982069581803962
0.44100000000000006,0.0038,0.028,0.009106736148234741,1.0227701619796752,0.013023981649816605,0.004982069581803962
0.44199999999999995,-0.0099,-0.972,0.00904951559784881,1.0227701619796752,0.012893114344382593,0.004982069581803962
0.44300000000000006,0.0028,-0.972,0.008847443012116523,1.040179610102276,0.01243096054441897,0.005417360052012155
0.44399999999999995,0.0013,1.028,0.008718972181802086,1.045918365338035,0.012137138984215059,0.005560846821230323
0.44500000000000006,0.0027,0.028,0.008635725297387455,1.0516258044714628,0.011946747675923868,0.0057035505902745115
0.44599999999999995,0.0015,-0.972,0.008687708881235549,1.047801717076812,0.012065637681334855,0.005607936485311939
0.44700000000000006,-0.0072,0.028,0.008451935710756933,1.047801717076812,0.01152640834316762,0.005607936485311939
0.44799999999999995,0.0003,1.028,0.008146378056972966,1.047801717076812,0.010827577127184091,0.005607936485311939
0.44900000000000007,-0.0044,1.028,0.008148515480829118,1.047801717076812,0.010832465561474543,0.005607936485311939
0.44999999999999996,-0.0052,-0.972,0.008152592954872855,1.0439636219658133,0.01084179102299985,0.005511972143777098
0.45100000000000007,0.0086,2.028,0.008253127820314933,1.0439636219658133,0.011071721124228145,0.005511972143777098
0.45199999999999996,0.0223,0.028,0.008215755672728175,1.0401113640696575,0.01098624847113455,0.005415653688466388
0.45300000000000007,0.002,1.028,0.008371472204627176,1.0610253818945952,0.011342382811047545,0.005938569325357905
0.45399999999999996,-0.006,0.028,0.008425273896685683,1.049614061482202,0.01146543095406608,0.005653250744721307
0.45500000000000007,-0.0038,-0.972,0.008439881329903127,1.0534315698621814,0.011498839151148788,0.005748700353809587
0.45599999999999996,-0.0059,1.028,0.008438517645073139,1.049614061482202,0.011495720310837778,0.005653250744721307
0.4570000000000001,0.0038,1.028,0.00916718868860729,1.045850493782791,0.013162240737012342,0.005559149820786204
0.45799999999999996,-0.0017,-0.972,0.009336856116798138,1.045850493782791,0.013550281729234507,0.005559149820786204
0.4590000000000001,-0.0032,-0.972,0.009349838097407378,1.0458504937827908,0.013579972405225377,0.005559149820786198
0.45999999999999996,-0.0108,0.028,0.009351455932452906,1.045850493782791,0.013583672504431292,0.005559149820786204
0.4610000000000001,-0.0072,-0.972,0.00935104141297206,1.0420052116110432,0.013582724470077507,0.0054630057803297825
0.46199999999999997,-0.001,1.028,0.009309116307842187,1.0265491977229917,0.013486838892232152,0.0050765572550522785
0.4630000000000001,-0.0021,0.028,0.009313409413487597,1.0226313416987496,0.013496657517952615,0.00497859864206291
0.46399999999999997,0.0004,-0.972,0.00937351895878415,1.004917928981265,0.01363413215199175,0.0045357081094919245
0.4650000000000001,-0.0003,-0.972,0.009355541167250226,1.0049179289812662,0.013593015715329905,0.004535708109491952
0.46599999999999997,-0.0011,-0.972,0.009353882339395568,1.0009154058494967,0.01358922186277075,0.004435632554897815
0.4670000000000001,0.0025,-0.972,0.009445707831757862,1.0049179289812669,0.013799233033137952,0.004535708109491969
0.46799999999999997,0.0047,-0.972,0.009428987680577608,0.9663349602212096,0.013760992905829649,0.003571013623180799
0.4690000000000001,-0.0018,1.0279999999999445,0.009005784307434022,0.9807301614954353,0.012793097897474338,0.0039309385264443735
0.47,0.0007,0.028,0.00898876597423002,0.9807301614954353,0.012754175807519513,0.0039309385264443735
0.4710000000000001,-0.0014,0.02799999999994449,0.009000378390933764,0.9787177521170924,0.012780734197352293,0.0038806220190869076
0.472,0.0069,-0.972,0.008961764384207378,0.994917104078525,0.012692421327619123,0.004285656313264554
0.4730000000000001,-0.0076,-0.9719999999999445,0.008961476136848954,0.9787177521170924,0.012691762086230478,0.0038806220190869076
0.474,0.0022,0.02799999999994449,0.008947860904108403,0.9767011963499411,0.012660623119380363,0.003830201839084487
0.4750000000000001,0.0004,-0.9719999999999445,0.008947738082826505,0.9767011963499411,0.012660342218723107,0.003830201839084487
0.476,0.0116,0.02800000000005551,0.009038139733830936,0.9767011963499411,0.012867096966692899,0.003830201839084487
0.4770000000000001,0.004,1.027999999999889,0.009042170304382717,0.9828106799533012,0.012876315156729795,0.00398295797309332
0.478,0.0105,-0.972,0.009118424660464395,0.9767011963499411,0.013050714075312523,0.003830201839084487
0.4790000000000001,-0.0007,-0.972000000000111,0.009128275141603187,0.958139034751645,0.013073242798213086,0.0033660899388506427
0.48,-0.0112,-2.972,0.00896294033352551,0.9767011963499411,0.01269511080399698,0.003830201839084487
0.4810000000000001,-0.0046,-1.972,0.008942728458572701,0.9787177521170924,0.012648884866025336,0.0038806220190869076
0.482,-0.0108,0.028,0.008963196828294344,0.9969680170152935,0.012695697425045342,0.004336935529602439
0.4830000000000001,-0.0162,0.028,0.008823846803279212,0.9909458215626836,0.012376994403789948,0.00418636187144902
0.484,-0.0013,-0.972,0.00882472798206441,0.9909458215626836,0.012379009719833689,0.00418636187144902
0.4850000000000001,-0.0034,1.028,0.00882060516558386,0.9909458215626837,0.012369580557059659,0.004186361871449023
0.486,-0.0092,0.028,0.008579321303658918,0.9949884499800378,0.011817747891315268,0.004287440183195309
0.4870000000000001,0.0035,-0.972,0.008129531007834374,0.9990147195686427,0.010789046775581184,0.00438810947323062
0.488,0.0021,-0.972,0.008110372982313428,0.9990147195686429,0.010745231063211196,0.0043881094732306225
0.4890000000000001,0.0007,-0.972,0.008114735835175852,0.9930049366624267,0.010755209205578924,0.004237846167428304
0.49,-0.0058,1.028,0.008120089186243188,0.9930049366624267,0.010767452684967,0.004237846167428304
0.4910000000000001,0.0131,0.028,0.008128631146346805,0.9930049366624266,0.010786988730921569,0.0042378461674283
0.492,0.0156,2.028,0.008121343159802952,0.9970392161580636,0.01077032060811253,0.004338715730107163
0.4930000000000001,0.0135,1.028,0.008061165943146778,0.9930049366624266,0.01063269120505372,0.0042378461674283
0.494,0.0113,1.028,0.008057237108851666,0.9949884499800378,0.010623705692781812,0.004287440183195309
0.4950000000000001,0.0095,0.028,0.00808735391234743,0.9949884499800378,0.010692584878584706,0.004287440183195309
0.496,0.0005,0.028,0.008083033593633448,0.9990147195686427,0.01068270401471846,0.00438810947323062
0.4970000000000001,0.002,0.028,0.008127197344403975,0.9990147195686427,0.010783709527986282,0.00438810947323062
0.498,0.0063,0.028,0.008098698683007685,0.9990147195686427,0.010718531143642643,0.00438810947323062
0.4990000000000001,-0.0085,0.028,0.008118621261026162,0.9930049366624266,0.01076409543977388,0.0042378461674283
0.5,-0.0143,-0.972,0.008112923739066134,0.9930049366624266,0.01075106481805614,0.0042378461674283
0.5010000000000001,-0.0016,0.028,0.008099719255123579,0.9889542001097998,0.010720865261750687,0.004136565127026257
0.502,-0.0164,2.028,0.00805424105316159,0.9706263920161154,0.010616853508864566,0.0036783127949130676
0.5030000000000001,-0.0106,1.028,0.007754538133885733,0.9706263920161154,0.009931412470429845,0.0036783127949130676
0.504,-0.0051,-0.972,0.00776739811053485,0.9706263920161154,0.00996082411503416,0.0036783127949130676
0.5050000000000001,0.0098,0.028,0.007745794510294133,0.9747532955570644,0.009911415206309795,0.003781498247443951
0.506,0.0359,-1.972,0.007749453861737017,0.9747532955570644,0.009919784392899865,0.003781498247443951
0.5070000000000001,0.0178,0.028,0.007727976638010643,0.9685929906418348,0.00987066451589209,0.003627471422222824
0.508,-0.005,0.028,0.007727976638010643,0.9623932542581695,0.00987066451589209,0.003472458687378627
0.5090000000000001,-0.0021,0.028,0.007727167515892099,0.9623932542581695,0.009868813998364617,0.003472458687378627
0.51,0.0005,0.028,0.007780063969091075,0.9582131190505031,0.009989791798306724,0.003367942277250913
0.5110000000000001,-0.0017,1.028,0.007784288398630102,0.9623932542581695,0.009999453357083066,0.003472458687378627
0.512,0.0049,0.028,0.007751756678063536,0.9623932542581695,0.009925051091062124,0.003472458687378627
0.5130000000000001,0.0107,-0.972,0.007759036828867322,0.9603424204334104,0.009941701292998647,0.00342118144908758
0.514,-0.0019,1.028,0.0077723253131908344,0.9645133274377463,0.009972092963910427,0.0035254671253667188
0.5150000000000001,-0.0004,0.028,0.007795416494232883,0.9665553114864981,0.01002490407149119,0.0035765230916718705
0.516,-0.0142,-0.972,0.007795360862206919,0.9685929906418315,0.010024776837249564,0.003627471422222741
0.5170000000000001,-0.0014,-0.972,0.007813894019902685,0.9644397270951417,0.01006716343424086,0.003523626887381331
0.518,-0.0061,-1.972,0.007815271742411792,0.9664818666467982,0.010070314379682428,0.0035746867417438214
0.5190000000000001,-0.0017,-0.972,0.00782048193621588,0.9685197003235428,0.010082230448635474,0.003625638935811632
0.52,-0.0054,-0.972,0.007818390797043261,0.9623194917676469,0.010077447870576326,0.003470614395189857
0.5210000000000001,-0.0064,2.028,0.007821203418760971,0.9664818666467965,0.010083880528474918,0.0035746867417437767
0.522,0.0012,1.028,0.007841477139511147,0.9664818666467966,0.010130247912007628,0.0035746867417437798
0.5230000000000001,-0.0013,-0.972,0.007811440814644994,0.9623194917676461,0.01006155278632529,0.0034706143951898374
0.524,-0.0005,0.028,0.007776641171652403,0.9643661211353639,0.009981963626874882,0.0035217865089491045
0.5250000000000001,-0.01279999999999878,1.028,0.007773607129811749,0.964366121135364,0.00997502456603778,0.0035217865089491075
0.526,-0.0073,1.028,0.007783243445152958,0.966408416225456,0.009997063477137217,0.0035728502522573147
0.5270000000000001,-0.011999999999998312,0.028,0.007786247161068749,0.9664084162254559,0.010003933180513671,0.0035728502522573116
0.528,-0.0044,-0.972,0.007777109822728675,0.9643661211353645,0.009983035463883207,0.0035217865089491184
0.5290000000000001,-0.003299999999999756,2.028,0.007706174203718093,0.9664084162254571,0.009820800860115903,0.0035728502522573424
0.53,-0.0022,1.028,0.007723317130399506,0.9622457236227442,0.00986000790386012,0.0034687699616239597
0.5310000000000001,-0.0075999999999967136,-1.972,0.007670796160730247,0.9175138416758903,0.009739888860386408,0.002350333478811744
0.532,0.0072,0.028,0.007700812934895261,0.8976496315515197,0.009808539272280425,0.0018536663067991765
0.5330000000000001,0.009399999999998713,1.028,0.007689992533493694,0.9175138416758905,0.00978379227551813,0.0023503334788117472
0.534,0.0036,0.028,0.007561920274280528,0.9240147484459947,0.009490882274635046,0.0025128764120977663
0.5350000000000001,-0.005399999999999667,-0.972,0.007566704319541628,0.9240147484459947,0.009501823712775224,0.0025128764120977663
0.536,-0.0039,-0.972,0.007596223045784631,0.9218785408002438,0.009569335055067659,0.002459464562162436
0.5370000000000001,0.0004000000000008216,0.028,0.007550325305559877,0.9412315510172078,0.00946436378953085,0.0029433501430241303
0.538,0.0041,0.028,0.007556825403579586,0.9369570098511045,0.009479229957492518,0.002836473289661854
0.5390000000000001,0.0030000000000002442,0.028,0.007562463727562313,0.9559305703583891,0.00949212518939446,0.0033108714449955503
0.54,0.0041,1.028,0.0075629597837145604,0.9579908489664414,0.00949325970368261,0.0033623848323093447
0.5410000000000001,0.0015999999999998446,-0.972,0.007541906155112996,0.9579908489664414,0.009445108617646001,0.0033623848323093447
0.542,0.0009,0.028,0.007466279772115073,0.9621719498221609,0.009272145916380333,0.003466925386648418
0.5430000000000001,-0.001199999999998157,1.028,0.007310496154941572,0.9390589170370786,0.008915858147864346,0.002889027521184497
0.544,0.0071,1.028,0.0071960961946136714,0.9390589170370786,0.008654217628000501,0.002889027521184497
0.5450000000000002,-0.0004999999999979794,-0.972,0.007225025380154246,0.9517966340717215,0.008720380650455918,0.0032075101518998666
0.546,0.0086,-0.972,0.007195648195376944,0.9517966340717215,0.008653193023159205,0.0032075101518998666
0.5470000000000002,0.0024000000000007327,0.028,0.007205030193566418,0.9517966340717215,0.008674650293569265,0.0032075101518998666
0.548,0.0057,0.028,0.0072216898632747675,0.9560048257992187,0.008712752095621982,0.0033127280624785753
0.5490000000000002,0.0031999999999998223,1.028,0.0071959916483457075,0.9746804684580822,0.00865397852354783,0.0037796773429594095
0.55,0.0024,0.028,0.007161561040088649,0.9746804684580821,0.008575233371733226,0.003779677342959407
0.5510000000000002,0.0005999999999988009,-0.972,0.007054950022378482,0.9746804684580821,0.00833140669542188,0.003779677342959407
0.552,-0.0048,0.028,0.0070838505923246945,0.9746804684580821,0.008397504272059276,0.003779677342959407
0.5530000000000002,0.0048999999999985566,1.028,0.00691548996687331,0.958139034751639,0.008012452026923496,0.003366089938850493
0.554,-0.0016,-0.972,0.006843070267072068,0.9560790754728785,0.007846823229063158,0.0033145845357643775
0.5550000000000002,0.004499999999999289,-0.972,0.006848508997374858,0.9581390347516389,0.007859261976591937,0.00336608993885049
0.556,0.0013,0.028,0.006786219940880534,0.9581390347516389,0.007716802651638582,0.00336608993885049
0.5569999999999999,0.0038,0.028,0.005764027470413882,0.9454867672005751,0.00537897868205652,0.0030497438115799354
0.558,0.0013,-0.972,0.005484094339458154,0.9454867672005751,0.004738752499281282,0.0030497438115799354
0.5589999999999999,-0.0096,0.028,0.005461210050820052,0.9454867672005751,0.0046864145687538095,0.0030497438115799354
0.56,-0.0111,-0.972,0.005457712612150847,0.9643661211353634,0.004678415687731649,0.0035217865089490906
0.5609999999999999,0.0012,-0.972,0.005467408484018326,0.9705532552480212,0.004700590808672855,0.0036764841477354504
0.562,-0.0035,-0.972,0.005465828766564199,0.9643661211353634,0.0046969778870009325,0.0035217865089490906
0.563,-0.005,-0.9719999999997779,0.005536949485077657,0.970553255248021,0.004859635825968881,0.0036764841477354474
0.5640000000000001,-0.006,1.028,0.005502097409810225,0.9848868034417286,0.004779926750326125,0.00403486753180671
0.565,0.0001,1.027999999999889,0.005556555505023386,0.9787902788211591,0.004904476132174917,0.003882435412762198
0.5660000000000001,0.0055,0.028000000000111023,0.005558407072568984,0.9848868034417286,0.004908710793566449,0.00403486753180671
0.567,0.0029,1.028,0.005373896698772314,0.9848868034417286,0.004486722971349875,0.00403486753180671
0.5680000000000001,0.0055,1.027999999999889,0.005396125586747607,0.9808025393893158,0.004537561955814386,0.0039327481994011525
0.569,-0.0,0.02799999999988898,0.005396125586747607,0.9622457236227442,0.004537561955814386,0.0034687699616239597
0.5700000000000001,-0.0022,-0.971999999999889,0.005396451443734566,0.9580649447240634,0.004538307212991266,0.003364237457214431
0.571,-0.0058,0.028,0.005418565302018178,0.953865841713596,0.004588883116697315,0.0032592467928919855
0.5720000000000001,0.0007,0.028000000000111023,0.00538164353936461,0.9538658417135959,0.004504440524695706,0.003259246792891983
0.573,-0.0019,1.027999999999889,0.005380324267586194,0.9475697537960585,0.00450142326006592,0.003101824969362773
0.5740000000000001,0.0003,0.028000000000111023,0.005400033535986961,0.9496481715176683,0.0045464997025378585,0.0031537918910570983
0.575,0.0039,1.027999999999889,0.005414527176154307,0.9496481715176684,0.004579647647145835,0.003153791891057101
0.5760000000000001,0.0118,0.02799999999988898,0.005260858543593334,0.9433239337512788,0.0042281969928381034,0.002995666233560445
0.577,-0.0013,-0.972,0.005214111344304028,0.9369570098511045,0.004121282956424317,0.002836473289661854
0.5780000000000001,0.0005,1.028,0.005091369545952428,0.9412315510172079,0.0038405640834659016,0.002943350143024133
0.579,0.0052,0.028,0.0050800171719521834,0.9560048257992187,0.0038146004290502936,0.0033127280624785753
0.5800000000000001,0.0067,0.028,0.005099978039856754,0.9327389857798731,0.0038602522967652484,0.0027310095398413053
0.581,-0.0082,0.028,0.005095557537787045,0.9327389857798731,0.003850142306724492,0.0027310095398413053
0.5820000000000001,-0.01,-1.972,0.005045619134232537,0.913206015612794,0.003735929768278486,0.0022426243992719978
0.583,-0.0082,1.028,0.005033790360468383,0.9327389857798731,0.0037088765550768892,0.0027310095398413053
0.5840000000000001,0.003,-0.972,0.005100727738032268,0.9262993090328862,0.0038619669076778774,0.00256999754799386
0.585,-0.0075,-0.972,0.005108743005006715,0.9262993090328862,0.0038802983704863516,0.00256999754799386
0.5860000000000001,-0.0039,-1.972,0.005125231801784083,0.9284253450183976,0.003918009374479659,0.0026231550747170306
0.587,0.0047,0.028,0.005110343503139422,0.9305465236248313,0.003883958818988976,0.0026761911518222788
0.5880000000000001,0.0036,2.028,0.005112724073596459,0.9369570098511044,0.003889403346156348,0.002836473289661851
0.589,-0.0011,1.028,0.005205566485766536,0.9412315510172078,0.00410174028155359,0.0029433501430241303
0.5900000000000001,0.0014,1.028,0.00593718448848385,0.9475697537960583,0.00577500060458205,0.0031018249693627706
0.591,-0.0076,-0.972,0.00604357264771043,0.9412315510172078,0.006018317588325893,0.0029433501430241303
0.5920000000000001,0.0036,0.028,0.006206305707594178,0.9369570098511045,0.006390499206789566,0.002836473289661854
0.593,-0.004,1.028,0.0063285045475421475,0.9369570098511045,0.006669976296808696,0.002836473289661854
0.5940000000000001,-0.013,-1.972,0.0063412191753713515,0.9305465236248314,0.006699055518738259,0.0026761911518222814
0.595,-0.0069,0.028,0.006760660548793449,0.9284253450183976,0.007658346576882079,0.0026231550747170306
0.5960000000000001,-0.0037,0.028,0.007500731628796615,0.9284253450183976,0.009350939664792455,0.0026231550747170306
0.597,0.0053,-0.972,0.008047316607497627,0.9240915684884234,0.01060101682886839,0.0025147971526149108
0.5980000000000001,0.0016,-1.972,0.008106818621419331,0.9284253450183976,0.010737101997174375,0.0026231550747170306
0.599,0.0048,0.028,0.008089783522612628,0.9284253450183976,0.010698141563141509,0.0026231550747170306
0.6000000000000001,0.0073,-0.972,0.00808349054421094,0.9664818666467955,0.010683749091887235,0.003574686741743752
0.601,0.0066,0.028,0.008104540959572621,0.9706263920161093,0.010731892829024849,0.003678312794912915
0.6020000000000001,0.0058,1.028,0.008144786611841523,0.9664818666467955,0.010823937383513447,0.003574686741743752
0.603,0.0036,-0.972,0.008163361431925552,0.9706263920161093,0.010866419265231176,0.003678312794912915
0.6040000000000001,0.0058,1.028,0.00815092723309879,0.9869585596959348,0.010837981403576336,0.0040866678960514245
0.605,-0.0033,0.028,0.008154120059665166,0.9889542001097938,0.0108452836159221,0.004136565127026107
0.6060000000000001,-0.0023,1.028,0.0081429291955074,1.006948472838305,0.010819689345543239,0.004586478035343955
0.607,0.0013,0.028,0.008180060187143505,1.0109271097722774,0.0109046104585129,0.00468595636053729
0.6080000000000001,0.0002,0.028,0.008182530200501975,1.0109271097722774,0.010910259547702514,0.00468595636053729
0.609,0.0008,-1.972,0.008182111646269858,1.0128755267209582,0.010909302285597104,0.004734672857681838
0.6100000000000001,0.0033,1.028,0.00824367484603983,1.0128755267209582,0.011050101526664401,0.004734672857681838
0.611,0.0011,0.028,0.008251974066065995,1.0553687769427873,0.011069082409488892,0.005797136569309886
0.6120000000000001,-0.0101,1.028,0.008310393784487741,1.0553687769427873,0.011202692294093349,0.005797136569309886
0.613,-0.0087,-1.972,0.00831521576506463,1.0515583012960237,0.011213720492890747,0.005701862800473794
0.6140000000000001,0.008,0.028,0.008393841550031183,1.0684987964715613,0.011393543031241177,0.00612542798522807
0.615,0.0015,1.028,0.008412451864524911,1.062881965404584,0.011436106091097251,0.00598498970028034
0.6160000000000001,-0.0004,-0.972,0.008442426109271027,1.0610253818946018,0.011504659235306578,0.0059385693253580715
0.617,0.0051,0.028,0.008426049800421042,1.0648019794054298,0.011467205498883243,0.006032996035193937
0.6180000000000001,-0.0061,0.028,0.00845089392316595,1.0629487494644287,0.011524025703819569,0.005986659509949636
0.619,-0.0018,0.028,0.008469105464731718,1.0573024346463653,0.011565676742763396,0.005845484039320694
0.6200000000000001,0.0073,0.028,0.008487655166427202,1.0573024346463653,0.01160810117701158,0.005845484039320694
0.621,0.0011,2.028,0.008484803247276521,1.053498953007547,0.011601578643200772,0.005750385142484317
0.6220000000000001,0.0,0.028,0.008466622457807752,1.053498953007547,0.011559997936402363,0.005750385142484317
0.623,0.0048,1.028,0.008472044359839968,1.0573024346463662,0.011572398196527401,0.005845484039320717
0.6240000000000001,0.004,0.028,0.008503109930285857,1.0554360364093163,0.011643447277121766,0.0057988182656281825
0.625,0.0001,0.028,0.008535126424699627,1.0592325624113637,0.011716671185754483,0.005893743249863808
0.6260000000000001,-0.0021,0.028,0.008529650859997979,1.074218426090062,0.011704148195440666,0.00626843655439815
0.627,-0.0042,-0.972,0.008448049974553205,1.0797762882330184,0.011517521399173206,0.006407400432432808
0.6280000000000001,-0.0028,-1.972,0.008565421104328964,1.0797762882330184,0.011785957186419251,0.006407400432432808
0.629,0.0056,0.028,0.008576530887591414,1.074218426090062,0.011811366019254775,0.00626843655439815
0.6300000000000001,-0.0006,1.028,0.00857374182562341,1.074218426090062,0.011804987244112287,0.00626843655439815
0.631,0.0027,0.028,0.008553989277273591,1.0944808990152082,0.011759811817441953,0.006775061537858568
0.6320000000000001,-0.0063,-1.972,0.008516652619888468,1.0944808990152082,0.01167442033286257,0.006775061537858568
0.633,0.0125,0.028,0.008462989618542957,1.0778829480360408,0.011551689384973689,0.006360061025761062
0.6340000000000001,0.0046,0.028,0.008442295481184263,1.0926130400767375,0.011504360479953589,0.006728359242077351
0.635,0.0068,1.028,0.008449478303747607,1.0926130400767375,0.011520788085559187,0.006728359242077351
0.6360000000000001,0.0002,1.028,0.00844587623974749,1.094416039129297,0.011512549919261997,0.00677343983853547
0.637,-0.0016,1.028,0.008451094238230808,1.083356489683821,0.0115244838380493,0.006496916628580163
0.6380000000000001,-0.0106,-0.972,0.008540554004845395,1.087055508270478,0.011729084432112884,0.006589403623489811
0.639,-0.0287,1.028,0.008766343859630968,1.066651989499602,0.012245481245684782,0.0060792520542309065
0.6400000000000001,-0.012,0.028,0.00904218788401771,1.0666519894995998,0.012876355362555263,0.006079252054230851
0.641,-0.0142,0.028,0.009188505658428669,1.064801979405432,0.013210994102398142,0.006032996035193992
0.6420000000000001,-0.0124,0.028,0.009157003175755183,1.064801979405431,0.013138945773709323,0.00603299603519397
0.643,0.0042,0.028,0.009151912006982255,1.0648019794054313,0.013127301923128908,0.006032996035193976
0.6440000000000001,0.0245,-0.972,0.009220353760975072,1.0797105450187006,0.01328383288733333,0.006405756647146113
0.645,0.0325,-0.972,0.00929077754833965,1.0628819654045822,0.013444896897181202,0.005984989700280296
0.6460000000000001,0.0304,0.028,0.009604501308925104,1.0628819654045822,0.014162404556956148,0.005984989700280296
0.647,0.0101,-0.972,0.009822450880201125,1.0628819654045822,0.014660870106850687,0.005984989700280296
0.6480000000000001,0.0022,0.028,0.010256977363009904,1.0647353115868907,0.015654661840089335,0.0060313291319196195
0.649,0.0001,-2.972,0.010383033349937457,1.0476662135898827,0.015942960488595347,0.005604548475759603
0.6500000000000001,-0.0063000000000004,-0.972,0.010378246278782269,1.0476662135898827,0.0159320121300288,0.005604548475759603
0.651,-0.0081,0.028,0.010361910252719117,1.0438276202403467,0.01589465052308924,0.005508571676708264
0.6520000000000001,-0.007299999999998801,-0.972,0.010551832049947562,1.0476662135898813,0.016329014640156223,0.005604548475759569
0.653,-0.0019,2.028,0.010549712174122632,1.0419370851538468,0.016324166339411257,0.005461302406542295
0.6540000000000001,0.002799999999999689,1.028,0.010577071775910009,1.0553015131894916,0.016386739616660647,0.00579545476580906
0.655,0.0014,2.028,0.010732376627784104,1.0666519894995923,0.01674193241624946,0.006079252054230662
0.6560000000000001,0.007899999999999201,-0.972,0.010972997002167672,1.0722490719894806,0.017292247640687482,0.006219196563192705
0.657,0.0043,0.028,0.010981918508866999,1.0834220116582967,0.017312651735619772,0.006498554882181174
0.6580000000000001,0.0009999999999966915,1.028,0.011516115260802257,1.0889329001479267,0.01853439617928311,0.006636344272460686
0.659,-0.0139,0.028,0.011610704222901912,1.108926540570791,0.01875072759361402,0.007136247605383914
0.6600000000000001,-0.011699999999999601,3.028,0.011615436267755276,1.1668537639548011,0.018761550103271407,0.008584608755439361
0.661,-0.0099,-0.972,0.01161077655179857,1.1804741895248496,0.018750893014738895,0.008925161851038371
0.6620000000000001,-0.004500000000001776,0.028,0.011614160427587313,1.1804741895248498,0.018758632169699998,0.008925161851038378
0.663,-0.0125,2.028,0.011622339436078658,1.1753925754638264,0.018777338120536974,0.008798105659569108
0.6640000000000001,-0.008199999999999756,0.028,0.011596947852013746,1.1651019369531916,0.018719265834184182,0.008540807619763838
0.665,-0.0071,-0.972,0.011570953560919726,1.1651019369531919,0.018659815115706326,0.008540807619763844
0.6660000000000001,0.0016000000000012213,-0.972,0.01162908374483879,1.1599529808631104,0.018792762815135342,0.008412067667655697
0.667,0.0071,-0.972,0.011631937033460616,1.1564871480012562,0.018799288481020162,0.008325411042731382
0.6680000000000001,-0.007799999999999511,0.028,0.011643747115634385,1.1564871480012562,0.018826298945278392,0.008325411042731382
0.669,-0.0056,0.028,0.011631350227750798,1.1616514663060273,0.018797946416297975,0.008454535098092466
0.6700000000000002,0.00019999999999957812,0.028,0.011631350227750798,1.1770687821080021,0.018797946416297975,0.00884001605059191
0.671,-0.0017,0.028,0.011610013664882695,1.1804741895248498,0.018749148240276608,0.008925161851038378
0.6720000000000002,-0.003100000000000977,-0.972,0.011620660215041826,1.1617125723588528,0.018773497627377855,0.008456062939887316
0.673,-0.0075,-0.972,0.011623549633438422,1.1651628620488035,0.018780105924524313,0.008542330937064283
0.6740000000000002,0.007399999999997824,-0.972,0.011613672864462047,1.1651628620488035,0.01875751707954441,0.008542330937064283
0.675,-0.0024,2.028,0.01160854890159414,1.1686029648340341,0.018745798226629775,0.008628344229869562
0.6760000000000002,-0.0006999999999966915,1.028,0.011609282635613621,1.1686029648340341,0.018747476326427617,0.008628344229869562
0.677,0.0142,-0.972,0.011607791408271732,1.172032970415095,0.01874406578768399,0.00871410506109651
0.6780000000000002,0.004399999999997979,0.028,0.011600271480553296,1.172032970415095,0.018726867199573033,0.00871410506109651
0.679,-0.0047,0.028,0.011596876468836597,1.1600141763870366,0.018719102575984393,0.008413597746506957
0.6800000000000002,-0.003299999999999689,2.028,0.011610239299467709,1.1957081886406493,0.018749664281977607,0.00930605931496539
0.681,-0.0019,0.028,0.011662940740005569,1.194058148091865,0.018870196074649365,0.009264803157889943
0.6820000000000002,-0.0029999999999980684,0.028,0.011665730335018583,1.1974152393157982,0.01887657606890218,0.009348740902906718
0.683,0.0057,2.028,0.011649771368041397,1.187315489826652,0.018840076821835725,0.009096215683660503
0.6840000000000002,0.004600000000000555,-0.972,0.01158733071572567,1.1906915917664986,0.018697270786888695,0.009180628755833583
0.685,0.0071,1.028,0.011589493788296745,1.1906915917664989,0.01870221788154133,0.00918062875583359
0.6859999999999999,-0.0049,1.028,0.011569618043387978,1.185653769455727,0.0186567606959295,0.009054667494624259
0.687,0.0132,-0.972,0.01165530648710539,1.1990606601433633,0.018852736017042265,0.009389881552551514
0.688,0.0201,0.028000000000111023,0.011685946597201619,1.1974152393157982,0.01892281204076889,0.009348740902906718
0.6890000000000001,0.0222,1.027999999999778,0.011755609642660328,1.194058148091865,0.019082136181938804,0.009264803157889943
0.69,0.0164,-0.972,0.011415499820638237,1.1890345896338381,0.018304281798164537,0.009139198537461216
0.6910000000000001,-0.0003,-0.971999999999889,0.011352230988336175,1.194058148091865,0.018159581659045233,0.009264803157889943
0.692,0.0019,0.028000000000222045,0.011270393396362032,1.2123192947331582,0.0179724134987841,0.009721388745902355
0.6930000000000001,-0.0119,2.027999999999778,0.011262726565103435,1.2172467613681157,0.017954878932247034,0.00984459077122568
0.694,-0.0173,0.028,0.01129158468441368,1.2172467613681157,0.018020879421381676,0.00984459077122568
0.6950000000000001,-0.0253,0.028,0.011026608631970128,1.2172467613681157,0.017414861098350033,0.00984459077122568
0.696,-0.0209,0.028000000000111023,0.01053855619944539,1.2139445142756857,0.01629865186365641,0.009762024300451607
0.6970000000000001,-0.03,1.027999999999889,0.010134431531256713,1.2172467613681157,0.015374391156120992,0.00984459077122568
0.698,-0.0162,0.028,0.010137462796569578,1.2172467613681157,0.015381323866849473,0.00984459077122568
0.6990000000000001,-0.0036,0.028,0.010152301006130522,1.2205400740583254,0.015415259865185894,0.009926933854094745
0.7,0.0044,0.02799999999988898,0.010166603335310526,1.1906319729865138,0.015447970268504167,0.009179138100495742
0.7010000000000001,0.021,-0.971999999999889,0.010153366759401159,1.1872557015136305,0.015417697315679555,0.009094720789468288
0.702,0.0054,0.027999999999777956,0.010122737410388884,1.1872557015136305,0.015347645903286642,0.009094720789468288
0.7030000000000001,-0.0084,-1.972,0.01010017881919854,1.1872557015136305,0.015296052865059005,0.009094720789468288
0.704,0.0191,-1.972,0.010105871345662964,1.1872557015136305,0.015309072061737233,0.009094720789468288
0.7050000000000001,0.0231,1.028,0.010102142904550995,1.1973559553199,0.015300544862356907,0.0093472586182146
0.706,0.005,-1.972,0.010182066689322441,1.1822632814662892,0.015483336014881348,0.008969894726368517
0.7070000000000001,0.0347,1.028,0.010183770221633907,1.1822632814662892,0.015487232109585398,0.008969894726368517
0.708,0.0148,2.028,0.01019681459852201,1.1822632814662892,0.015517065490126096,0.008969894726368517
0.7090000000000001,-0.0034,4.028,0.01021174515812004,1.1822632814662895,0.015551212699302477,0.008969894726368522
0.71,-0.0001,2.028,0.010118578734936046,1.1822632814662895,0.015338134728594736,0.008969894726368522
0.7110000000000001,-0.003,0.028,0.010064619121984147,1.14097837388219,0.015214725409711053,0.007937643347219131
0.712,-0.011,0.028,0.010019663800232477,1.1531955792440336,0.015111909519565288,0.008243111563623026
0.7130000000000001,-0.0041,1.028,0.010023582062454038,1.1566712749563368,0.01512087085278318,0.008330014790552141
0.714,-0.0019,0.028,0.00996907874660501,1.1410405870399727,0.014996218048252748,0.00793919887008888
0.7150000000000001,-0.0117,0.028,0.009948265767653484,1.1410405870399727,0.014948617344395995,0.00793919887008888
0.716,-0.0026,0.028,0.009929334834930793,1.1738953999035848,0.014905321008760254,0.008760671603704022
0.7170000000000001,-0.0073,0.028,0.009952066186372925,1.1738953999035848,0.014957309161478841,0.008760671603704022
0.718,-0.0029,1.028,0.009943746442038945,1.1704708520905855,0.014938281338161092,0.008675047233691068
0.7190000000000001,-0.0018,-1.972,0.009917257271235137,1.1704708520905855,0.014877698795999317,0.008675047233691068
0.72,0.0019,-0.972,0.009936043050023716,1.1738953999035848,0.01492066315467744,0.008760671603704022
0.7210000000000001,0.0051,0.028,0.00993746441213424,1.177309986467427,0.014923913906866919,0.008846046911437751
0.722,0.0026,-0.972,0.01000950298227802,1.177309986467427,0.015088671035179224,0.008846046911437751
0.7230000000000001,0.0001,1.028,0.010005941166651783,1.1738953999035848,0.015080524919661033,0.008760671603704022
0.724,-0.002,-0.972,0.00998349254707667,1.1704708520905855,0.01502918339402568,0.008675047233691068
0.7250000000000001,-0.0013,0.028,0.00995695175365324,1.1721540969306852,0.014968482787408324,0.008717133601550789
0.726,0.001,-0.972,0.00997390211690169,1.1567326440949082,0.01500724942543419,0.008331549210310705
0.7270000000000001,-0.0005,-0.972,0.010090194724399936,1.1567326440949082,0.015273218558596053,0.008331549210310705
0.728,-0.0001,-0.972,0.01005692136435192,1.1891539843758963,0.01519712011244601,0.009142183778179064
0.7290000000000001,0.0079,-2.972,0.010189992439302466,1.204219243825368,0.015501462746211857,0.009518862224467994
0.73,0.0111,-0.972,0.010181257339936925,1.2075480866286348,0.015481484977578792,0.00960209367091471
0.7310000000000001,-0.0037,-0.972,0.01021656388159515,1.1925844056015007,0.015562233448885734,0.009227955001815212
0.732,-0.0016,1.028,0.010388312652893583,1.1975930736952134,0.015955034614897494,0.009353187316721199
0.7330000000000001,-0.0033,-0.972,0.010523949531401032,1.236989889691642,0.016265245416576795,0.010338230520791998
0.734,-0.0051,0.028,0.010623831697755529,1.236989889691642,0.01649368275042912,0.010338230520791998
0.7350000000000001,-0.0003,0.028,0.010673976623865641,1.233740488465141,0.01660836762006001,0.01025698536139246
0.736,-0.0141,2.028,0.01066079564054604,1.2288791589083692,0.016578221811283746,0.010135436969180239
0.7370000000000001,-0.0086,-0.972,0.010656967919121157,1.2418194687144364,0.016569467551049478,0.010458985050684915
0.738,-0.0166,0.028,0.010735463328969394,1.243406130045985,0.01674899191260303,0.010498656529769562
0.7390000000000001,-0.006,0.028,0.010918680885700773,1.2482108835909087,0.017168022973924914,0.010618790345331995
0.74,0.0004,1.028,0.010720614865090834,1.2482108835909107,0.016715032461942114,0.010618790345332045
0.7410000000000001,0.0041,2.028,0.010608872244878907,1.244990769280506,0.016459469460351928,0.010538277450125417
0.742,0.0117,1.028,0.010636075374984264,1.241762304659202,0.01652168487618152,0.010457555771117476
0.7430000000000001,0.0091,0.028,0.0106643786667463,1.2417623046592017,0.016586416436832865,0.01045755577111747
0.744,-0.0029,-0.972,0.010615753619844398,1.228821392877613,0.01647520763472007,0.010133992638348336
0.7450000000000001,0.0018,0.028,0.010477465514402888,1.2320837674098353,0.016158933296031523,0.01021556217083011
0.746,0.0094,-0.972,0.010168183694755561,1.2320837674098353,0.015451584658453128,0.01021556217083011
0.7470000000000001,0.0104,-0.972,0.009967256416994924,1.2369325024404836,0.014992050256015936,0.010336795660630733
0.748,-0.0059,-0.972,0.009551247674298656,1.2369325024404847,0.014040609858703049,0.010336795660630761
0.7490000000000001,0.0054,1.028,0.009418181532203971,1.2369325024404845,0.013736278506715346,0.010336795660630756
0.75,0.0036,0.028,0.009456045065700887,1.2369325024404845,0.013822874992934574,0.010336795660630756
0.7510000000000001,-0.0019,0.028,0.00959922653301903,1.2417623046592063,0.014150340784326554,0.010457555771117587
0.752,0.0028,-0.972,0.00945383153203482,1.243349038938895,0.013817812490312492,0.01049722907413312
0.7530000000000001,0.0039,2.028,0.009540125760298898,1.2465733941294472,0.014015173282043086,0.01057784800456272
0.754,-0.0005,-1.972,0.009517169208345236,1.2368751125267266,0.013962670080379188,0.010335360733896206
0.7550000000000001,-0.0128,-0.972,0.009369075435032065,1.2222124428043313,0.013623969509791608,0.009968748285700152
0.756,-0.0081,-0.972,0.009086447942677043,1.2320261516336162,0.012977581138540152,0.010214121596829991
0.7570000000000001,-0.0067,0.028,0.009158546971310336,1.2320261516336162,0.013142476539545743,0.010214121596829991
0.758,-0.0056,1.028,0.008511970288633765,1.230424815643528,0.011663711521599491,0.010174083205539352
0.7590000000000001,-0.002,0.028,0.008432892682017577,1.2157427400214313,0.011482855636288472,0.009806985549360464
0.76,-0.0053,0.028,0.008464925889112145,1.1498328543219773,0.011556117767963222,0.008159032958592322
0.7610000000000001,-0.0028,-1.972,0.008467069939923088,1.146398347069102,0.011561021358551731,0.008073159571537808
0.762,-0.0053,-0.972,0.00846210984102844,1.1498945884227412,0.011549677273731667,0.008160576503543323
0.7630000000000001,0.0069,-0.972,0.008422843750352616,1.1498945884227412,0.01145987304348546,0.008160576503543323
0.764,0.0051,0.028,0.008413685790455134,1.1498945884227412,0.01143892816394528,0.008160576503543323
0.7650000000000001,0.0036,-2.972,0.008456479969321067,1.1550883819703026,0.011536801372760532,0.008290437531851701
0.766,-0.0069,-0.972,0.00841323543686491,1.173955868642638,0.011437898174536797,0.008762183510667985
0.7670000000000001,-0.0058,0.028,0.00844002991708101,1.173955868642638,0.011499178980169314,0.008762183510667985
0.768,0.0029,0.028,0.008424339761793699,1.177370279836223,0.01146329452379057,0.008847554433598642
0.7690000000000001,0.0083,-0.972,0.008699271517617742,1.1756945030423065,0.012092082220173528,0.00880565479017221
0.77,0.0017,-0.972,0.009149067727051097,1.160258926206398,0.013120796860734711,0.008419717254902795
0.7710000000000001,-0.0121,0.028,0.00916941560982474,1.1602589262063971,0.01316733385787846,0.008419717254902774
0.772,0.0016,0.028,0.009158178232406017,1.1602589262063974,0.013141633208496123,0.00841971725490278
0.7730000000000001,0.0034,0.028,0.009154557104473538,1.1619569644351508,0.013133351441684038,0.008462173503591446
0.774,-0.0013,1.028,0.00915794254731284,1.1619569644351508,0.013141094180596755,0.008462173503591446
0.7750000000000001,0.0063000000000019984,-0.972,0.009199785849153702,1.1636525248359477,0.01323679266873507,0.008504567798857538
0.776,0.0153,1.028,0.009199210590432494,1.163652524835948,0.013235477012764195,0.008504567798857545
0.7770000000000001,0.011600000000001198,-2.972,0.009210632580432053,1.160197743591988,0.013261599883723229,0.00841818749882968
0.778,0.017,-1.972,0.009233458871391416,1.160197743591988,0.013313805169599664,0.00841818749882968
0.7790000000000001,0.002099999999997513,-0.972,0.009296497418349176,1.160197743591988,0.013457978630413944,0.00841818749882968
0.78,-0.0091,-0.972,0.00954683631395771,1.1269436612331898,0.014030520776420122,0.007586731783268448
0.7810000000000001,-0.0188999999999996,1.028,0.009555429827819565,1.1233759928325557,0.014050174729339586,0.007497528952442188
0.782,-0.0171,3.028,0.009557500896026493,1.1197969579130829,0.014054911403729864,0.0074080419232142826
0.7830000000000001,-0.015599999999999045,2.028,0.009558894640536266,1.1339827303051198,0.01405809899258085,0.007762730451610533
0.784,-0.0113,0.028,0.00962223712827491,1.1357200552900273,0.0142029675867124,0.007806168991664143
0.7850000000000001,-0.004699999999998069,0.028,0.009700393185671981,1.1392490677236118,0.014381715826041037,0.00789440530281931
0.786,0.004,2.028,0.009737587409646736,1.1427671821636525,0.014466781555686344,0.007982369130165652
0.7870000000000001,0.018500000000002174,1.028,0.00963689773021641,1.123375992832554,0.014236497384297088,0.007497528952442144
0.788,0.0283,1.028,0.009856093470869756,1.123375992832554,0.014737813008639094,0.007497528952442144
0.7890000000000001,0.007999999999997003,1.028,0.00974476803425379,1.1286918210704773,0.014483204134415846,0.00763044122840497
0.79,-0.0055,0.028,0.00972631282603972,1.1286918210704773,0.014440995813211148,0.00763044122840497
0.7910000000000001,-0.007599999999996536,0.028,0.009747873314492329,1.123375992832554,0.014490306122332671,0.007497528952442144
0.792,0.008,0.028,0.00973928254325396,1.1036441500387695,0.014470658441980373,0.0070041713762975955
0.7930000000000001,0.006199999999998001,1.028,0.0096707018590862,1.0982070862255142,0.014313809734980476,0.006868227833046998
0.794,-0.0028,-0.972,0.00968928126271217,1.11803489015042,0.014356302099571564,0.00736398473659086
0.7950000000000002,-0.0014000000000009547,0.028,0.009705329588310704,1.1197969579130809,0.014393005715905953,0.007408041923214232
0.796,-0.0057,1.028,0.009705519335981282,1.1197969579130809,0.014393439681783481,0.007408041923214232
0.7970000000000002,-0.009399999999998623,1.028,0.009661484070645321,1.1162064471370223,0.014292728023476784,0.007318267961800192
0.798,-0.0032,0.028,0.009605629936496999,1.1179713967664748,0.014164985805269495,0.007362397204076448
0.7990000000000002,0.009200000000001754,0.028,0.009595404615974976,1.1197335644454491,0.014141599799107533,0.007406456888919106
0.8,0.0171,1.028,0.009602327494079861,1.1143750040569138,0.014157432893989073,0.007272476175990219
0.8010000000000002,0.012800000000000245,1.028,0.00959565786865269,1.1143750040569138,0.014142179005272152,0.007272476175990219
0.802,0.0139,-0.972,0.009603429283928759,1.1143750040569138,0.014159952762597594,0.007272476175990219
0.8030000000000002,0.005199999999996803,1.028,0.009601911051611242,1.1107669671653504,0.014156480461630963,0.007182264007057748
0.804,-0.0092,0.028,0.009595207398551554,1.1107669671653504,0.014141148749395257,0.007182264007057748
0.8050000000000002,-0.0034000000000020203,-1.972,0.009596081758988807,1.0944160391292879,0.014143148471411729,0.006773439838535242
0.806,-0.0125,-1.972,0.009566821782933842,1.0944160391292879,0.014076228908465363,0.006773439838535242
0.8070000000000002,-0.00780000000000031,-0.972,0.00955656163942603,1.0907419824973745,0.01405276325975738,0.006681576970303313
0.808,-0.0092,-0.972,0.009588378806690662,1.0907419824973745,0.014125531293591068,0.006681576970303313
0.8090000000000002,-0.008099999999998622,1.028,0.009583947888568499,1.0907419824973745,0.0141153974813272,0.006681576970303313
0.81,-0.0019,-1.972,0.009583366142483474,1.0907419824973745,0.014114066988312357,0.006681576970303313
0.8110000000000002,-0.0008000000000014656,-0.972,0.009643500084691557,1.0944160391292879,0.014251597419753844,0.006773439838535242
0.812,-0.0074,0.028,0.00969226614149814,1.081535053700204,0.01436312872114602,0.006451375051375684
0.8130000000000002,-0.0012000000000016652,1.028,0.009704526925803855,1.0980131553942762,0.01439116997195145,0.006863378957762556
0.8140000000000001,-0.0087,1.028000000000111,0.009728588681544503,1.0980131553942762,0.01444620085013336,0.006863378957762556
0.815,-0.008,2.027999999999778,0.009787967100589903,1.1356575506649453,0.014582003348518866,0.00780460618120338
0.8160000000000001,-0.0072,0.02799999999988898,0.009830430106104644,1.1016629628611605,0.014679119141269263,0.0069546355212814735
0.817,0.0052,-0.972,0.009806125348135934,1.1034511747683988,0.014623532500400934,0.006999346393013425
0.8180000000000001,0.0219,-0.971999999999889,0.009790767983906053,1.108862525643564,0.014588409159891657,0.0071346470326617475
0.819,0.0284,0.02799999999988898,0.009786629152072266,1.1124767391266028,0.014578943368911336,0.00722501363563421
0.8200000000000001,0.0064,-0.971999999999889,0.009751945407680247,1.1124767391266028,0.014499619277473348,0.00722501363563421
0.821,-0.0023,0.028000000000111023,0.00975423908084139,1.108862525643564,0.014504865064592148,0.0071346470326617475
0.8220000000000001,0.0003,1.028,0.009684733882154383,1.108862525643564,0.014345901929766015,0.0071346470326617475
0.823,0.0025,1.028,0.00968613713054489,1.1124767391266028,0.01434911125464111,0.00722501363563421
0.8240000000000001,0.009,1.027999999999889,0.009680246663547852,1.1178443991793416,0.014335639354450513,0.007359221868532827
0.825,-0.0008,0.028,0.009683730936640697,1.1178443991793416,0.014343608124900665,0.007359221868532827
0.8260000000000001,0.0047,0.02799999999988898,0.009688652337936242,1.1178443991793416,0.014354863705669525,0.007359221868532827
0.827,-0.0065,-0.972,0.009573287448714121,1.1124767391266028,0.01409101632754461,0.00722501363563421
0.8280000000000001,-0.0108,-0.972,0.009513937730508551,1.0740201637466364,0.01395527946993933,0.0062634793778072245
0.829,-0.0231,-0.971999999999889,0.009387799420877552,1.0608915674154527,0.013666792543790001,0.005935223546265057
0.8300000000000001,-0.0118,0.028,0.009386381113727478,1.0740201637466364,0.013663548778503646,0.0062634793778072245
0.831,-0.0042,0.028000000000222045,0.009363245034212667,1.0702760941986957,0.013610634985050257,0.006169865968436737
0.8320000000000001,0.0023,2.027999999999889,0.00918676490568557,1.070276094198696,0.013207012882025746,0.006169865968436743
0.833,-0.0115,1.028,0.009049489750768969,1.0283989960602642,0.0128930552303463,0.005122807979506684
0.8340000000000001,-0.0133,-0.972,0.009029566031082603,1.010786662981446,0.012847488323142654,0.004682444752978581
0.835,-0.0085,-0.972,0.00898507216987394,1.0147502512353979,0.012745727824764708,0.00478154681426303
0.8360000000000001,0.002,0.028,0.009072358386047476,1.018698417935082,0.012945357360571655,0.00488026328862012
0.837,0.0224,-0.972,0.009066263318264682,0.9968968127874172,0.012931417524415028,0.004335155201954209
0.8380000000000001,0.0076,1.028,0.008914328235635236,0.9908741845798823,0.01258393161715786,0.004184570723578721
0.839,-0.0004,0.028,0.008453764280846664,1.0068779744068843,0.011530590407807446,0.0045847153548071624
0.8400000000000001,0.0065,0.028,0.008501146854551691,1.0009154058494887,0.01163895758888982,0.004435632554897616
0.841,0.0,0.028,0.008494215431872565,1.0049179289812589,0.011623104951983614,0.004535708109491769
0.8420000000000001,0.0019,0.028,0.00846291000856446,1.0108568888160412,0.01155150731151754,0.0046842006177450265
0.843,0.0109,2.028,0.0084501945021874,1.0323637251591973,0.011522426080289047,0.0052219385654717985
0.8440000000000001,0.0063,1.028,0.008461755762258053,1.0265491977229881,0.01154886747140926,0.005076557255052189
0.845,0.0019,0.028,0.008487616091508852,1.0265491977229881,0.011608011810005495,0.005076557255052189
0.8460000000000001,-0.0017,0.028,0.008920631206926861,1.0439636219658146,0.01259834694283368,0.005511972143777131
0.847,-0.0006,1.028,0.008944676442157783,1.0420733336144123,0.01265334003748192,0.005464709042757704
0.8480000000000001,-0.0039,1.028,0.009130289462283801,1.0761182137269112,0.01307784968713628,0.006315937167164056
0.849,-0.0065,0.028,0.009816188263873982,1.0927429700332414,0.014646547075733849,0.006731607895995752
0.8500000000000001,-0.0003,0.028,0.009792026039968942,1.0964103214026242,0.014591286420000566,0.006823303111763385
0.851,-0.0043,0.028,0.00964337337098532,1.0964103214026242,0.014251307616856375,0.006823303111763385
0.8520000000000001,-0.0022,0.028,0.009612519045377419,1.090937205891953,0.014180741667629108,0.0066864581637003295
0.853,-0.0015,2.028,0.00951186337334891,1.1305000707274626,0.013950535273489644,0.007675653106340442
0.8540000000000001,0.0014,0.028,0.009501266130921992,1.1670362553376505,0.013926298656538424,0.008589171608856083
0.855,0.0104,-0.972,0.009456618939867921,1.1721540969306852,0.013824187482335522,0.008717133601550789
0.8560000000000001,0.0068,0.028,0.009454897200182036,1.1618347748229876,0.01382024974612308,0.008459118382409056
0.857,0.0103,0.028,0.00942280353700126,1.1497093761759303,0.013746849347251563,0.008155945620046335
0.8580000000000001,0.0048,1.028,0.009391450843849012,1.1462125698777303,0.013675143597424612,0.008068514562665809
0.859,-0.0017,0.028,0.00937395392669385,1.1427050630082,0.013635126953298425,0.007980815957647177
0.8600000000000001,0.012,-0.972,0.00942354868763618,1.1374547267235344,0.01374855355762837,0.007849541184661335
0.861,-0.0101,-0.972,0.009526663840896024,1.1214929632875272,0.01398438495326362,0.007450447344208594
0.8620000000000001,-0.0072,2.028,0.009651730358979097,1.11790789977632,0.014270420618966868,0.007360809581395555
0.863,-0.0097,-0.972,0.009623516554152629,1.1214929632875272,0.014205893721046834,0.007450447344208594
0.8640000000000001,-0.0119,-2.972,0.009626026685204772,1.1356575506649453,0.014211634562140895,0.00780460618120338
0.865,-0.0098,-0.972,0.009655385086571534,1.130374480737882,0.014278779230495272,0.007672512965123269
0.8660000000000001,0.0,1.028,0.009710767664839576,1.1161428497394863,0.014405442968209146,0.007316677828621786
0.867,-0.0019,1.028,0.009976740730874924,1.1197335644454522,0.015013741529395774,0.007406456888919184
0.8680000000000001,-0.0005,-0.972,0.010063788566646168,1.1197335644454522,0.015212825872947389,0.007406456888919184
0.869,0.001,-0.972,0.009838703404681124,1.1161428497394874,0.014698040739968554,0.007316677828621814
0.8700000000000001,-0.0027,0.028,0.009454840163731836,1.1197335644454531,0.01382011929986734,0.007406456888919206
0.871,0.0034,0.028,0.009490275499499982,1.1214929632875323,0.013901162332097016,0.007450447344208721
0.8720000000000001,0.0023,-0.972,0.009523630839829222,1.1214929632875323,0.013977448272747375,0.007450447344208721
0.873,-0.0003,1.028,0.009539503178784587,1.1214929632875321,0.014013749395613447,0.007450447344208716
0.8740000000000001,-0.0029,1.028,0.009543073295989836,1.119733564445454,0.014021914497409627,0.007406456888919229
0.875,-0.007,-0.972,0.00957006789120811,1.1143750040569198,0.01408365297971486,0.007272476175990369
0.8760000000000001,-0.0034,0.028,0.00965639356462266,1.1179713967664808,0.01428108568865148,0.007362397204076597
0.877,0.0046,0.028,0.00971700646903546,1.1179713967664808,0.014419711539356034,0.007362397204076597
0.8780000000000001,0.0071,-0.972,0.009753051062165962,1.130437277476788,0.014502147984770127,0.007674083079340183
0.879,-0.0013,-1.972,0.009824280153075592,1.1304372774767877,0.014665053778807184,0.007674083079340177
0.8800000000000001,0.0063,0.028,0.009573596659125654,1.132180042955564,0.014091723512866956,0.007717657648699116
0.881,0.0055,1.028,0.009502182023597434,1.132180042955564,0.013928393365619227,0.007717657648699116
0.8820000000000001,-0.0065,-0.972,0.009510611578426541,1.1374547267235413,0.013947672333036582,0.007849541184661506
0.883,-0.0144,-0.972,0.009551219173732698,1.1215562573090743,0.014040544675962843,0.007452029892041618
0.8840000000000001,-0.0069,-0.972,0.009507374660106465,1.1215562573090743,0.013940269279839762,0.007452029892041618
0.885,-0.0134,-0.972,0.009414522378532906,1.1215562573090743,0.01372790977244293,0.007452029892041618
0.8860000000000001,-0.0022,0.028,0.009376193338552469,1.1233128013455853,0.013640248641113692,0.00749594896829319
0.887,0.0083,0.028,0.009499870056795524,1.1233128013455855,0.013923105739695005,0.007495948968293196
0.8880000000000001,-0.0007,2.028,0.009249229446453837,1.119733564445458,0.0133498735514947,0.007406456888919328
0.889,-0.012,0.028,0.009225885579675993,1.1339201299141797,0.013296484534384194,0.007761165246704804
0.8900000000000001,-0.0043,-0.972,0.009226225981030851,1.1391867567275589,0.013297263055523471,0.007892847333687836
0.891,0.0022,1.028,0.009203500661016753,1.1444291469472108,0.01324528869709259,0.008023923430279587
0.8920000000000001,-0.0065,2.028,0.009278730392390995,1.1634695027116304,0.013417344229013728,0.00849999167524974
0.893,-0.0076,0.028,0.009276990706630309,1.1822032376447702,0.013413365448902956,0.00896839344366742
0.8940000000000001,0.0072,-0.972,0.009213187638213383,1.1822032376447642,0.013267443475314285,0.00896839344366727
0.895,0.0275,-1.972,0.009193661243531171,1.1805343212884734,0.013222785277522284,0.008926665332566213
0.8960000000000001,0.0087,-0.972,0.00919346093141423,1.19570818864065,0.013222327150034638,0.009306059314965406
0.897,0.0206,-2.972,0.009192133583573273,1.1990606601433633,0.013219291414898433,0.009389881552551514
0.8980000000000001,0.0362,-1.972,0.00920023779187983,1.1940581480918648,0.013237826292605864,0.009264803157889936
0.899,0.0061,-0.972,0.009194788282277527,1.1924058242338653,0.013225362892083144,0.009223489910966784
0.9000000000000001,0.0017999999999973354,1.028,0.009171744844985548,1.1924058242338653,0.01317266097771847,0.009223489910966784
0.901,-0.0102,0.028,0.009242166067297004,1.1924058242338653,0.013333719121114725,0.009223489910966784
0.9020000000000001,0.0006999999999992673,3.028,0.00923871854523925,1.1924058242338653,0.01332583440279098,0.009223489910966784
0.903,-0.0026,3.028,0.00923643246309365,1.1957675543298454,0.013320605976843,0.009307543642244601
0.9040000000000001,0.00040000000000055513,1.028,0.009237172294150461,1.1806545756280213,0.013322298020981484,0.008929672065900767
0.905,0.0029,1.028,0.009261060566352891,1.1857136385444178,0.013376932130466998,0.00905616440845999
0.9060000000000001,0.009799999999997512,-0.972,0.009214022972532227,1.1857136385444171,0.01326935394193347,0.009056164408459973
0.907,-0.0014,0.028,0.009195215700779536,1.185713638544417,0.013226340427379003,0.009056164408459967
0.9080000000000001,-0.0072000000000011985,0.028,0.009137783717289794,1.1890942885033862,0.013094989560001094,0.009140691195287785
0.909,-0.0126,0.028,0.009131146905699009,1.1840496701036278,0.013079810718768332,0.009014560010669644
0.9100000000000001,-0.01410000000000031,0.028,0.009130201114309679,1.187435057421519,0.013077647629287552,0.00909920524623737
0.911,-0.0155,0.028,0.00911521664182118,1.187435057421519,0.013043377117649795,0.00909920524623737
0.9120000000000001,-0.0007000000000003996,-0.972,0.0090605732547493,1.187435057421519,0.012918403960669416,0.00909920524623737
0.913,-0.0025,2.028,0.009091436875286976,1.1722146554949113,0.01298899116803568,0.008718647754424073
0.9140000000000001,-0.011499999999994537,0.028,0.009039472198679144,1.1687851831007774,0.012870144404774051,0.008632900254532297
0.915,0.0131,1.028,0.008985639989283785,1.1375171325968563,0.01274702646652258,0.007851101526020275
0.9160000000000001,0.023999999999997825,-0.972,0.008983478855307142,1.1375171325968563,0.012742083805567773,0.007851101526020275
0.917,0.0142,-0.972,0.009126757531654435,1.1322427395538952,0.01306977192064631,0.007719225259089513
0.9180000000000001,0.005600000000000555,0.028,0.009236264980177997,1.1305000707274555,0.0133202229319801,0.007675653106340264
0.919,0.0081,-0.972,0.009375543573508659,1.1322427395538952,0.01363876258409615,0.007719225259089513
0.9200000000000002,0.010399999999999533,1.028,0.00944417836771474,1.1322427395538952,0.013795735044448022,0.007719225259089513
0.921,0.0083,0.028,0.009467018847189894,1.1357825564753343,0.013847972780428786,0.00780773171611981
0.9220000000000002,-0.005499999999999578,1.028,0.009496483501930532,1.1515462666501584,0.01391536045750361,0.008201873607689416
0.923,-0.0036,-0.972,0.009496059167585068,1.1480550552629354,0.013914389975884343,0.00811458244052326
0.9240000000000002,-0.01150000000000031,0.028,0.009545507967507425,1.1428292979425745,0.014027482757396202,0.00798392221826034
0.925,-0.0129,-0.972,0.009583509242043898,1.1375795350466946,0.014114394266777089,0.007852661781781456
0.9260000000000002,-0.011799999999999733,0.028,0.009569356274395787,1.1375795350466946,0.01408202546347983,0.007852661781781456
0.927,-0.0106,-1.972,0.009670965959287734,1.1428292979425745,0.01431441375017268,0.00798392221826034
0.9280000000000002,-0.01599999999999798,-0.972,0.009741777848785521,1.1480550552629354,0.014476365376096657,0.00811458244052326
0.929,-0.0069,1.028,0.009747123565373507,1.149771116906539,0.01448859139490922,0.008157489330764125
0.9300000000000002,0.0017999999999983125,0.028,0.009764748287610654,1.1375171325968563,0.014528900337983727,0.007851101526020275
0.931,-0.0058,1.028,0.009744648318336052,1.1427671821636454,0.01448293033593844,0.007982369130165473
0.9320000000000002,0.009099999999999534,-0.972,0.009737761886640436,1.1427671821636454,0.014467180596483257,0.007982369130165473
0.933,0.007,1.028,0.009752158627844338,1.1583745722635792,0.014500106926546113,0.008372602532596151
0.9340000000000002,0.0011999999999996003,-0.972,0.009646986759165421,1.154904002653768,0.014259571682326342,0.008285827474207955
0.935,-0.0006,1.028,0.009680336105776241,1.1566099025615433,0.014335843914933458,0.008328480289377875
0.9360000000000002,-0.015399999999997825,0.028,0.009658052657031546,1.158313290116776,0.014284880146264216,0.008371070287902958
0.937,-0.0056,0.028,0.009916299997533913,1.158313290116776,0.014875509445687286,0.008371070287902958
0.9380000000000002,-0.0037999999999989566,2.027999999999889,0.009955278290889186,1.1617736751976637,0.014964655463812187,0.008457590701321781
0.9390000000000001,0.0009,1.028,0.009989636901966591,1.1462125698777232,0.015043235953161357,0.00806851456266563
0.9400000000000002,-0.0004999999999972689,1.028000000000111,0.009931935069027396,1.1497093761759232,0.014911267921668728,0.008155945620046158
0.9410000000000001,0.0118,2.028,0.009954051453260249,1.1497093761759232,0.014961849602393149,0.008155945620046158
0.942,0.0006,2.028,0.009968574986665162,1.1497093761759232,0.014995065914876385,0.008155945620046158
0.9430000000000001,-0.0008,2.027999999999667,0.009978693450428455,1.1304372774767746,0.015018207532335546,0.00767408307933985
0.944,-0.0019,-0.972000000000111,0.009966487188013917,1.1304372774767746,0.014990290976817689,0.00767408307933985
0.9450000000000001,0.0018,-1.971999999999889,0.009999094832169897,1.1304372774767746,0.015064866885271264,0.00767408307933985
0.946,0.0007,-0.971999999999889,0.009770084805711622,1.1179713967664675,0.01454110531922846,0.007362397204076264
0.9470000000000001,-0.0039,0.02799999999988898,0.009854147937589739,1.1339201299141657,0.014733363441197486,0.007761165246704454
0.948,0.0023,-0.971999999999889,0.009862942543434807,1.112540546094129,0.014753477305212,0.007226609008715619
0.9490000000000001,0.0002,0.028,0.009318743201057201,1.1016629628611534,0.013508856254285695,0.006954635521281296
0.95,0.0114,0.028,0.009524440677970208,1.1016629628611532,0.013979300427867061,0.0069546355212812905
0.9510000000000001,0.0035,0.02799999999988898,0.009673455200450163,1.0962160727069963,0.014320106814662715,0.006818446288878378
0.952,-0.0008,-0.972,0.009621299199305822,1.0962160727069963,0.014200822479123514,0.006818446288878378
0.9530000000000001,-0.0019,-0.9719999999997779,0.009843145539886905,1.0553687769427775,0.014708200206468496,0.005797136569309642
0.954,0.0068,1.027999999999778,0.010221923137046934,1.0089045734404725,0.01557449043200416,0.0046353866477764575
0.9550000000000001,0.0046,-0.971999999999889,0.011481736558872002,1.0029540531002592,0.01845576974078178,0.0044866050908520735
0.956,0.0034,0.02799999999988898,0.012239363018588802,1.0148901495204437,0.020188513180681066,0.004785044707467344
0.9570000000000001,0.0008,-0.971999999999889,0.01230063062364983,1.0109271097722587,0.020328636376467438,0.004685956360536823
0.958,0.0033,0.02799999999988898,0.012302182005880043,1.0148901495204437,0.020332184493547702,0.004785044707467344
0.9590000000000001,0.0011,-0.972,0.012281300223314494,1.01883777409103,0.020284426431128145,0.004883747626907113
0.96,0.0108,-0.972,0.012241978755636238,1.0227701619796563,0.020194495549896545,0.00498206958180349
0.9610000000000001,0.0017,-0.972,0.012172431107482444,1.0286060518559845,0.020035435330241658,0.005127985019815126
0.962,0.0104,-0.972,0.012135812304669218,1.0286060518559847,0.01995168562807933,0.005127985019815131
0.9630000000000001,0.0002,0.028,0.012136024505745644,1.0305210435854695,0.019952170946429027,0.0051758657822897364
0.964,0.0067,1.028,0.012152518865620568,1.0089749302706967,0.019989894673606262,0.004637145787841956
0.9650000000000001,-0.0096,-0.972,0.012129206212838093,1.01489014952044,0.019936577045034286,0.0047850447074672545
0.966,-0.0161,0.028,0.012058555751368365,1.008974930270697,0.019774994616031886,0.0046371457878419614
0.9670000000000001,-0.0143,-0.972,0.011828087310818068,1.0109271097722554,0.019247897557388215,0.00468595636053674
0.968,-0.0161,1.028,0.011743486532841619,1.006948472838283,0.019054409802084806,0.004586478035343406
0.9690000000000001,-0.0114,-0.972,0.01173221413001584,1.006948472838283,0.01902862904720519,0.004586478035343406
0.97,-0.0071,-0.972,0.011704711894195287,1.0089045734404585,0.018965729556183666,0.004635386647776108
0.9710000000000001,-0.0082,-1.972,0.011672458662337475,1.002954053100245,0.01889196421285331,0.004486605090851719
0.972,-0.0021,0.028,0.011686769834491868,1.002954053100245,0.018924694840657754,0.004486605090851719
0.9730000000000001,-0.0097,0.028,0.011674049359863554,0.9969680170152627,0.018895602246699443,0.00433693552960167
0.974,-0.009,0.028,0.01167374454148702,0.9969680170152607,0.018894905106261007,0.0043369355296016205
0.9750000000000001,0.0047,-0.972,0.011650857348145352,0.9969680170152607,0.01884256053247816,0.0043369355296016205
0.976,0.0144,1.028,0.0115867121256483,1.010927109772251,0.018695856029147855,0.004685956360536629
0.9770000000000001,0.0126,1.028,0.011529763212411394,1.010927109772251,0.018565609976419543,0.004685956360536629
0.978,0.0078,1.028,0.011482102108431902,0.9929334482382015,0.018456605777582964,0.00423605873398548
0.9790000000000001,-0.006,-0.972,0.011397313054981336,0.9949171040784922,0.018262687423415854,0.004285656313263735
0.98,-0.0006,1.028,0.011376393656853454,0.9888824188492125,0.018214843331637066,0.004134770371761577
0.9810000000000001,0.0041,1.028,0.01137865754088487,0.9949171040784922,0.018220020988982344,0.004285656313263735
0.982,0.0084,2.028,0.01140026767412126,0.9888824188492124,0.018269444839113844,0.004134770371761573
0.9830000000000001,0.0019,0.028,0.011372122016158307,0.9848147257164331,0.018205073797723362,0.004033065364000214
0.984,0.0106,1.028,0.011383206299856365,0.9787177521170591,0.018230424311314147,0.003880622019086075
0.9850000000000001,0.0117,1.028,0.011423910051206243,0.9746076359171076,0.0183235165696774,0.0037778563024080942
0.986,0.0226,0.028,0.011424193109562782,0.9684464044587441,0.018324163943464457,0.0036238063107204813
0.9870000000000001,0.0121,-0.972,0.011322124717587208,0.9684464044587441,0.01809072656235338,0.0036238063107204813
0.988,-0.0083,-0.972,0.011329818476254699,0.9746076359171076,0.01810832271371305,0.0037778563024080942
0.9890000000000001,-0.0054,-0.972,0.011350190908328032,0.9517966340716959,0.018154915856781282,0.003207510151899225
0.99,-0.0079,-0.972,0.011354096490729644,0.9497229181569125,0.018163848190385242,0.0031556607900316046
0.9910000000000001,-0.0058,1.028,0.01135460791476499,0.943399181467535,0.018165017852071273,0.0029975476610221655
0.992,-0.0079,0.028,0.011293218796431182,0.9262993090328584,0.018024616747133793,0.0025699975479931657
0.9930000000000001,0.0058,0.028,0.01132582622832756,0.9067059020863152,0.01809919217013517,0.0020801012995492413
0.994,-0.0108,-0.972,0.011331552502009687,0.888900437169039,0.018112288549004357,0.001634909175046746
0.9950000000000001,-0.0174,-0.972,0.011385251332870988,0.8911157043600089,0.01823510144144209,0.0016902977600497496
0.996,-0.0155,2.028,0.011396681979865585,0.8752478530313016,0.018261244111539825,0.001293552015013759
0.9970000000000001,-0.021,-1.972,0.011396472173730856,0.8774975872295223,0.018260764270585303,0.0013498023826354442
0.998,-0.0163,1.028,0.011399913575826603,0.8774975872295225,0.018268634992138096,0.0013498023826354496
0.9990000000000001,-0.0206,-0.972,0.011397683278868467,0.8977287077008442,0.018263534150722554,0.001855643457021248
1.0,-0.017,0.028,0.011398665288013036,0.8977287077008442,0.018265780072682307,0.001855643457021248
1.0010000000000001,0.0019,0.027999999999777956,0.011341713887567497,0.9021891303664458,0.018135528331538038,0.001967167927283831
1.002,0.0208,-0.972,0.011337341652216141,0.9066276089291015,0.01812552873077754,0.002078143726570614
1.0030000000000001,0.0277,0.028,0.011341544968555568,0.9219555388377663,0.0181351420022249,0.0024613897531117553
1.004,0.0523,0.028,0.011340480923695726,0.9370327688585793,0.018132708458983373,0.0028383675009977893
1.0050000000000001,0.0425,-1.9719999999995559,0.011362394223125972,0.9349263064846621,0.01818282567089873,0.0027856993755775504
1.006,0.0157,0.028,0.01144023177219858,0.9306228044895088,0.01836084545994334,0.0026780984112149695
1.0070000000000001,-0.0024,-0.972,0.011442167713411031,0.930622804489509,0.018365273089671525,0.0026780984112149725
1.008,0.0008,-0.972,0.01145321692829665,0.9262993090328767,0.018390543398493962,0.0025699975479936236
1.0090000000000001,-0.0079,-0.9719999999995559,0.011480678798097664,0.9497229181569292,0.018453350569672837,0.003155660790032024
1.01,-0.0054,1.028,0.011484595425865166,0.9517966340717124,0.018462308164782705,0.003207510151899639
1.0110000000000001,-0.0123,0.028000000000222045,0.011440066025163065,0.9517966340717124,0.018360466385156825,0.003207510151899639
1.012,-0.001,1.028,0.011438977135331712,0.9475697537960492,0.018357976019769177,0.003101824969362543
1.0130000000000001,-0.0068,0.028000000000222045,0.011395140207042414,0.9496481715176592,0.01825771797182955,0.0031537918910568706
1.014,-0.0087,1.028,0.011397074518520366,0.9538658417135868,0.018262141874243666,0.0032592467928917552
1.0150000000000001,-0.0007,0.028000000000222045,0.011436480607445869,0.9517966340717124,0.018352266290045192,0.003207510151899639
1.016,-0.005,1.028,0.011444393396514268,0.9475697537960492,0.018370363378885913,0.003101824969362543
1.0170000000000001,-0.0014,0.028,0.011354006279305297,0.9538658417135868,0.018163641870698622,0.0032592467928917552
1.018,0.0022,0.028,0.011282275716058148,0.9559305703583799,0.017999589175187913,0.00331087144499532
1.0190000000000001,-0.001,1.027999999999778,0.011166763272400184,0.9725095686030866,0.01773540432999403,0.0037253980796535732
1.02,-0.0057,0.028,0.011108402912172848,0.974534797932988,0.017601930201632837,0.003776035125761186
1.0210000000000001,-0.0101,0.028,0.011086173129411745,0.9765558272520921,0.017551089170732087,0.003826567158506974
1.022,0.0008,0.028,0.01105629862360687,0.962098170364585,0.017482764136291,0.0034650806702304273
1.0230000000000001,-0.0035,-0.9719999999997779,0.011057365121833255,0.962098170364585,0.01748520329054932,0.0034650806702304273
1.024,0.0089,0.028,0.01101532533898828,0.9682997960847385,0.017389055436939967,0.0036201406443760954
1.0250000000000001,0.004199999999999689,-1.972,0.010981032417201605,0.9907308950746789,0.0173106251834836,0.004180988039299665
1.026,0.0028,0.028,0.011010281488796257,0.986670822581847,0.017377519807184733,0.004079473571291351
1.0270000000000001,0.0017000000000013766,0.028,0.010962368468434843,0.9846705544376811,0.017267939458383248,0.004029460632633859
1.028,0.0079,1.028,0.010896126229484507,0.9846705544376811,0.01711643893525165,0.004029460632633859
1.0290000000000001,0.0003000000000005773,0.028,0.010951860710017258,0.9826662146521993,0.017243907497470845,0.003979345890251717
1.03,0.0029,1.028,0.010997868552573361,0.9826662146521993,0.017349130574556625,0.003979345890251717
1.0310000000000001,-0.009099999999998935,0.028,0.011003950864816462,0.9765558272520922,0.017363041237923094,0.0038265671585069765
1.032,-0.0043,0.028,0.011026195568031664,0.9704069651755155,0.017413916392921055,0.0036728264399207428
1.0330000000000001,-0.008600000000000245,0.028,0.011015173992752175,0.9663349602211946,0.017388709297764916,0.0035710136231804244
1.034,-0.0097,0.028,0.011013910588747787,0.9704801129682326,0.017385819806548672,0.0036746553627482943
1.0350000000000001,-0.0009999999999992673,0.028,0.010972131460589793,0.9642925095571206,0.017290268088004504,0.003519945990037728
1.036,0.0023,0.028,0.01093016516893034,0.9767011963499262,0.01719428831375401,0.0038302018390841148
1.0370000000000001,0.007000000000000178,1.028,0.010696817826807094,0.9767011963499262,0.01666060701065759,0.0038302018390841148
1.038,0.0078,0.028,0.010700445625996285,0.9725825582593188,0.016668904035089253,0.0037272230485760763
1.0390000000000001,-0.003099999999999045,-0.972,0.010813841087717534,0.9725825582593188,0.016928247198058098,0.0037272230485760763
1.04,0.0012,0.028,0.01081006361716436,0.9725825582593188,0.016919607864998278,0.0037272230485760763
1.0410000000000001,9.999999999806821e-05,1.028,0.011058006307717578,0.9684464044587627,0.017486669726443374,0.003623806310720948
1.042,-0.0086,-0.972,0.011240488925485638,0.9684464044587626,0.0179040199321786,0.003623806310720945
1.0430000000000001,0.0036999999999966916,1.028,0.01121409221691048,0.9746076359171261,0.01784364885744655,0.0037778563024085552
1.044,-0.0112,1.028,0.01120944463086533,0.9787177521170776,0.01783301951084993,0.0038806220190865355
1.0450000000000002,-0.005399999999998802,-0.972,0.011161778164963738,0.9746076359171261,0.017724003048931427,0.0037778563024085552
1.046,0.0,1.028,0.01112799711979844,0.9704801129682326,0.017646743492256242,0.0036746553627482943
1.0470000000000002,-0.004799999999999023,0.028,0.011052844080587045,0.9517966340717124,0.017474863360547647,0.003207510151899639
1.048,-0.0004,2.028,0.010863368963869958,0.9390589170370695,0.01704152083230701,0.0028890275211842695
1.0490000000000002,-0.001499999999999778,0.028,0.010763099899115237,0.9326628779939563,0.016812198635398096,0.002729106607957139
1.05,-0.0005,-0.972,0.010578311637818236,0.9725825582593188,0.01638957526549565,0.0037272230485760763
1.0510000000000002,-0.0014999999999989564,-0.972,0.010463511676626576,0.9725825582593188,0.01612701991634655,0.0037272230485760763
1.052,0.0032,-1.972,0.010492408847997459,0.9767011963499266,0.01619310972021013,0.0038302018390841235
1.0530000000000002,-0.0010999999999975797,-1.972,0.010284577171507962,0.972582558259319,0.015717784486486034,0.003727223048576082
1.054,0.0098,-0.972,0.009915945878517535,0.9767011963499266,0.01487469955131955,0.0038302018390841235
1.0550000000000002,0.014099999999997757,0.028,0.00842771272611159,0.9828106799532867,0.011471008723472858,0.003982957973092959
1.056,0.004,0.028,0.007278283669903647,1.006948472838305,0.008842185995293036,0.004586478035343955
1.0570000000000002,0.0051000000000007775,0.028,0.007108118913701695,1.0109271097722774,0.008453007579954678,0.00468595636053729
