time_sec,bts_raw,diy_raw,bts_rms,diy_rms,bts_norm_rms,diy_norm_rms
0.0,0.0248,-0.305,0.012138155240045446,0.6335250084813496,0.06348337970386754,0.0
0.0010000000000000009,0.0059,-0.305,0.012129157048361946,0.6345557178923832,0.06339718183893207,0.00016573661173086614
0.0020000000000000018,0.0034,0.695,0.01213259673908444,0.6355847558339811,0.06343013223682824,0.00033120445354665356
0.0030000000000000027,-0.0035,-0.305,0.012113253412371202,0.6387835710927001,0.06324483350991986,0.0008455694111746784
0.0040000000000000036,0.0078,-0.305,0.012172685988603075,0.639805809161316,0.06381416581123052,0.0010099438430572912
0.0050000000000000044,0.002,-1.305,0.012165914946138398,0.642983625208269,0.06374930284494,0.0015209321572105773
0.006000000000000005,-0.0183,0.695,0.012172258760694398,0.6439991964471629,0.06381007319630698,0.0016842345723275603
0.007000000000000006,-0.010200000000000061,0.695,0.012517638879491033,0.6582344123885026,0.06711863005735019,0.003973237109918669
0.008000000000000007,-0.012399999999999939,0.695,0.012576749953230833,0.672168221712603,0.0676848825366963,0.006213773890857379
0.009000000000000008,-0.01019999999999984,-1.3049999999999982,0.012565240968554858,0.7124452602111626,0.0675746326174305,0.0126902645679058
0.010000000000000009,-0.004400000000000153,-0.305,0.012765784135925532,0.7253384213077347,0.06949572892908668,0.01476346658951469
0.01100000000000001,-0.00989999999999969,0.695,0.012989026734550468,0.7380063699271455,0.07163427365462299,0.016800454764151127
0.011999999999999983,0.0013,-0.305,0.012963171474258711,0.7388913484347117,0.07138659408600624,0.01694275805325332
0.012999999999999984,0.0028,0.6949999999999982,0.012964354148135316,0.7513308202246946,0.0713979234693606,0.01894300747770174
0.013999999999999985,-0.0062,-0.305,0.012992023117322136,0.7522001224130026,0.07166297739938994,0.01908279003689651
0.014999999999999986,-0.0026,-0.305,0.01298423450361399,0.7530684211257034,0.07158836664468904,0.019222411238636574
0.015999999999999986,-0.0036,0.695,0.013080302250046767,0.7539357198298695,0.07250864428745711,0.019361871640422298
0.016999999999999987,-0.0061,0.695,0.01315251628309403,0.7566343492630935,0.07320041611072992,0.019795807426582657
0.017999999999999988,-0.0068,-0.305,0.01341938167998192,0.757497565160053,0.07575684391822726,0.019934611318759038
0.01899999999999999,-0.0013,-0.305,0.013719252776103445,0.7601835502513917,0.07862944867601765,0.020366513912674147
0.01999999999999999,0.0057,-0.305,0.013727005317219529,0.7628600782071452,0.07870371387457482,0.020796895812597516
0.02099999999999999,0.0119,0.695,0.013952780487677056,0.7655272482228266,0.08086651928408449,0.021225772969027015
0.021999999999999992,0.0195,-2.305,0.014250725308545004,0.8097205251459103,0.0837206713549377,0.028331989231446777
0.022999999999999993,0.022,-0.305,0.014253913866789873,0.812233831905548,0.08375121603798041,0.02873612539448514
0.023999999999999994,0.0082,0.695,0.014236138669074841,0.8130380190560548,0.08358093914838594,0.028865437547935687
0.024999999999999994,-0.0015,0.695,0.01423510126456312,0.8138414115595356,0.08357100136787068,0.028994621923271284
0.025999999999999995,-0.0106,-0.30499999999999305,0.01423971111572974,0.8163420312703609,0.08361516127712905,0.02939671802685106
0.026999999999999996,-0.0153,1.695,0.014243895788039342,0.8276182022203624,0.08365524820028314,0.031209910325810702
0.027999999999999997,-0.0196,-1.305,0.014246168055063733,0.8387427885080805,0.08367701530338065,0.032998728026024764
0.028999999999999998,-0.016,0.695,0.014238349376082116,0.8395215828154355,0.083602116539436,0.033123957046304
0.03,0.0029,-1.305,0.014241173030060223,0.8721035595214608,0.08362916563471985,0.03836309269884031
0.031,0.0055,0.695,0.014218009781735923,0.8826676583844273,0.08340727410131477,0.040061784815934955
0.032,-0.0014,-1.305,0.014206348463508692,0.8834077302675541,0.08329556490808171,0.04018078732530734
0.033,0.0008,2.695,0.014210855000808303,0.8841471826766714,0.08333873512573674,0.040299690224137395
0.034,0.0026,0.695,0.014191874607429229,0.8864494962966005,0.08315691310610679,0.04066989898950246
0.035,0.0153,-0.305,0.01415583452516129,0.8887458457477584,0.08281166838884976,0.04103914872498639
0.036000000000000004,0.0139,-0.305,0.0141515437990203,0.903722907363799,0.08277056552669865,0.04344743899511973
0.037000000000000005,0.0125,-0.305,0.014164446550598156,0.9044457507405855,0.08289416698762811,0.0435636711851029
0.038000000000000006,0.0033999999999997583,-1.305,0.01416515497023957,0.9146363718224563,0.0829009532689962,0.045202308604595134
0.03900000000000001,-0.005299999999999828,-1.305,0.014146164754396057,0.9168621278632616,0.08271903715540906,0.04556020701979702
0.04000000000000001,0.0008999999999995392,0.695,0.014155377959239917,0.9269162519547242,0.0828072947314518,0.04717689591678665
0.04100000000000001,-0.015700000000000464,0.695,0.014179866032294881,0.9276210222264356,0.08304187737738411,0.04729022197710172
0.04200000000000001,-0.03239999999999982,0.695,0.01417466164349003,0.9298156966441354,0.08299202211545467,0.04764312251138251
0.04299999999999998,-0.0258,-0.305,0.01401727534267493,0.9305182708923252,0.08148434550913958,0.047756095454229285
0.043999999999999984,-0.0316,-0.305,0.014049586240144766,0.932706128056337,0.08179386663005055,0.048107899783784026
0.044999999999999984,-0.0189,-0.305,0.014047228909858338,0.9334065266819532,0.08177128466638663,0.04822052288960605
0.045999999999999985,-0.0174,-0.305,0.014064060151904135,0.9476780355229547,0.08193251896540915,0.050515361273998825
0.046999999999999986,0.0055,0.695,0.014064658566415719,0.9617377885748413,0.08193825145645396,0.05277614962777521
0.04799999999999999,0.0548,-0.305,0.014063660168196034,0.9972737513059206,0.08192868733535949,0.05849028204433821
0.04899999999999999,0.0338,-1.305,0.014023666587916843,1.0106437799758934,0.08154557022111612,0.06064016369554367
0.04999999999999999,0.0019,-0.305,0.013924969696834441,1.0112902020402381,0.08060010677842563,0.060744107446852914
0.05099999999999999,-0.0039,-0.30499999999999305,0.013703138948816031,1.0112902020402381,0.078475086826774,0.060744107446852914
0.05199999999999999,0.0012,0.6949999999999931,0.013704931201072254,1.0112902020402381,0.07849225564505952,0.060744107446852914
0.05299999999999999,-0.013,-0.305,0.013786225877635228,1.0099200100165397,0.07927101517773279,0.060523782512397616
0.05399999999999999,0.0,0.695,0.013786225877635228,1.0099200100165397,0.07927101517773279,0.060523782512397616
0.05499999999999999,0.004,-0.305,0.013771074230316155,1.0112902020402381,0.07912587049810188,0.060744107446852914
0.055999999999999994,0.0294,-1.305,0.013771385062681971,1.0041149162143452,0.07912884810596228,0.059590331660725665
0.056999999999999995,0.013,-1.305,0.013656754451389244,1.0041149162143452,0.07803074814352222,0.059590331660725665
0.057999999999999996,-0.0018,-2.305,0.013656754451389244,1.0153896843453352,0.07803074814352222,0.06140329838837746
0.059,0.0225,-1.305,0.01365319245894911,1.0140250317246322,0.07799662616056659,0.06118386418206886
0.06,0.0257,-1.305,0.013621096066115992,1.0068692353953899,0.07768915987937837,0.06003322227936658
0.061,-0.0011,-0.305,0.013625060442418489,1.008243573397061,0.0777271364845781,0.06025421388120083
0.062,0.0025,-1.305,0.013590611302323929,1.0068692353953899,0.07739713214265474,0.06003322227936658
0.063,-0.0138,-0.305,0.013593172999102615,1.0082435733970612,0.07742167182803841,0.06025421388120086
0.064,0.0011,-0.305,0.013631946990735309,1.0068692353953899,0.07779310593517041,0.06003322227936658
0.065,-0.0177,-0.305,0.013624315571030101,1.0068692353953899,0.07772000101496501,0.06003322227936658
0.066,-0.0155,0.695,0.01376420125059045,1.0068692353953899,0.07906003102735724,0.06003322227936658
0.067,-0.0268,-0.305,0.013994626623783188,1.0181135021678451,0.08126738289257614,0.061841284431817446
0.068,-0.0286,0.695,0.0140778264201057,1.0181135021678451,0.08206439245386572,0.061841284431817446
0.069,-0.0047,0.695,0.014070980116455339,1.0194726820308881,0.08199880852565898,0.06205983862645479
0.07,0.025,0.695,0.014070610943221547,1.0194726820308881,0.08199527204347862,0.06205983862645479
0.07100000000000001,0.029,2.6949999999999723,0.014061805202066372,1.0278886628893593,0.08191091775169997,0.06341311641449414
0.07200000000000001,0.0036,0.6949999999999861,0.014108540340228777,1.0278886628893593,0.08235861538570904,0.06341311641449414
0.07300000000000001,0.0069,-0.305,0.014017064013453661,1.0024287713492706,0.08148232108819896,0.05931920195740351
0.07400000000000001,-0.0018,-0.305,0.013857764197310454,1.0024287713492706,0.07995631402820988,0.05931920195740351
0.07500000000000001,-0.0043,0.695,0.013875804288942537,1.034602500407941,0.08012912845988922,0.06449269196714726
0.07600000000000001,-0.0065,-1.305,0.013881884198198408,1.0332632228718808,0.08018737073959285,0.06427733803846689
0.07700000000000001,-0.0044,-1.305,0.013859051341024553,1.034602500407941,0.0799686441767467,0.06449269196714726
0.07800000000000001,-0.0062,-0.305,0.013785524170615978,1.0305794464853404,0.07926429319969577,0.06384579060115138
0.07900000000000001,0.0028,-2.305,0.013722246958193572,1.0235393923731446,0.07865813133943214,0.06271375988282578
0.08000000000000002,0.0042,-1.305,0.013824169206253243,1.0305794464853404,0.0796344919773452,0.06384579060115138
0.08100000000000002,0.0056,-0.305,0.014071676590142253,1.0235393923731448,0.08200548037117054,0.0627137598828258
0.08200000000000002,-0.0093,-0.305,0.014167285775218967,1.0235393923731446,0.08292136524134332,0.06271375988282578
0.08300000000000002,-0.0036,0.695,0.014179933957129817,1.0235393923731448,0.08304252806098295,0.0627137598828258
0.08400000000000002,-0.0018,0.695,0.014180752868715549,0.989608280789552,0.08305037279609681,0.05725768525507263
0.08500000000000002,0.002899999999999417,1.695,0.014297959895122676,0.989608280789552,0.08417315343770668,0.05725768525507263
0.08600000000000002,-0.0075999999999995,-0.30500000000001387,0.014220139022639841,0.991006556748254,0.08342767109065514,0.05748252604645302
0.08700000000000002,0.0013999999999999388,-1.3049999999999722,0.014165043752176299,1.003809188909718,0.08289988785941908,0.05954117114366809
0.08800000000000002,0.00029999999999969466,0.695,0.014121507287126151,1.003809188909718,0.0824828318034738,0.05954117114366809
0.08900000000000002,-0.005200000000000266,-1.305,0.014127486690771627,0.9965800419239499,0.08254011129317089,0.05837873455940893
0.09000000000000002,-0.00999999999999976,-0.305,0.014122179344707398,0.9892980704432297,0.08248926975574854,0.05720780387126751
0.09100000000000003,-0.005699999999999961,0.695,0.014143721631227502,0.9892980704432297,0.08269563334180836,0.05720780387126751
0.09199999999999997,-0.005,-0.305,0.014058915085286415,0.9878973762855733,0.08188323197831247,0.0569825742369243
0.09299999999999997,-0.0102,0.695,0.013750449975875744,0.9878973762855733,0.0789283011684877,0.0569825742369243
0.09399999999999997,-0.0022,-0.305,0.01352059324458923,0.9892980704432297,0.07672639658867383,0.05720780387126751
0.09499999999999997,-0.007,1.695,0.013147175199670189,1.002122529636098,0.07314925138744206,0.05926995872418129
0.09599999999999997,0.0031,1.695,0.013043969816135583,1.0035033684622239,0.07216059899778013,0.05949199564936958
0.09699999999999998,0.002,2.695,0.012941577001699244,1.0048823098382258,0.07117973058559353,0.05971372746726856
0.09799999999999998,0.0009,1.695,0.012990383110720644,1.0035033684622239,0.07164726701306999,0.05949199564936958
0.09899999999999998,0.0132,-0.305,0.011776627224473568,1.0302815723351915,0.06002013462610444,0.06379789286019799
0.09999999999999998,0.002,-0.305,0.011443193609214744,1.0302815723351915,0.056826018881079174,0.06379789286019799
0.10099999999999998,0.0063,-0.305,0.011508112886200256,1.0302815723351915,0.05744791084183461,0.06379789286019799
0.10199999999999998,0.0153,-0.305,0.01154642316634816,1.0316247207217615,0.05781490284089193,0.06401386921615139
0.10299999999999998,-0.0035,-0.3049999999999861,0.011607534455806718,1.0426020384187966,0.0584003163172952,0.06577900633581299
0.10399999999999998,0.0044,0.695,0.011578743106036394,1.0547786036588842,0.0581245105814202,0.06773698075984418
0.10499999999999998,0.0022,0.695,0.011669681691452093,1.0547786036588842,0.05899565360424091,0.06773698075984418
0.10599999999999998,-0.0044,0.695,0.01166811679081416,1.0547786036588842,0.058980662692892205,0.06773698075984418
0.10699999999999998,-0.0102,1.695,0.011311419540073909,1.0465788784641907,0.05556369375917427,0.06641847657588609
0.10799999999999998,-0.012,-0.305,0.011278308738652588,1.0383144008238263,0.05524650998612202,0.0650895602904842
0.10899999999999999,-0.004,0.695,0.011282809817350166,1.011748826132107,0.05528962791328834,0.060817853550488736
0.10999999999999999,-0.0055,0.695,0.011059882349937062,1.0031974547866809,0.05315410197625863,0.059442805164133014
0.11099999999999999,-0.0019,-0.305,0.010756700787490647,0.9959638675735333,0.05024978472120398,0.05827965459760756
0.11199999999999999,-0.003,0.695,0.010756506968599755,0.9973532331239561,0.050247928039865476,0.05850306260797176
0.11299999999999999,-0.0107,-0.305,0.010756747775672084,0.9900769484461113,0.05025023484285726,0.05733304634966872
0.11399999999999999,0.0041,-0.305,0.010681834505190994,1.002891447797776,0.04953260576826847,0.059393599674240176
0.11499999999999999,0.0197,-0.305,0.010683574981207946,1.0042712293881058,0.049549278597866855,0.05961546659741164
0.11599999999999999,0.0255,1.695,0.010545215372884335,1.0042712293881055,0.048223867531922204,0.059615466597411605
0.11699999999999999,0.0164,0.695,0.01044503720402802,1.0114454063147162,0.047264214240206624,0.06076906407410671
0.118,0.0051,0.6949999999999861,0.010159920738671387,1.0114454063147162,0.044532950955745484,0.06076906407410671
0.119,0.0007,-0.30500000000001387,0.00976035700679991,1.010075424829435,0.04070534405378072,0.06054877299393035
0.12,-0.0029,-1.305,0.009772634111562371,1.010075424829435,0.040822952152756165,0.06054877299393035
0.121,-0.0166,0.695,0.009728069062688157,1.0087035826909636,0.040396042813766894,0.060328182723359436
0.122,-0.0112,0.695,0.00947572122613456,0.9830590690749342,0.037978685471636776,0.05620458129825478
0.123,-0.0065,-0.305,0.009469319257081242,1.0090078270053906,0.03791735803128109,0.06037710477769573
0.124,-0.0109,2.695,0.00944726750236892,1.0090078270053906,0.03770611401235579,0.06037710477769573
0.125,-0.0044,-0.305,0.009463666551450802,1.017510367931139,0.03786320813388048,0.06174430130180963
0.126,0.0069,0.695,0.009458399030043396,1.0161485633196476,0.03781274809537598,0.06152532505134372
0.127,0.0054,-1.305,0.009450304508475246,1.0161485633196479,0.03773520690694719,0.061525325051343754
0.128,0.0144,0.695,0.009441882727723287,1.0076345313889168,0.03765453075052516,0.060156280789923085
0.129,0.0231,-1.305,0.009457904525969993,1.0076345313889168,0.03780801101076737,0.060156280789923085
0.13,0.0264,0.695,0.009469279389876267,0.9802378492329898,0.03791697612477469,0.05575093314820744
0.131,0.0173,0.695,0.009522833013565202,0.9728335588837761,0.03842999120423872,0.054560333759462475
0.132,0.0061,-1.305,0.00951066106636044,0.97425591063193,0.03831339045843758,0.054789045903646846
0.133,0.0017,-0.305,0.009617982714460918,1.008703582690963,0.03934147446164676,0.06032818272335933
0.134,-0.0185,0.695,0.009721045811415283,1.0073298722974549,0.04032876382195156,0.06010729204002774
0.135,-0.0037,0.695,0.0097495886876346,1.0059542859951585,0.04060218931406836,0.059886099713223055
0.136,-0.0062,1.695,0.009794905306330235,0.9931793057099375,0.0410362982900775,0.057831900998497054
0.137,0.0058,-0.305,0.009765701726344436,0.9931793057099375,0.040756543609160464,0.057831900998497054
0.138,-0.0054,0.695,0.009903736281601058,0.984466647175643,0.04207884084053138,0.05643091786087926
0.139,-0.0036,0.695,0.010006961001236698,0.9830590690749331,0.04306767845970209,0.0562045812982546
0.14,-0.0079,0.695,0.01003007492461395,0.9742559106319304,0.043289097486488806,0.054789045903646916
0.14100000000000001,-0.0025,-0.30499999999997224,0.010003237167197608,0.9830590690749331,0.043032006120766235,0.0562045812982546
0.14200000000000002,-0.0138,0.695,0.010020491017206845,0.9816494726630766,0.043197288778107266,0.05597792019405955
0.14300000000000002,-0.0061,0.6950000000000277,0.010057644507108112,1.0090078270053908,0.0435531993451452,0.06037710477769576
0.14400000000000002,0.0004,1.6949999999999723,0.010016132189281532,1.0161485633196483,0.04315553353727682,0.06152532505134383
0.14500000000000002,0.0092,0.695,0.010055608681764427,1.0175103679311395,0.04353369722692194,0.0617443013018097
0.14600000000000002,0.0059,0.695,0.010060695908014394,1.0062593615646938,0.043582430134223187,0.05993515543220203
0.14700000000000002,0.012499999999999241,-0.305,0.010063985442823812,0.994881126881904,0.043613942118761434,0.05810555142973814
0.14800000000000002,-0.0012000000000010047,-2.305,0.010066269209533813,0.9599375595805562,0.043635819382698116,0.05248667535824924
0.14900000000000002,-0.01929999999999962,-1.305,0.010074013530080621,0.9480035190771688,0.043710005832597244,0.05056769856797529
0.15000000000000002,-0.012399999999999878,-0.305,0.009992275932854568,0.9613789910354041,0.042927003356804244,0.05271845549221468
0.15100000000000002,-0.010200000000000101,0.695,0.009993732673801976,0.9613789910354041,0.04294095815615141,0.05271845549221468
0.15200000000000002,-0.011999999999999894,1.695,0.010020082370111911,0.9613789910354041,0.043193374157444106,0.05271845549221468
0.15300000000000002,-0.010099999999998634,1.695,0.009932950715270155,0.9613789910354041,0.04235869949393087,0.05271845549221468
0.15400000000000003,0.014499999999998996,0.695,0.010184056775739518,0.9628182645312819,0.04476416128515989,0.05294988862943774
0.15499999999999997,-0.0036,-0.305,0.01025633261172042,0.9613789910354043,0.045456525147490524,0.0527184554922147
0.15599999999999997,-0.0069,-0.305,0.010261074375741527,0.9599375595805563,0.04550194871136021,0.05248667535824926
0.15699999999999997,-0.0098,-0.305,0.0103994228731574,0.9584939604309964,0.04682725334074981,0.052254546662047985
0.15799999999999997,0.0036,-0.305,0.01035284103183673,0.973464374150171,0.046381024208515705,0.05466176795979208
0.15899999999999997,-0.0032,-0.305,0.010295968869367103,0.9822746263794075,0.04583621930197723,0.056078444025167054
0.15999999999999998,-0.0011,0.695,0.010292325341815615,0.9822746263794075,0.0458013162562522,0.056078444025167054
0.16099999999999998,0.0008,0.695,0.010284637620245661,0.9808639026480825,0.0457276719942875,0.05585160164960004
0.16199999999999998,0.0026,0.695,0.010297870227756939,0.9808639026480825,0.04585443329868298,0.05585160164960004
0.16299999999999998,-0.0054,1.695,0.010320470328062081,0.9808639026480824,0.04607093017518348,0.05585160164960003
0.16399999999999998,0.0022,0.695,0.010336811490958336,0.9822746263794075,0.046227469778001976,0.056078444025167054
0.16499999999999998,-0.0043,-0.305,0.010338490894476481,0.9836833269602482,0.046243557565717665,0.05630496108100505
0.16599999999999998,-0.0054,-1.305,0.010177904715858128,0.9850900130700546,0.04470522784104319,0.05653115421275729
0.16699999999999998,0.0113,-0.305,0.00985668754684295,0.9734643741501703,0.04162813911881764,0.054661767959791975
0.16799999999999998,0.0044,-0.305,0.009729685771746419,0.9734643741501703,0.04041153002208003,0.054661767959791975
0.16899999999999998,-0.0068,0.695,0.009733040043083762,0.9734643741501704,0.04044366214794077,0.05466176795979199
0.16999999999999998,0.0232,-0.305,0.009748060051057146,0.9734643741501703,0.04058754579302841,0.054661767959791975
0.17099999999999999,0.0189,-1.305,0.009752318095320803,0.9660081676472194,0.04062833558026988,0.05346282052714406
0.172,-0.0011,-2.3049999999999446,0.009640381589051936,0.9660081676472194,0.039556043703402655,0.05346282052714406
0.173,0.0025,-0.30500000000002775,0.009712638644780275,0.9660081676472194,0.040248227660955656,0.05346282052714406
0.174,0.0058,-1.3049999999999722,0.009751789862013305,0.9674405542832676,0.040623275387633884,0.053693146267072195
0.175,-0.0029,-0.30500000000002775,0.00978278548858069,0.9314681356544531,0.040920196916583385,0.0479088323610552
0.176,0.0051,-1.305,0.009778172551263328,0.9450776581642052,0.04087600744365108,0.05009722428209086
0.177,-0.0018,-0.305,0.009797183827599526,0.9436113256263727,0.041058125305496955,0.04986144008929167
0.178,-0.0083,-0.305,0.009880898601976013,0.9436113256263727,0.04186006808118144,0.04986144008929167
0.179,0.0054,-0.305,0.009822234525593089,0.9421427109199448,0.04129809759750177,0.04962528892701849
0.18,0.0109,0.695,0.00956485326967194,0.9421427109199447,0.03883252278923304,0.04962528892701848
0.181,0.0029,0.695,0.009195384034202203,0.9406718033558807,0.03529320507107115,0.049388769076488724
0.182,-0.0171,2.695,0.009048632186417958,0.9406718033558809,0.03388740083847945,0.049388769076488745
0.183,-0.0146,-0.305,0.0090879429923609,0.9329535539620183,0.0342639773396655,0.048147685518563466
0.184,-0.0077,-0.305,0.009088796950530166,0.9329535539620183,0.03427215780231,0.048147685518563466
0.185,-0.0099,-0.305,0.008905699980099316,0.9314681356544531,0.03251818672874072,0.0479088323610552
0.186,-0.0002,-0.305,0.008934603975796979,0.9314681356544529,0.03279507155236711,0.04790883236105516
0.187,0.0165,-0.305,0.008915680164934551,0.9176567961487709,0.03261379156299159,0.045687988553253886
0.188,0.0143,-0.305,0.00889789820999639,0.9269975994614267,0.03244344994281265,0.04718997648051228
0.189,0.0085,-0.305,0.008972927744471509,0.9269975994614261,0.03316219276429712,0.047189976480512194
0.19,0.0067,-1.305,0.009262659723909536,0.9347650277934505,0.03593767020571219,0.04843896794195732
0.191,-0.0082,-0.305,0.009267943779371375,0.9332824926435257,0.035988288631617286,0.04820057839210926
0.192,-0.01,-2.305,0.009373776065088412,0.9424684424234772,0.03700210533956499,0.049677666090893725
0.193,-0.0045,-1.305,0.009355577202343545,0.9424684424234772,0.03682776996552115,0.049677666090893725
0.194,-0.0092,0.695,0.009368795034042003,0.969504216923166,0.03695438972553055,0.05402498029325943
0.195,-0.0077,0.695,0.009426684187932268,0.9695042169231665,0.03750893686608672,0.0540249802932595
0.196,-0.0041,0.695,0.009417407782404881,0.9695042169231666,0.0374200738612896,0.05402498029325952
0.197,-0.003,-0.305,0.00951354072900976,0.9680748837362865,0.03834097608684345,0.05379514554362777
0.198,-0.0041,0.695,0.009574480610360888,0.9958062503818044,0.03892474756523058,0.058254309976681386
0.199,-0.0034,1.695,0.009573791537164823,0.9695042169231666,0.03891814661246426,0.05402498029325952
0.2,-0.0027,-0.305,0.009399473582772691,0.9605768437468083,0.03724827381834811,0.052589471345666855
0.201,0.0096,-0.305,0.009328912881512948,0.9737796285423801,0.03657234002955233,0.054712460419023265
0.202,0.0078,-0.305,0.009295074248918605,0.9999692128419766,0.03624818402303866,0.0589237084371261
0.203,0.0227,0.695,0.009251094691082332,0.9885185787434774,0.03582688337512693,0.057082462711279716
0.20400000000000001,0.0129,-0.305,0.009200082240465155,1.003040974276681,0.035338211374908335,0.05941764332001705
0.20500000000000002,0.0038,-0.305,0.009105995832524224,1.001659498016734,0.03443691389545738,0.05919550389637419
0.20600000000000002,-0.0175,-0.3050000000000555,0.00915229948356158,1.0102238879854097,0.03488047811352751,0.06057264565888782
0.20700000000000002,-0.0026,-2.3049999999999726,0.009292063720419274,1.0102238879854097,0.036219344769764523,0.06057264565888782
0.20800000000000002,-0.0051,-1.3049999999999444,0.009359382482080736,1.0115936684099676,0.03686422251069526,0.06079290440878497
0.20900000000000002,-0.0029,0.695,0.009356671688851242,1.0129615965464402,0.03683825456103573,0.06101286531338461
0.21000000000000002,0.0037000000000001,-0.305,0.009381842098529299,1.0214312262541887,0.03707937362696737,0.062374769760312775
0.21100000000000002,0.0055000000000001055,-0.305,0.009386168731771057,1.0200746560209981,0.037120820459944075,0.0621566351904552
0.21200000000000002,0.007400000000000261,0.695,0.009394919978886834,1.0187162793170528,0.03720465272796364,0.06193821014266187
0.21300000000000002,0.012099999999999578,0.695,0.009405818175515555,1.0173560889063384,0.03730905162432913,0.06171949345339195
0.21400000000000002,0.004499999999999317,0.695,0.009399657824651108,1.0047260917350789,0.037250038757027995,0.059688607817802435
0.21500000000000002,-0.007799999999999733,0.695,0.009398419226507056,1.0047260917350789,0.03723817364909457,0.059688607817802435
0.21600000000000003,-0.002999999999999578,0.695,0.009398331244850405,1.0047260917350789,0.037237330831868226,0.059688607817802435
0.21700000000000003,0.004600000000000061,0.695,0.009527705353342372,0.9975035897854213,0.03847666561403178,0.058527239745927086
0.21800000000000003,0.005699999999999378,0.695,0.009636119933484349,0.9975035897854213,0.039515219321800535,0.058527239745927086
0.21900000000000003,-0.005499999999999922,-0.305,0.009630745899495677,0.9975035897854213,0.03946373894972049,0.058527239745927086
0.21999999999999997,-0.0041,0.695,0.009607006946883791,0.9975035897854213,0.03923633247707323,0.058527239745927086
0.22099999999999997,-0.0076,0.695,0.009324860821915753,0.9975035897854213,0.036533523465274206,0.058527239745927086
0.22199999999999998,-0.0163,0.695,0.00914226512258612,0.9902284099420485,0.03478435430082163,0.05735740114344048
0.22299999999999998,-0.0109,0.695,0.009274807392260838,0.9623363217077052,0.03605403837307924,0.05287239290680965
0.22399999999999998,-0.0134,-0.305,0.009449428503045147,0.9712475225024453,0.037726815243332726,0.05430530135837082
0.22499999999999998,-0.0032,1.695,0.009498338066670562,0.9623363217077056,0.038195342710597796,0.05287239290680971
0.22599999999999998,0.0092,-0.305,0.009505955801224297,0.9623363217077054,0.03826831653436965,0.05287239290680969
0.22699999999999998,0.0139,-1.305,0.00954950422000008,0.9533418286158928,0.038685487100614764,0.05142609117198913
0.22799999999999998,0.0096,-0.305,0.009678707256609062,0.9623363217077054,0.03992318310561259,0.05287239290680969
0.22899999999999998,0.006,-1.305,0.00967537577227374,0.963774165553681,0.03989126926704686,0.053103596158355734
0.22999999999999998,0.0024,-0.305,0.00970135121366578,0.9652098674896935,0.04014010010634269,0.05333445499381698
0.23099999999999998,0.0057,0.695,0.009762342948595877,0.963774165553681,0.0407243683142899,0.053103596158355734
0.23199999999999998,0.0104,0.695,0.01007906747341945,0.963774165553681,0.04375841990740637,0.053103596158355734
0.23299999999999998,0.0021,-0.305,0.01012983819365356,0.9276595840373559,0.04424477625981003,0.04729642266161641
0.23399999999999999,-0.0034,-0.305,0.010037320779584654,0.929151091032636,0.04335850890270169,0.04753625487147537
0.235,-0.0081,0.6949999999999722,0.010013295547242429,0.9306402076409094,0.04312836002331343,0.04777570271049326
0.236,0.002,-0.30500000000002775,0.01009132637666428,0.9306402076409093,0.04387585364557539,0.047775702710493244
0.237,-0.0016,-1.3049999999999444,0.010153720994983047,0.9321269453184435,0.044473560726255044,0.04801476802082165
0.238,-0.0128,0.6949999999999444,0.010018369333836045,0.9336113154302863,0.043176964185893105,0.048253452629944106
0.239,-0.0233,-1.3049999999999722,0.00991691263058941,0.9336113154302863,0.04220506321835905,0.048253452629944106
0.24,-0.0085,-0.305,0.009884444631077427,0.9336113154302863,0.04189403714388783,0.048253452629944106
0.241,-0.0143,-1.305,0.00988739349191462,0.9336113154302863,0.04192228565393278,0.048253452629944106
0.242,-0.0125,0.695,0.009887393491914618,0.9427940613881124,0.041922285653932766,0.049730025158673884
0.243,0.0078,-2.305,0.009839054506163347,0.9228380617960388,0.04145922401761024,0.04652112872221247
0.244,0.0104,1.695,0.009835315810209199,0.9427940613881124,0.0414234093094749,0.049730025158673884
0.245,0.0082,0.695,0.009796688336039767,0.9427940613881124,0.04105337876129706,0.049730025158673884
0.246,0.0147,-0.305,0.009781837946073716,0.9413241716209746,0.0409111199660238,0.04949366896844661
0.247,0.0165,-2.305,0.009774471009587418,0.9413241716209747,0.040840548653634616,0.049493668968446626
0.248,-0.0002,0.695,0.00977260187076622,0.9413241716209746,0.040822643303168406,0.04949366896844661
0.249,0.0063,-0.305,0.009768295903226813,0.9398519830096314,0.04078139443657013,0.0492569431273309
0.25,0.0045,1.695,0.00976251826125862,0.927659584037355,0.04072604771585814,0.047296422661616266
0.251,0.0063,-2.305,0.009762250936402898,0.9291510910326352,0.04072348688668068,0.04753625487147523
0.252,0.0078,0.695,0.009750438218094577,0.9291510910326352,0.0406103273616254,0.04753625487147523
0.253,-0.0027,-2.305,0.009837933716284488,0.9291510910326352,0.04144848744986452,0.04753625487147523
0.254,-0.0063,-0.305,0.009681611277808123,0.9291510910326352,0.0399510020759003,0.04753625487147523
0.255,-0.0099,-1.305,0.009800152957702726,0.9306402076409089,0.04108656798427214,0.04777570271049319
0.256,-0.0175,-0.305,0.009952366578551334,0.9306402076409089,0.04254469308237435,0.04777570271049319
0.257,-0.0149,0.695,0.010093885452553072,0.9306402076409087,0.043900368224235244,0.047775702710493154
0.258,-0.0029,0.695,0.010328955294243184,0.9009051494466388,0.046152211614231047,0.04299434751766862
0.259,-0.0076,-1.305,0.010373555124680422,0.9055045149704144,0.04657945414199615,0.043733918971913845
0.26,0.003,-0.305,0.010461567605030206,0.9055045149704145,0.047422566642893085,0.043733918971913865
0.261,0.0041,-0.305,0.0106009957933963,0.9070324540734931,0.04875821413426792,0.043979609413045476
0.262,0.0052,-0.305,0.010681854667151314,0.9070324540734931,0.0495327989090676,0.043979609413045476
0.263,0.0041,-0.305,0.010716084188821024,0.9055045149704144,0.049860699423912316,0.043733918971913845
0.264,0.0016,0.695,0.010652331786020961,0.9179912160487067,0.049249985493918166,0.0457417627989505
0.265,0.0042,-0.305,0.010691803565408046,0.9179912160487067,0.04962810403462555,0.0457417627989505
0.266,0.0165,0.695,0.010735927223453923,0.916481547349321,0.05005078508549393,0.04549901021282495
0.267,0.0183,-0.305,0.010735094028708248,0.9164815473493209,0.0500428035253451,0.04549901021282494
0.268,-0.0031,-0.305,0.010733839116249779,0.9149693877507747,0.050030782135002935,0.04525585709364654
0.269,-0.0002,0.695,0.010734378543605825,0.9228380617960401,0.05003594956063848,0.04652112872221269
0.27,0.0024,-0.305,0.010744906318419453,0.9228380617960401,0.05013680001408238,0.04652112872221269
0.271,0.0046,0.695,0.01074306907393521,0.9350933292512837,0.050119200194310085,0.0484917583508399
0.272,-0.015700000000000144,-0.305,0.010728852043938924,0.9471900445639342,0.04998300864888542,0.05043689301976774
0.273,-0.01829999999999961,-1.305,0.010681413072104514,0.9471900445639343,0.04952856866464304,0.05043689301976775
0.274,-0.011299999999999638,-0.305,0.010888456963911717,0.9591342067885003,0.0515119384404209,0.052357497368454464
0.275,-0.004800000000000316,-0.305,0.010887234524839116,0.96057684374681,0.05150022812775162,0.052589471345667126
0.276,-0.0105000000000003,-0.305,0.010883071605225048,0.9486508454809944,0.051460349583789436,0.05067178773579069
0.277,-0.015899999999999557,-1.305,0.010866603682791087,0.9486508454809944,0.051302595692378876,0.05067178773579069
0.278,-0.007899999999999067,0.695,0.010809817097658573,0.939525344385442,0.050758610570971176,0.04920442009974033
0.279,0.00890000000000036,0.695,0.010768493107450436,0.9530198135212818,0.05036274884098747,0.05137431160139853
0.28,0.015400000000000545,-0.305,0.0107518675365196,0.9439365503437807,0.05020348476127254,0.049913735762676735
0.281,0.025199999999999702,0.695,0.01078218383057613,0.9439365503437807,0.05049389864801162,0.049913735762676735
0.28200000000000003,0.01979999999999918,-0.3049999999999445,0.010805620141789127,0.9439365503437807,0.05071840597788189,0.049913735762676735
0.283,0.005,0.695,0.010755587575820688,0.9424684424234792,0.050239120748647406,0.049677666090894045
0.284,0.0032,0.6949999999999444,0.010756457887088726,0.9439365503437807,0.050247457865234026,0.049913735762676735
0.285,0.0159,-0.3049999999999445,0.010757370698693001,0.9573688439136049,0.0502562021123166,0.05207362952148562
0.286,0.0112,0.695,0.01073014268318778,0.9559213655869895,0.04999537228277614,0.05184087705911455
0.287,0.0007,0.6949999999999444,0.010740036234496835,0.9559213655869895,0.05009014721416971,0.05184087705911455
0.288,0.0018,-0.305,0.010761432476588745,0.9468659373409068,0.05029511177269838,0.05038477703789445
0.289,0.0029,-0.305,0.010748944828725395,0.9454023784535858,0.0501754867833952,0.05014943884416441
0.29,-0.0072,-1.305,0.010671347438010818,0.9377230664792529,0.0494321452721864,0.04891461636808559
0.291,-0.0082,-1.305,0.010661162401784205,0.9468659373409075,0.04933457807114153,0.05038477703789456
0.292,-0.002,-1.305,0.010581055239812853,0.9391985921614401,0.048567194293284065,0.049151878805460986
0.293,0.0035,-2.305,0.010507700118561258,0.9468659373409075,0.04786449145516117,0.05038477703789456
0.294,0.0028,0.695,0.01057744192507966,0.9176567961487732,0.048532580670203315,0.04568798855325425
0.295,0.0054,-0.305,0.01087006110876415,0.905165481780681,0.051335715984492346,0.043679402915759495
0.296,0.0014,0.695,0.011137928135220639,0.9036343858533024,0.05390173886767891,0.04343320486175686
0.297,-0.0023,-0.305,0.011141938106856148,0.9131186435429391,0.053940152251788796,0.04495826004941308
0.298,0.0028,-0.305,0.011051531172906108,0.8924993575888296,0.05307410216573155,0.041642708106487535
0.299,-0.0001,0.695,0.011054964817879053,0.8909464951307096,0.05310699464857975,0.041393010025207
0.3,-0.0026,0.695,0.01104498571624582,0.8924993575888287,0.05301140019082486,0.041642708106487396
0.301,-0.0084,-0.305,0.011064318392276654,0.8878326221558526,0.05319659688989081,0.04089230366637439
0.302,-0.0153,-0.305,0.01105473759477405,0.856612898096738,0.053104817972731505,0.035872216307764083
0.303,-0.0146,0.695,0.011092650497286824,0.8549948602622793,0.053468003306524736,0.03561203811838806
0.304,-0.02,0.695,0.011113856643491052,0.824211471290741,0.05367114684809494,0.0306621128231295
0.305,-0.0178,-0.305,0.011263834082687836,0.8258898204470291,0.05510785052167375,0.030931988987533205
0.306,-0.0243,-0.305,0.011477749799759334,0.8170880538470634,0.057157048709073247,0.029516677399312227
0.307,-0.0221,-0.305,0.011392294700290233,0.8325693844726318,0.056338434549564824,0.032006053411115676
0.308,-0.0109,1.695,0.011328114241104595,0.8412091819158785,0.05572362006828144,0.03339532058861123
0.309,0.0138,0.695,0.011347114561517133,0.8395614579224107,0.055905632978236856,0.03313036890696202
0.31,0.0175,0.695,0.011361192777772141,0.8292363280389864,0.0560404947622447,0.03147010266291573
0.311,0.0142,-0.305,0.011416620695650134,0.8292363280389864,0.056571464577842435,0.03147010266291573
0.312,0.0113,-0.305,0.011488003250793,0.8395614579224107,0.05725527128738783,0.03313036890696202
0.313,0.0033,1.695,0.01163129198340958,0.8395614579224107,0.05862790072842384,0.03313036890696202
0.314,0.0102,0.695,0.01163818196103227,0.8395614579224107,0.058693903029932715,0.03313036890696202
0.315,0.0124,-0.305,0.011799940538605507,0.8530140020770945,0.06024346370970552,0.03529351893110067
0.316,0.0026,0.695,0.01183247762003558,0.8530140020770947,0.06055515155201347,0.035293518931100686
0.317,0.0043,-0.305,0.011736252122001906,0.8513891246831873,0.05963336273325963,0.035032240950263936
0.318,0.0058,-1.305,0.011592644556459322,0.861448777071525,0.058257679043274585,0.036649818789551876
0.319,0.0072,-0.305,0.011588987426348122,0.861448777071525,0.05822264569230089,0.036649818789551876
0.32,0.0035,1.695,0.011589661064295684,0.8614487770715249,0.05822909878363988,0.036649818789551855
0.321,-0.0052,1.695,0.011591130819347794,0.8761466131530621,0.05824317825115137,0.03901320998968356
0.322,-0.0128,0.695,0.011645496223755724,0.8745647155178419,0.05876396975583886,0.03875884309309768
0.323,-0.0238,1.695,0.011547586947111856,0.8761466131530621,0.05782605123832689,0.03901320998968356
0.324,-0.0133,0.695,0.011435143047407212,0.8662576601972183,0.05674889880365154,0.037423080377085964
0.325,-0.001,0.695,0.011404655919344555,0.8678546997978044,0.05645684841847984,0.03767988208023112
0.326,0.007,-0.305,0.011428339988073147,0.8678546997978044,0.05668372913287192,0.03767988208023112
0.327,0.0084,-0.305,0.011380866663341876,0.8678546997978044,0.05622896006624633,0.03767988208023112
0.328,0.0019,1.695,0.011275696522501606,0.8578701685406218,0.055221486352164825,0.0360743836123099
0.329,0.0008,-0.305,0.011248751062845765,0.8578701685406218,0.05496336325657694,0.0360743836123099
0.33,0.0084,-0.305,0.011213766786448712,0.8662576601972183,0.05462823259501661,0.037423080377085964
0.331,0.0091,0.695,0.011107054472818428,0.8662576601972183,0.05360598569021675,0.037423080377085964
0.332,-0.0011,-0.305,0.010817710048981147,0.864657670838339,0.050834220824228275,0.03716580435699008
0.333,0.0025,0.695,0.01065321304604052,0.8646576708383393,0.04925842749369,0.03716580435699013
0.334,0.0036,1.695,0.010654273892834373,0.8646576708383393,0.04926858983873332,0.03716580435699013
0.335,0.0025,-0.305,0.010652920705142736,0.8646576708383397,0.04925562702420583,0.037165804356990184
0.336,0.005,-0.305,0.010538281217530915,0.86465767083834,0.04815744203137507,0.03716580435699024
0.337,-0.007,-0.305,0.010503843573093006,0.86465767083834,0.04782754781169562,0.03716580435699024
0.338,-0.0117,-0.305,0.01052455138699932,0.8646576708383403,0.04802591759631337,0.03716580435699029
0.339,-0.0194,0.695,0.01054851230324004,0.8646576708383403,0.048255450361839446,0.03716580435699029
0.34,-0.0071,-1.305,0.010567229228480631,0.8955970050854503,0.04843474849758088,0.042140805431427744
0.341,-0.0058,0.695,0.010544552267283108,0.8874868380655476,0.04821751533482939,0.04083670207498103
0.342,0.0007,-1.305,0.010551898294735613,0.8874868380655476,0.04828788634985504,0.04083670207498103
0.343,0.0144,-0.305,0.010577847920094365,0.8874868380655476,0.048536469885355975,0.04083670207498103
0.34400000000000003,0.0271,0.6949999999999444,0.0105825437937832,0.857870168540623,0.04858145384438037,0.03607438361231009
0.34500000000000003,0.0256,-0.3050000000000555,0.010596536750077814,0.8662576601972194,0.0487154988835567,0.037423080377086144
0.34600000000000003,0.015,-1.305,0.0106101066470303,0.8808752613576549,0.04884549124044808,0.03977356991567917
0.34700000000000003,0.0085,-1.3049999999999444,0.010616443691681177,0.8808752613576549,0.04890619673974389,0.03977356991567917
0.34800000000000003,-0.0028,-0.3049999999999445,0.010614093027659446,0.880875261357655,0.04888367863533127,0.039773569915679194
0.34900000000000003,-0.0043,0.6949999999998889,0.01061064044607269,0.880875261357655,0.04885060474984831,0.039773569915679194
0.35000000000000003,-0.008,-1.3049999999999444,0.010610650787390112,0.8808752613576551,0.04885070381413964,0.03977356991567921
0.35100000000000003,-0.0044,-0.305,0.010617358393410199,0.8808752613576551,0.04891495909321087,0.03977356991567921
0.35200000000000004,-0.0121,-0.305,0.010602775988496425,0.8824458466006256,0.048775267451445045,0.0400261177956325
0.35300000000000004,-0.0074,0.695,0.010493271856914609,0.896799623329677,0.04772627642347298,0.042334184739766446
0.35400000000000004,-0.0194,0.695,0.010391803117821317,0.896799623329677,0.04675426015896358,0.042334184739766446
0.35500000000000004,-0.0242,0.695,0.010199223166659709,0.9048263215571787,0.044909447200606016,0.04362486643275524
0.35600000000000004,-0.0105,1.695,0.010054213268728594,0.9344366109914247,0.04352032991617522,0.04838615898589214
0.35700000000000004,-0.0087,-1.305,0.009783377609929868,0.9344366109914247,0.040925869122497315,0.04838615898589214
0.35800000000000004,-0.0072,-0.305,0.009542330566451828,0.9359173179677339,0.03861676733542241,0.04862425456801519
0.35900000000000004,0.0094,-0.305,0.009504402923854866,0.9221726160813714,0.03825344079950428,0.0464141259949072
0.36000000000000004,0.0116,-0.305,0.009404556908001651,0.9221726160813706,0.037296969355953995,0.046414125994907074
0.36100000000000004,0.0134,-1.305,0.009286629422818668,0.9299803447540177,0.0361672871045055,0.04766959769397778
0.36200000000000004,0.0189,-0.305,0.009190629793369386,0.9299803447540176,0.03524766198601671,0.047669597693977765
0.36300000000000004,-0.0058,-0.305,0.009229362449688668,0.9314681356544509,0.035618700122948516,0.04790883236105484
0.36400000000000005,0.0195,1.695,0.009225844206017466,0.9176567961487685,0.0355849972298065,0.0456879885532535
0.36500000000000005,0.0097,-0.305,0.009209640520577616,0.9176567961487677,0.03542977458751027,0.04568798855325337
0.36600000000000005,0.0067999999999991114,-0.305,0.009174968269450292,0.9269975994614227,0.03509763296119197,0.04718997648051164
0.36700000000000005,-0.0011999999999997668,-1.305,0.009201299302391936,0.9269975994614222,0.03534987017739585,0.04718997648051156
0.36800000000000005,0.0008999999999997557,-0.305,0.009198340357961353,0.9269975994614224,0.03532152507191798,0.04718997648051158
0.36900000000000005,-0.0013000000000001999,0.695,0.009181664525633492,0.9191645345795252,0.035161779514894666,0.04593043075492065
0.37000000000000005,-0.0031000000000010104,1.695,0.009153074035596377,0.9206698038599794,0.03488789790786278,0.046172475920720456
0.37100000000000005,-0.012199999999999123,-0.305,0.009147389633471807,0.9206698038599794,0.03483344437499672,0.046172475920720456
0.37200000000000005,-0.004300000000000488,0.695,0.009132826801647505,0.9206698038599794,0.034693940232962184,0.046172475920720456
0.37300000000000005,-0.008699999999999878,-0.305,0.009043850974329443,0.932953553962013,0.033841599383217125,0.04814768551856261
0.37400000000000005,-0.0076000000000001336,0.695,0.00875972077251132,0.9191645345795252,0.031119783976093267,0.04593043075492065
0.37500000000000006,-0.008799999999999145,-0.305,0.008669750654931493,0.9176567961487657,0.030257918357294078,0.045687988553253046
0.37600000000000006,-0.0010999999999994783,-0.305,0.008696316710487432,0.916146576376968,0.03051240696447477,0.04544514735546508
0.37700000000000006,0.003599999999999711,-0.305,0.008669140350408786,0.916146576376968,0.0302520719663004,0.04544514735546508
0.37800000000000006,0.0009999999999997559,0.695,0.008641521557862467,0.916146576376968,0.029987498701657286,0.04544514735546508
0.37900000000000006,-0.0011999999999999223,-1.305,0.008823649010335647,0.9036343858532951,0.03173218231159972,0.0434332048617557
0.37999999999999995,-0.0005,-0.305,0.008838796625605265,0.905165481780674,0.031877288366352834,0.04367940291575837
0.38099999999999995,0.0016,-0.305,0.008806782657123702,0.905165481780674,0.03157061166637965,0.04367940291575837
0.38199999999999995,-0.0064,-0.305,0.008759342929481499,0.903634385853295,0.03111616444190275,0.043433204861755684
0.38299999999999995,-0.0053,0.695,0.00875893588299448,0.9131186435429319,0.031112265154207557,0.04495826004941192
0.38399999999999995,-0.0028,0.695,0.008756980841093494,0.9116009055913153,0.031093536898169915,0.04471420993896999
0.38499999999999995,0.0033,-0.305,0.008876380584873052,0.9070324540734872,0.032237322599747216,0.04397960941304453
0.38599999999999995,0.0073,0.695,0.008909275763777983,0.916481547349315,0.03255244082438723,0.04549901021282399
0.38699999999999996,0.0066,0.695,0.008927759448832251,0.9164815473493151,0.03272950464385875,0.04549901021282401
0.38799999999999996,0.0073,-0.305,0.009017280520443616,0.9164815473493151,0.033587068642387925,0.04549901021282401
0.38899999999999996,0.0069,-2.305,0.009026332506520305,0.9164815473493151,0.033673781828845915,0.04549901021282401
0.38999999999999996,0.0018,0.695,0.008859492725415965,0.9149693877507691,0.032075545936198206,0.04525585709364563
0.39099999999999996,-0.0091,-1.305,0.008942537295382831,0.9149693877507691,0.03287106851200124,0.04525585709364563
0.39199999999999996,-0.0077,-1.305,0.00908183532703535,0.9427940613881081,0.03420546917165568,0.04973002515867319
0.39299999999999996,0.0047,0.695,0.009083606080961567,0.9350933292512782,0.034222432047435025,0.04849175835083901
0.39399999999999996,0.0061,-1.305,0.009088423464262413,0.9365729979670656,0.0342685800035705,0.04872968698214243
0.39499999999999996,0.0076,1.695,0.00893960352318482,0.9486508454809892,0.03284296454305164,0.05067178773578985
0.39599999999999996,0.0039,0.695,0.00862620936080162,0.9501094004074336,0.029840816041347182,0.050906321299706625
0.39699999999999996,0.0003,-0.305,0.008506745051527901,0.9409980440220643,0.028696411836859417,0.049441228112996276
0.39799999999999996,-0.0009,-0.305,0.00857297609410797,0.9317975987112922,0.029330869810600967,0.047961809553410756
0.39899999999999997,-0.0002,0.695,0.008572007197412418,0.9332824926435235,0.029321588298333038,0.0482005783921089
0.39999999999999997,-0.0046,0.695,0.008561932940337353,0.9332824926435243,0.02922508230232565,0.04820057839210903
0.40099999999999997,0.0062,0.695,0.008562868393881958,0.9255026219824918,0.029234043447089787,0.04694958622180283
0.40199999999999997,-0.0014,1.695,0.00855400772645968,0.9269975994614251,0.0291491629910417,0.04718997648051203
0.40299999999999997,-0.0003,0.695,0.00855400772645968,0.9269975994614251,0.0291491629910417,0.04718997648051203
0.40399999999999997,-0.0014,-1.305,0.008781043965687867,0.9347650277934498,0.0313240487650725,0.04843896794195721
0.40499999999999997,-0.0047,-2.305,0.00879674197189532,0.9468659373409031,0.031474427270712396,0.050384777037893846
0.40599999999999997,-0.0072,-0.305,0.008670552292591118,0.9454023784535817,0.030265597617432336,0.05014943884416375
0.407,-0.0046,0.6949999999999444,0.00866466270422647,0.931797598711294,0.03020917851010078,0.04796180955341104
0.408,-0.0068,-0.3049999999999445,0.008666684411597708,0.9240052257350546,0.030228545385696963,0.04670880702854807
0.409,-0.0017,0.6949999999998889,0.008722235464356007,0.9240052257350546,0.030760694767606997,0.04670880702854807
0.41,0.0093,-1.3049999999999444,0.008688803710061954,0.9255026219824918,0.03044043643764959,0.04694958622180283
0.411,0.005,-0.3049999999999445,0.00861064861320335,0.9255026219824918,0.029691752399790165,0.04694958622180283
0.412,0.0141,0.6949999999999444,0.008581704880863496,0.9161465763769708,0.029414486920379037,0.045445147355465544
0.413,-0.0022,-0.3049999999999445,0.00837061292629258,0.9176567961487685,0.027392338867850682,0.0456879885532535
0.414,-0.0087,0.6949999999998889,0.008390543945920736,0.9176567961487685,0.027583267378640704,0.0456879885532535
0.415,0.0095,-1.304999999999889,0.008388671860959318,0.9036343858532979,0.0275653338057265,0.04343320486175615
0.416,0.0074,0.6949999999999444,0.00841591457361271,0.9036343858532979,0.027826304426087772,0.04343320486175615
0.417,-0.0037,-0.305,0.008430427439495963,0.9051654817806769,0.027965329921124188,0.043679402915758836
0.418,-0.0019,0.695,0.008447816478435021,0.8955970050854472,0.0281319076161265,0.042140805431427245
0.419,-0.0,0.695,0.008553547289851212,0.8971418180136295,0.029144752254531076,0.04238920915970817
0.42,-0.0015,1.695,0.008922969038312148,0.8955970050854475,0.03268361507254028,0.04214080543142729
0.421,-0.0,1.695,0.009472463608829793,0.8909464951307053,0.03794747923972657,0.04139301002520632
0.422,0.001,1.695,0.009445490271906151,0.8909464951307053,0.03768908909481933,0.04139301002520632
0.423,-0.0077,-0.305,0.00944890589800931,0.8893909214034684,0.03772180896652977,0.0411428759756964
0.424,-0.0044,-0.305,0.009438664587542552,0.8990254529011574,0.037623702688354514,0.04269209497859662
0.425,-0.0069,-0.305,0.00942303251112018,0.8974838822248303,0.037473955754802606,0.04244421259981645
0.426,0.0015,-0.305,0.00938304833701448,0.8990254529011564,0.037090928746671734,0.04269209497859646
0.427,0.0048,-0.305,0.00950223466671061,0.9085578236157281,0.03823267005544371,0.04422488667243713
0.428,0.0179,0.695,0.009587126570291758,0.9100806365175153,0.03904588909949009,0.04446975282767012
0.429,0.0052,0.695,0.009600873851802529,0.9085578236157272,0.039177580705601144,0.044224886672436986
0.43,0.0038,-0.305,0.009647460645920576,0.9131186435429289,0.039623857282985814,0.04495826004941143
0.431,-0.0005,-0.305,0.009684201842222465,0.9146338629727506,0.03997581829779781,0.04520190518512005
0.432,0.0006,-1.305,0.009715473900296768,0.9161465763769651,0.04027538789277383,0.045445147355464614
0.433,0.0017,-0.305,0.009695735132418663,0.9176567961487628,0.04008630105095101,0.04568798855325259
0.434,-0.015,-1.305,0.009708638878864181,0.9161465763769652,0.04020991204218071,0.04544514735546463
0.435,-0.0081,-1.305,0.009706275977701134,0.9161465763769652,0.040187276712497555,0.04544514735546463
0.436,0.0076,-0.305,0.00970504091130744,0.9161465763769652,0.04017544543684413,0.04544514735546463
0.437,-0.0145,-0.305,0.009705188258768685,0.924005225735049,0.04017685694673519,0.046708807028547156
0.438,0.0123,-0.305,0.009702658861166558,0.9225053989407872,0.04015262667019239,0.04646763700680956
0.439,0.0087,-0.305,0.009725983491811642,0.9225053989407872,0.04037606415993839,0.04646763700680956
0.44,-0.0141,-1.305,0.009764028727045649,0.8940495229053222,0.040740517170441845,0.04189197249121899
0.441,-0.0169,-2.305,0.00976984482273885,0.8924993575888202,0.04079623225727798,0.04164270810648602
0.442,0.0019,0.695,0.009755549041778623,0.89249935758882,0.04065928631972741,0.041642708106486
0.443,0.0147,0.695,0.009726682388353817,0.8843607835708298,0.040382759215107825,0.040334036945028406
0.444,0.0216,1.695,0.009722711833068557,0.9439365503437722,0.04034472341855715,0.049913735762675375
0.445,0.0103,0.695,0.009717987499362282,0.9483272375120491,0.04029946682778344,0.05061975203326583
0.446,0.0046,-0.305,0.009712025364805832,0.9347650277934443,0.040242352766725345,0.04843896794195632
0.447,0.0136,-0.305,0.009760029305261386,0.9424684424234707,0.040702204848265824,0.04967766609089269
0.448,0.0024,0.695,0.0097615213800943,0.9424684424234708,0.04071649812734289,0.049677666090892705
0.449,0.0009,0.695,0.009762388839152002,0.9424684424234708,0.04072480792127959,0.049677666090892705
0.45,-0.0081,0.695,0.009762754326498287,0.9544716921286356,0.040728309094628504,0.05160777162267265
0.451,-0.002,0.695,0.009753347546165763,0.9544716921286357,0.040638197168910435,0.051607771622672674
0.452,-0.0121,-0.305,0.009733743870681051,0.9544716921286356,0.04045040443998154,0.05160777162267265
0.453,-0.0212,-1.305,0.009788629828489024,0.9409980440220613,0.04097618256789811,0.0494412281129958
0.454,-0.0201,1.695,0.009829337920591454,0.9486508454809861,0.04136614432335393,0.05067178773578935
0.455,-0.0191,-0.305,0.009858982155787633,0.9409980440220613,0.04165012024556516,0.0494412281129958
0.456,-0.01,-0.305,0.00989719863728092,0.9709314459541247,0.04201621370366601,0.05425447669760275
0.457,-0.0089,0.695,0.009879612225508816,0.9709314459541247,0.04184774528245967,0.05425447669760275
0.458,-0.0122,-0.305,0.009914317479068006,0.9695042169231605,0.042180203054428635,0.054024980293258536
0.459,-0.0056,0.695,0.009892180773008515,0.9709314459541254,0.04196814524702151,0.05425447669760286
0.46,0.0005,-0.305,0.009890798260803895,0.9695042169231614,0.04195490151933965,0.05402498029325868
0.461,0.0114,-0.305,0.00985408343388182,0.9620173173354779,0.041603193109086396,0.052821097456109085
0.462,0.0009,0.695,0.009870029073877375,0.962017317335478,0.04175594381400489,0.0528210974561091
0.463,-0.0082,-0.305,0.00978942143538425,0.9737796285423763,0.04098376573867695,0.054712460419022654
0.464,-0.0195,-0.305,0.00979496734128936,0.9868057849372815,0.04103689255181541,0.056807047896013936
0.465,-0.0119,-0.305,0.009777844718776199,0.9941060129403353,0.04087286698371858,0.05798091420705853
0.466,0.0084,0.695,0.009748106825257568,0.9868057849372838,0.04058799386485799,0.05680704789601429
0.467,0.0055,-0.305,0.009723041308536698,0.9854015481390881,0.040347879617369235,0.05658124861009589
0.468,0.0134,0.695,0.009769124675966707,0.9854015481390881,0.04078933363626807,0.05658124861009589
0.46900000000000003,0.0254,-0.3050000000000555,0.009796566027582419,0.9854015481390882,0.04105220711167481,0.05658124861009591
0.47000000000000003,0.0319,-1.3049999999999444,0.010026717785001258,0.9839953073892852,0.04325693788408392,0.05635512709160069
0.47100000000000003,0.0098,-0.305,0.01021276513191411,0.9839953073892852,0.045039171986765,0.05635512709160069
0.47200000000000003,-0.005,-0.3050000000000555,0.010834011941613243,1.005493018909088,0.0509903842389142,0.05981192861986744
0.47300000000000003,-0.0075,-1.3049999999999444,0.011026877040690827,0.9927121027031734,0.052837928761836336,0.05775677541751113
0.47400000000000003,-0.0053,-0.3049999999999445,0.01105273814083581,0.9941060129403372,0.05308566427312438,0.05798091420705884
0.47500000000000003,0.0012,0.6949999999998889,0.01112203288930807,0.9941060129403372,0.05374947091112938,0.05798091420705884
0.47600000000000003,0.015,-1.304999999999889,0.011484613751596694,1.006869235395386,0.05722280169747481,0.06003322227936598
0.47700000000000004,0.0132,0.6949999999999444,0.012103545457073404,1.0153896843453314,0.0631518364890747,0.061403298388376854
0.47800000000000004,0.0052,-0.30499999999988897,0.012247530016116287,1.0418624279881465,0.0645311315752117,0.06566007802734453
0.47900000000000004,0.0095,1.6949999999999446,0.012305417143508518,1.0487794938078263,0.0650856593030003,0.06677233240263303
0.48000000000000004,0.0084,0.695,0.012385910720536181,1.0556512371092288,0.06585674473047852,0.06787729898125064
0.48100000000000004,-0.008,0.695,0.012413651888277191,1.0637810340006384,0.06612249028405195,0.06918455879320018
0.48200000000000004,-0.0015,0.695,0.012413567413229121,1.0637810340006384,0.06612168105826081,0.06918455879320018
0.48300000000000004,-0.0073,-0.305,0.012422449767349597,1.0569621471561896,0.06620676926128162,0.06808809145790938
0.48400000000000004,0.0017,0.695,0.012421308753578995,1.0582714333439227,0.06619583895946685,0.06829862282030695
0.48500000000000004,-0.003,-0.305,0.012331736307183127,1.050098982354796,0.06533778281797256,0.06698450428992872
0.48600000000000004,-0.0074,-1.305,0.01230726502678319,1.0431906656810794,0.06510336103669627,0.06587365676490467
0.48700000000000004,-0.0063,-0.305,0.012307385962263623,1.0431906656810794,0.06510451953393383,0.06587365676490467
0.48800000000000004,-0.01,-0.305,0.012303897384804433,1.0514168149945844,0.06507110082724016,0.06719640990969779
0.48900000000000005,-0.0111,0.695,0.012316725619578077,1.0514168149945844,0.0651939884570299,0.06719640990969779
0.49000000000000005,0.0038,-0.305,0.012368152848869145,1.0527329979458866,0.06568663381515948,0.06740805026189756
0.49100000000000005,-0.007399999999999357,-1.305,0.012322071722874358,1.0566717102754606,0.06524520126801156,0.06804138961933254
0.49200000000000005,-0.0015999999999994005,0.695,0.012226010199116096,1.0305794464853364,0.06432498323513804,0.06384579060115073
0.49300000000000005,0.0038000000000001665,-3.305,0.012225465486135815,1.0292349340200442,0.06431976517604857,0.06362959490327309
0.49400000000000005,0.0053000000000001666,1.695,0.012155539617198879,1.0292349340200442,0.06364991274145625,0.06362959490327309
0.49500000000000005,0.0068000000000003995,-0.305,0.011985102698626708,1.0181135021678414,0.062017218195279854,0.06184128443181684
0.49600000000000005,0.010399999999999033,-1.305,0.011970916293525204,1.0167525053746804,0.06188132001997186,0.06162243807739297
0.49700000000000005,0.0016999999999996334,-0.305,0.011987585841657458,1.0292349340200444,0.06204100537776147,0.06362959490327313
0.49800000000000005,-0.0015999999999999224,-0.305,0.011914696757962483,1.0305794464853364,0.06134276693023764,0.06384579060115073
0.49900000000000005,-0.0009000000000000777,1.695,0.011919811340515833,1.0305794464853364,0.061391761896297685,0.06384579060115073
0.5,-0.0015999999999999224,0.695,0.011953067746325999,1.0415677806215016,0.06171034048153944,0.06561269914860295
0.5010000000000001,-0.0008999999999987454,0.695,0.01193496405694464,1.052441393969079,0.061536916817428185,0.06736116075592627
0.502,0.010399999999999833,-0.305,0.011939922787134597,1.0511248458812115,0.061584418801182234,0.06714946169028456
0.5030000000000001,0.008899999999998146,-1.305,0.011903533092907741,1.0511248458812112,0.061235824988298576,0.06714946169028452
0.504,-0.007800000000000233,0.695,0.011799226168115231,1.0428963935787572,0.06023662042238729,0.06582633822813407
0.5050000000000001,-0.009899999999999357,-3.305,0.011689832405883028,1.0319222071594352,0.05918868667376929,0.06406170461348853
0.506,-0.0041000000000006,-0.305,0.011621224022641145,1.0319222071594352,0.0585314550476673,0.06406170461348853
0.5069999999999999,-0.0095,-0.305,0.011675994178054361,1.0319222071594352,0.0590561238505624,0.06406170461348853
0.508,-0.0014,0.695,0.01175810863660591,1.0305794464853366,0.05984273645634341,0.06384579060115077
0.5089999999999999,0.0001,-0.305,0.011740858933667013,1.0566717102754606,0.059677493525718765,0.06804138961933254
0.51,0.0038,0.695,0.011729292787381091,1.0566717102754606,0.05956669602879437,0.06804138961933254
0.5109999999999999,0.0075,-0.305,0.011752742948801544,1.0566717102754606,0.05979133603624626,0.06804138961933254
0.512,0.0064,1.695,0.012044841257309528,1.0566717102754606,0.06258948164485975,0.06804138961933254
0.5129999999999999,0.0039,1.695,0.012453129240812964,1.0553604394640197,0.06650066221254376,0.06783053913225698
0.514,0.0064,-1.305,0.012558077517350422,1.0553604394640195,0.06750601058523664,0.06783053913225694
0.5149999999999999,0.0057,0.695,0.012508374133726359,1.0566717102754588,0.06702987874684531,0.06804138961933226
0.516,-0.0026,-0.305,0.012460666643937083,1.0647937157899094,0.06657286650417364,0.0693473965889151
0.5169999999999999,-0.0102,-0.305,0.01243529262837903,1.0634924593408757,0.06632979700278105,0.06913815639711406
0.518,-0.0076,0.695,0.012431608015795736,1.0647937157899086,0.06629450038441975,0.06934739658891496
0.5189999999999999,-0.0214,-0.305,0.012373492538909393,1.063492459340875,0.06573778519057755,0.06913815639711396
0.52,-0.0195,1.695,0.012110249715193144,1.0634924593408752,0.06321605969705077,0.06913815639711399
0.5209999999999999,-0.0362,2.695,0.011684436178276112,1.063492459340873,0.059136993698693546,0.06913815639711364
0.522,-0.0206,-0.305,0.011658685274313884,1.0647937157899066,0.05889031380791367,0.06934739658891463
0.5229999999999999,-0.0108,0.695,0.011828185722183806,1.0660933839474158,0.06051403746549958,0.06955638138569076
0.524,0.0131,-0.305,0.011952772733502664,1.0579813558882931,0.06170751441643719,0.06825197877677644
0.5249999999999999,0.0294,1.695,0.011956560193786296,1.0579813558882933,0.061743796260774385,0.06825197877677648
0.526,0.0382,-1.305,0.011979166262687012,1.0566717102754557,0.06196035031322904,0.06804138961933176
0.5269999999999999,0.0193,-2.305,0.011888261398629831,1.074144151027078,0.0610895303229919,0.07085093331597692
0.528,0.0215,-1.305,0.011876513507732339,1.0979423112592708,0.0609769918098687,0.0746776437351209
0.5289999999999999,0.015,-1.305,0.012046582002642046,1.099202786097328,0.06260615705435726,0.07488032630170591
0.53,0.0091,-1.305,0.012081515553536917,1.08752373433529,0.06294080179272994,0.07300235133946259
0.5309999999999999,0.0,-0.305,0.01205200534879499,1.0862497073103388,0.06265810981060349,0.07279748960044226
0.532,0.0047,0.695,0.0120911011867566,1.0862497073103388,0.06303262703347318,0.07279748960044226
0.5329999999999999,0.0004,0.695,0.012115740716082887,1.0928858743758385,0.06326866054950009,0.07386457585437778
0.534,0.0014,-0.305,0.012099208785012508,1.0928858743758385,0.06311029348957849,0.07386457585437778
0.5349999999999999,-0.0022,0.695,0.012129488500992505,1.0916181055201786,0.06340035697790293,0.07366072042010528
0.536,-0.0077,-0.305,0.012168202108177668,1.0928858743758385,0.06377121263431557,0.07386457585437778
0.5369999999999999,-0.0142,-1.305,0.012159957826370152,1.0862497073103388,0.06369223682287145,0.07279748960044226
0.538,-0.0136,-0.305,0.012229618544338188,1.0862497073103388,0.06435954925295968,0.07279748960044226
0.5389999999999999,-0.0143,0.695,0.01231340850244882,1.097942311259272,0.06516221224861603,0.07467764373512112
0.54,-0.0092,1.695,0.012353338345577381,1.0966803876894007,0.06554471879503705,0.0744747282145147
0.5409999999999999,-0.007,-0.305,0.012464663437375564,1.0966803876894007,0.06661115364820246,0.0744747282145147
0.542,-0.0016,-0.305,0.012456240336044692,1.0887962705912215,0.06653046484134058,0.07320697336493852
0.5429999999999999,0.0068,0.695,0.012461815027002096,1.0954170103808853,0.06658386739988846,0.07427157893479576
0.544,0.0075,0.695,0.01256922051970901,1.0431906656810777,0.06761275458959502,0.06587365676490439
0.5449999999999999,0.0085,-0.305,0.013127197088993748,1.0569621471561879,0.07295787176958937,0.06808809145790909
0.546,0.0078,1.695,0.013227516855159847,1.065081937885645,0.07391888148781967,0.06939374229320561
0.5469999999999999,0.0034,0.695,0.013186852487165583,1.0569621471561879,0.0735293385859405,0.06808809145790909
0.548,-0.0043,0.695,0.013189983729323278,1.0569621471561879,0.07355933421151538,0.06808809145790909
0.5489999999999999,-0.009,1.695,0.01318957137117722,1.0689751506665506,0.07355538404096676,0.07001976538773381
0.55,-0.0047,1.695,0.01319283976215018,1.082418628950677,0.07358669347885749,0.07218145763274238
0.5509999999999999,-0.004,-0.305,0.01320050164142453,1.082418628950677,0.07366009018544836,0.07218145763274238
0.552,-0.0077,-0.305,0.013204496582148492,1.082418628950677,0.07369835958146276,0.07218145763274238
0.5529999999999999,-0.0142,-0.305,0.01317031194811295,1.0836971599161094,0.07337088906615165,0.07238704359900543
0.554,-0.0121,0.695,0.013182295352169091,1.0757178907692384,0.07348568366940426,0.07110398843492681
0.5549999999999999,-0.0143,-0.305,0.013163425488065527,1.0757178907692384,0.07330492046113296,0.07110398843492681
0.556,-0.0151,-0.305,0.013128224269088237,1.0224858526421539,0.0729677116056546,0.06254435218801957
0.5569999999999999,-0.0165,-0.305,0.013189779447647852,1.0238392280842388,0.07355737730229554,0.06276197303999762
0.558,-0.0104,-2.305,0.013185612050297134,1.032219607861308,0.07351745586401054,0.06410952622463047
0.5589999999999999,0.0019,0.695,0.013195003011484106,1.032219607861308,0.07360741625077281,0.06410952622463047
0.56,0.0074,-0.305,0.013195405615898876,1.0445172143506818,0.07361127298579107,0.06608696390990834
0.5609999999999999,0.0287,-0.305,0.013238476882177089,1.0431906656810777,0.07402387268624606,0.06587365676490439
0.562,0.0316,-0.305,0.013338187535217231,1.0445172143506816,0.07497904742642651,0.06608696390990831
0.563,0.0181,-0.30499999999988897,0.013329376382975214,1.0445172143506816,0.07489464129932921,0.06608696390990831
0.5640000000000001,0.0159,0.6949999999997779,0.013337236077266274,1.0322196078613077,0.07496993296800718,0.06410952622463043
0.565,0.0046,-1.304999999999889,0.013365710235971256,1.0238392280842388,0.07524270018308034,0.06276197303999762
0.5660000000000001,0.0028,-0.30499999999988897,0.01335342131222635,1.0224858526421539,0.07512497886457276,0.06254435218801957
0.567,0.0046,0.6949999999998889,0.013365169701943062,1.0238392280842388,0.07523752215611736,0.06276197303999762
0.5680000000000001,0.006,-0.305,0.013328768249217963,1.0251908169091781,0.07488881570310789,0.06297930660647211
0.569,0.0016,-0.305000000000111,0.01331078512687476,1.0362362940882188,0.07471654700675417,0.06475540367418892
0.5700000000000001,0.0026,-1.304999999999778,0.013151798525413866,1.0375717340485253,0.07319354037594371,0.0649701405261298
0.571,-0.0061,0.695,0.013007058529877115,1.0265406261739891,0.07180700861213232,0.06319635402220142
0.5720000000000001,-0.0206,0.6949999999998889,0.012575440776045445,1.0197737134442115,0.06767234131928597,0.06210824405084957
0.573,-0.0188,-0.305,0.012467650753486253,1.0197737134442115,0.06663977053920522,0.06210824405084957
0.5740000000000001,-0.0061,-0.305,0.012421181734554565,1.026839585529425,0.06619462218513071,0.0632444262626261
0.575,-0.0075,-0.30500000000022204,0.01235285206837368,1.026839585529425,0.06554006051944121,0.0632444262626261
0.5760000000000001,0.003,-2.305,0.0119994233495541,1.014327679888844,0.06215440237381772,0.061232529577713926
0.577,0.0121,-2.305,0.011393151840127388,1.0071740338244632,0.05634664549088645,0.06008223343455227
0.5780000000000001,0.0208,0.695,0.011254446488424759,0.9797644750815355,0.05501792238824207,0.05567481525590612
0.579,0.0132,-0.305,0.011082509518629902,0.9839953073892834,0.05337085815343963,0.056355127091600406
0.5800000000000001,0.0001,-0.305,0.010998849506010948,0.9752006004278854,0.05256943996611084,0.05494095068325041
0.581,-0.0126,0.695,0.010962894343351657,0.9677577709822142,0.05222500873329756,0.05374415426244417
0.5820000000000001,-0.0079,-1.305,0.010971090885911163,0.9808639026480785,0.05230352722827223,0.0558516016495994
0.583,-0.0036,-0.305,0.01096383397917279,0.9882080263266757,0.052234009942034546,0.05703252632302657
0.5840000000000001,0.0087,-0.305,0.011037745409694063,0.9882080263266756,0.05294204192549872,0.05703252632302656
0.585,0.0101,0.695,0.011042871727534011,0.9968879862781403,0.05299114930932945,0.05842825157489247
0.5860000000000001,0.0058,0.695,0.01104076117903497,0.9954979714067267,0.05297093138323285,0.058204739154633686
0.587,-0.0145,-0.305,0.011018924026266304,0.9968879862781405,0.05276174313617871,0.05842825157489249
0.5880000000000001,-0.0175,1.695,0.01094273514179574,0.9896082807895463,0.05203189436164997,0.05725768525507172
0.589,-0.0149,-0.305,0.010880043603966086,0.9982760656734507,0.05143134295082084,0.05865145277333838
0.5900000000000001,-0.0171,-0.305,0.010955040035231888,1.0054930189090863,0.052149768661260545,0.05981192861986716
0.591,-0.0058,-0.305,0.010973572403538832,1.005493018909086,0.052327298840261445,0.05981192861986712
0.5920000000000001,0.004,-1.305,0.01097232210534723,1.005493018909086,0.0523153216521286,0.05981192861986712
0.593,0.0168,-0.305,0.010985802204843822,1.005493018909086,0.052444453797407795,0.05981192861986712
0.5940000000000001,0.0382,-2.305,0.01101696379660517,1.0054930189090863,0.05274296518417278,0.05981192861986716
0.595,0.0176,-1.305,0.01112552039471222,1.0041149162143395,0.05378287934810898,0.059590331660724735
0.5960000000000001,-0.0013,-0.305,0.01120522127212206,1.0167525053746784,0.054546371137110194,0.06162243807739265
0.597,-0.0034,-0.305,0.011222760610599496,1.0054930189090863,0.05471438862132401,0.05981192861986716
0.5980000000000001,-0.0012,1.695,0.011247711848620688,1.0041149162143397,0.054953408139975415,0.05959033166072477
0.599,-0.0031,-2.305,0.011259355611055764,1.0112902020402328,0.055064949158106835,0.060744107446852054
0.6000000000000001,-0.0048,0.695,0.011224060418917508,0.9985834870059784,0.054726840089994476,0.0587008856876802
0.601,-0.0034,0.695,0.011214698489104726,0.9871167785071031,0.05463715780827367,0.056857055221047115
0.6020000000000001,0.0043,0.695,0.011241734353546742,0.9871167785071031,0.05489614693337307,0.056857055221047115
0.603,-0.0106,-0.305,0.011262260369581308,0.9999692128419739,0.05509277519158799,0.05892370843712567
0.6040000000000001,0.0032,0.695,0.011174979816500265,0.9999692128419739,0.05425667416255926,0.05892370843712567
0.605,-0.0022,-0.305,0.01123842191984793,0.9985834870059785,0.054864415589718614,0.05870088568768022
0.6060000000000001,-0.0134,0.695,0.011304335574168586,0.9985834870059785,0.05549583315364459,0.05870088568768022
0.607,-0.0089,-1.305,0.011544769081940836,0.9985834870059785,0.05779905759671962,0.05870088568768022
0.6080000000000001,-0.0052,0.695,0.011501218702713143,1.0112902020402328,0.057381868250393465,0.060744107446852054
0.609,0.001,1.695,0.011454705234948834,0.9839953073892834,0.05693629410026952,0.056355127091600406
0.6100000000000001,0.0113,-0.305,0.011469509791747663,0.9839953073892834,0.057078113838308096,0.056355127091600406
0.611,0.0179,0.695,0.011531147850921701,1.0181135021678398,0.057668573486918416,0.06184128443181659
0.6120000000000001,0.0042,1.695,0.011274854276937458,1.0265406261739891,0.05521341809001455,0.06319635402220142
0.613,0.006,-0.305,0.010840942851320038,1.0278886628893538,0.051056778647902146,0.06341311641449325
0.6140000000000001,0.0108,-0.305,0.010688102918907878,1.029234934020043,0.04959265381991404,0.06362959490327293
0.615,0.0003,-0.305,0.010583079298601143,1.0278886628893555,0.0485865836941983,0.06341311641449354
0.6160000000000001,-0.006199999999999589,0.695,0.010573337078830488,1.019472682030886,0.04849325843802462,0.062059838626454436
0.617,-0.0024999999999993894,0.695,0.010629327367896305,1.0208300522212435,0.04902961546889813,0.0622781018282901
0.6180000000000001,0.002999999999999001,1.695,0.01062985555725639,1.0208300522212441,0.0490346752405414,0.06227810182829021
0.619,-0.0059999999999993114,0.695,0.010613526445307758,1.0208300522212441,0.048878251079357414,0.06227810182829021
0.6200000000000001,0.00019999999999839019,0.695,0.010631298137760476,1.0208300522212437,0.049048494390413235,0.06227810182829013
0.621,-0.014299999999999789,-2.305,0.010629314968831568,1.0208300522212466,0.04902949669248781,0.0622781018282906
0.6220000000000001,-0.01239999999999859,-0.305,0.010629889753084725,1.0194726820308895,0.049035002818292116,0.062059838626455005
0.623,0.0003000000000001665,-1.305,0.010436681773853144,1.0265406261739967,0.047184173686834974,0.06319635402220262
0.6240000000000001,0.0017999999999995225,-0.305,0.01028515799484735,1.0265406261739967,0.04573265690472394,0.06319635402220262
0.625,-0.0024999999999989896,-0.305,0.010267946319963025,1.0348991308697304,0.04556777826252824,0.06454038972477597
0.6260000000000001,0.006600000000000122,0.695,0.010240840957131708,1.0608851581831875,0.04530812338002059,0.06871890606815483
0.627,0.007700000000000134,-0.305,0.010263331205825916,1.0362362940882257,0.045523567936826714,0.06475540367419001
0.6280000000000001,0.008899999999999722,1.695,0.010239638444538615,1.009616040585358,0.04529660395237017,0.06047490465889738
0.629,0.006399999999999523,-0.305,0.010102209153844051,1.0082435733970623,0.043980104831864826,0.060254213881201044
0.6300000000000001,0.002100000000000233,0.695,0.01003978267029495,1.009616040585358,0.04338209249931712,0.06047490465889738
0.631,0.004199999999999245,1.695,0.010081293816617229,1.0181135021678465,0.04377974708480069,0.06184128443181766
0.6320000000000001,-0.0026000000000011322,-1.305,0.01000281517232493,1.0167525053746855,0.04302796363552942,0.061622438077393794
0.633,-0.012799999999998991,0.695,0.009972163162841795,1.0082435733970623,0.04273433377451272,0.060254213881201044
0.6340000000000001,-0.0036999999999996003,-1.305,0.009973594083287152,1.009616040585358,0.04274804122725663,0.06047490465889738
0.635,-9.999999999963363e-05,-0.305,0.009960273741387205,1.0109866445794589,0.042620439474329856,0.06069529583760921
0.6359999999999999,0.0032,0.695,0.009908668971653569,1.009616040585358,0.04212609337369251,0.06047490465889738
0.637,-0.0058,0.695,0.00989617362335016,1.0208300522212466,0.04200639461829105,0.0622781018282906
0.6379999999999999,-0.0069,-1.305,0.009981494136096579,1.0221856199481634,0.04282371950896058,0.06249607519656092
0.639,-0.0192,-1.305,0.009862253050237699,1.009616040585358,0.041681453665427935,0.06047490465889738
0.6399999999999999,-0.0112,1.695,0.00977103888610548,1.0096160405853576,0.04080767074585672,0.0604749046588973
0.641,-0.0068,-0.305,0.009632236934185998,1.0109866445794577,0.03947802226478768,0.06069529583760903
0.6419999999999999,-0.0057,-0.305,0.009697985916044764,1.0109866445794573,0.0401078623545802,0.06069529583760896
0.643,0.0107,0.695,0.009697985916044764,1.0038091889097172,0.0401078623545802,0.05954117114366794
0.6439999999999999,0.0172,-0.305,0.009673066869893656,1.0038091889097172,0.039869151216830996,0.05954117114366794
0.645,0.0158,1.695,0.009048918604362981,0.9763051674354386,0.033890144569243205,0.05511856349177032
0.6459999999999999,0.01,0.695,0.009075157022276384,0.9674405542832689,0.03414149458299841,0.05369314626707241
0.647,0.0082,-0.305,0.009139994602498484,0.976305167435436,0.03476260393244414,0.05511856349176991
0.6479999999999999,-0.0067,-1.305,0.009261741901033514,0.9777224688386327,0.03592887795332585,0.055346463547646635
0.649,-0.001,-0.305,0.009274827320743079,0.9645736539271403,0.03605422927728322,0.05323215275512
0.6499999999999999,0.0008,0.695,0.009272294577105671,0.9373956860273502,0.03602996694751158,0.04886197405565065
0.651,0.0087,-0.305,0.009272294577105671,0.9359173179677299,0.03602996694751158,0.04862425456801455
0.6519999999999999,0.0102,1.695,0.00933927521714891,0.9344366109914208,0.0366716056641356,0.04838615898589151
0.653,-0.0022,-0.305,0.009377022263206119,0.9421427109199398,0.03703320218176906,0.04962528892701769
0.6539999999999999,-0.017,-0.305,0.009441507345851922,0.9421427109199398,0.03765093479291665,0.04962528892701769
0.655,-0.0188,-0.305,0.009456685957147448,0.9406718033558759,0.03779633777302417,0.04938876907648794
0.6559999999999999,-0.0279,-0.305,0.009485197909273825,0.9541500583505463,0.03806946702886593,0.05155605336723803
0.657,-0.0131,1.695,0.009394936268462413,0.9526976895844628,0.03720480877338754,0.051322514529135194
0.6579999999999999,0.0007,-0.305,0.009399589697251302,0.9436113256263677,0.037249386132966016,0.04986144008929087
0.659,0.0061,0.695,0.00942152213594473,0.970615266476897,0.03745948716822936,0.05420363548601236
0.6599999999999999,0.014,2.695,0.009492587477108969,0.9588141370501584,0.038140255137475924,0.05230603060839338
0.661,0.0155,-1.305,0.009565210097281037,0.9588141370501584,0.03883594100693012,0.05230603060839338
0.6619999999999999,0.0064,0.695,0.009429802243944256,0.9924028625658006,0.037538806175436444,0.05770705004192931
0.663,0.0001,0.695,0.009446535110232235,0.9808639026480777,0.037699098087301264,0.05585160164959926
0.6639999999999999,0.0055,-0.305,0.009435102105627655,0.9808639026480777,0.03758957601649239,0.05585160164959926
0.665,-0.001,-0.305,0.009396114564019965,0.9808639026480777,0.03721609621478648,0.05585160164959926
0.6659999999999999,-0.0113,0.695,0.009427880416516668,0.9822746263794029,0.037520396096293956,0.056078444025166305
0.667,-0.0048,0.695,0.00944918042646143,0.9808639026480777,0.037724438802308906,0.05585160164959926
0.6679999999999999,0.0013,-0.305,0.009452312166497126,0.9924028625658007,0.03775443919728881,0.057707050041929324
0.669,-0.0064,-0.305,0.009449453851855596,0.9794511470243117,0.03772705807138266,0.05562443254860899
0.6699999999999999,-0.0017,-1.305,0.009430753310969694,0.9780363507030104,0.03754791688899833,0.055396935306348795
0.671,-0.0062,-0.305,0.009554985251968488,0.9780363507030105,0.03873799245612816,0.055396935306348816
0.6719999999999999,-0.004,-1.305,0.00954478951955327,0.9497862893925232,0.038640322791315775,0.05085436550668589
0.673,-0.0062,-0.305,0.009474928492605145,0.9497862893925232,0.03797109150830483,0.05085436550668589
0.6739999999999999,-0.0012,-1.305,0.009492969831339666,0.9406718033558759,0.03814391788655867,0.04938876907648794
0.675,0.0002,-2.305,0.009492308374168779,0.9406718033558759,0.038137581480547085,0.04938876907648794
0.6759999999999999,0.0074,0.695,0.009546594930079366,0.9421427109199398,0.038657617658790853,0.04962528892701769
0.677,0.0099,-0.305,0.009523843930542236,0.976305167435433,0.03843967524833472,0.05511856349176943
0.6779999999999999,0.0124,-0.305,0.009516376639724754,0.976305167435433,0.03836814259511292,0.05511856349176943
0.679,0.007,0.695,0.009509194497851503,0.9645736539271385,0.03829934151630583,0.053232152755119694
0.6799999999999999,0.0091,-1.305,0.009508522464298967,0.9645736539271385,0.03829290379421331,0.053232152755119694
0.681,-0.0004,-0.305,0.009540903106496336,0.9631370036186822,0.038603093032321054,0.05300114142271429
0.6819999999999999,0.0007,-0.305,0.009536711793883733,0.9497862893925232,0.038562942498614826,0.05085436550668589
0.683,0.0039,0.695,0.009544174189618324,0.9541500583505463,0.03863442825955996,0.05155605336723803
0.6839999999999999,-0.0071,0.695,0.009460486293726473,0.9541500583505463,0.03783274296538618,0.05155605336723803
0.685,0.0005,-0.305,0.00946299728682404,0.9450776581642003,0.037856796936616297,0.050097224282090076
0.6859999999999999,-0.0031,1.695,0.0094931436762854,0.9465417191396831,0.03814558322818276,0.05033264321088455
0.687,-0.0195,0.695,0.00950109423780367,0.9734643741501655,0.038221745356310094,0.054661767959791205
0.688,-0.0083,-0.305,0.009529695280308921,0.9734643741501655,0.038495728050344236,0.054661767959791205
0.6890000000000001,-0.0065,-0.30499999999988897,0.00953265807421924,0.9645736539271385,0.038524110031779635,0.053232152755119694
0.69,-0.0047,0.6949999999998889,0.009360443313976235,0.9645736539271385,0.036874384713020326,0.053232152755119694
0.6910000000000001,-0.0127,-0.30499999999988897,0.009294675483065675,0.9512431033278483,0.03624436405939032,0.051088619121699444
0.692,0.004,0.6949999999998889,0.00932776997762155,0.9526976895844628,0.03656139162139098,0.051322514529135194
0.6930000000000001,0.0153,-0.305,0.009311435801563132,0.9616982071465016,0.036404918948743065,0.05276978499022532
0.694,0.0171,-0.305,0.009279163687435496,0.9602572548635172,0.03609576935151268,0.052538081906416075
0.6950000000000001,0.0189,-0.305000000000111,0.009286678680442563,0.9616982071465016,0.03616775896620404,0.05276978499022532
0.696,0.0109,-1.304999999999778,0.009340515868335734,0.9497862893925231,0.036683490439121,0.05085436550668587
0.6970000000000001,0.0153,0.6949999999998889,0.009381726633996636,0.9497862893925232,0.037078267538484116,0.05085436550668589
0.698,-0.0051,-0.30499999999988897,0.009395058395216,0.9588141370501584,0.03720597868238493,0.05230603060839338
0.6990000000000001,-0.0022,0.6949999999998889,0.009384016839262413,0.9497862893925231,0.03710020648034239,0.05085436550668587
0.7,-0.0048,-0.305,0.00939600146792514,0.9497862893925231,0.03721501281467129,0.05085436550668587
0.7010000000000001,-0.0117,-0.305000000000111,0.009418361565954613,0.948327237512052,0.03742921059770168,0.05061975203326629
0.702,-0.0095,-1.304999999999889,0.009391254147507445,0.9483272375120521,0.03716953602349332,0.05061975203326631
0.7030000000000001,-0.0153,-0.305,0.009341967566972378,0.9347650277934473,0.036697396935827215,0.048438967941956804
0.704,-0.0063,-0.305,0.009447704070911934,0.9362452153663922,0.037710296105561786,0.04867698000475539
0.7050000000000001,-0.0077,1.695,0.009373440047192092,0.9362452153663922,0.036998886467789226,0.04867698000475539
0.706,0.0028,-0.305,0.009237643973477887,0.9377230664792457,0.03569803269266382,0.048914616368084446
0.7070000000000001,0.0093,-0.305,0.009122371867024054,0.9468659373409004,0.034593787549592046,0.050384777037893416
0.708,0.0082,-2.305,0.00914664855441664,0.9332824926435224,0.03482634523390808,0.04820057839210872
0.7090000000000001,0.0116,0.695,0.00915289008644705,0.9332824926435224,0.034886135773371046,0.04820057839210872
0.71,0.0163,-0.305,0.009132754713241627,0.9332824926435224,0.03469324966458001,0.04820057839210872
0.7110000000000001,0.008,2.695,0.009079867118883856,0.8959396590968463,0.034186614789978254,0.042195903710571046
0.712,0.007,0.695,0.008969044397397473,0.887832622155848,0.03312499237577916,0.04089230366637366
0.7130000000000001,-0.0039,-0.305,0.0089517584863516,0.887832622155848,0.032959402590850395,0.04089230366637366
0.714,0.0066,-0.305,0.008970133246272115,0.887832622155848,0.033135422965783555,0.04089230366637366
0.7150000000000001,0.0077,0.695,0.008953125589558264,0.887832622155848,0.03297249870857113,0.04089230366637366
0.716,0.0088,-0.305,0.00895411368944882,0.8893909214034661,0.03298196417717913,0.041142875975696026
0.7170000000000001,-0.0035,1.695,0.008886118721510586,0.887832622155848,0.03233060874168887,0.04089230366637366
0.718,-0.002,-0.305,0.008903670689306673,0.887832622155848,0.032498747208022385,0.04089230366637366
0.7190000000000001,-0.0005,-0.305,0.008913235555080737,0.8893909214034661,0.03259037350774107,0.041142875975696026
0.72,-0.0154,0.695,0.008899782051817533,0.9036343858532954,0.032461496140156545,0.04343320486175574
0.7210000000000001,-0.0136,-0.305,0.008932004668185578,0.9036343858532951,0.03277017157531682,0.0434332048617557
0.722,-0.0045,-0.305,0.008935592015811424,0.9036343858532953,0.03280453644739398,0.04343320486175572
0.7230000000000001,-0.0059,-0.305,0.008926828403240385,0.9036343858532951,0.032720585724924894,0.0434332048617557
0.724,-0.0015,-0.305,0.008946593334197658,0.913118643542932,0.03290992319505657,0.04495826004941193
0.7250000000000001,-0.0105,0.695,0.008961290642980502,0.905165481780674,0.03305071555444823,0.04367940291575837
0.726,0.0008,2.695,0.008969060654503494,0.8843607835708329,0.03312514811016205,0.040334036945028906
0.7270000000000001,-0.0068,-0.305,0.009024304749880942,0.8843607835708329,0.03365435700449568,0.040334036945028906
0.728,0.0081,0.695,0.00904079663708906,0.8986839754549834,0.03381234046562854,0.04263718588947261
0.7290000000000001,0.0063,-0.305,0.009061121975102088,0.8986839754549834,0.03400704633570099,0.04263718588947261
0.73,0.0081,-0.305,0.00914999848303373,0.8971418180136268,0.03485843575883087,0.04238920915970774
0.7310000000000001,-0.0032,-0.305,0.009130646213380118,0.8890457433958903,0.03467305136333555,0.04108737184154607
0.732,-0.0046,1.695,0.009133323295224167,0.8906019200300036,0.034698696375948204,0.04133760283762678
0.7330000000000001,0.0019,0.695,0.009156411194391355,0.8906019200300036,0.03491986610471784,0.04133760283762678
0.734,-0.0043,-0.305,0.009148520655708764,0.8890457433958903,0.03484427896326171,0.04108737184154607
0.7350000000000001,-0.0076,0.695,0.00912130420695858,0.887486838065542,0.034583559937049695,0.040836702074980115
0.736,-0.0051,-2.305,0.009146757059254785,0.887486838065542,0.03482738465223926,0.040836702074980115
0.7370000000000001,-0.0094,0.695,0.009158528872245079,0.8827936052142878,0.03494015232622019,0.0400820368875818
0.738,-0.0073,-0.305,0.0093155298450871,0.8827936052142878,0.03644413769659059,0.0400820368875818
0.7390000000000001,-0.0065,-1.305,0.009877331474571245,0.8827936052142878,0.04182589690801032,0.0400820368875818
0.74,-0.0014,-0.305,0.010495114866772738,0.8971418180136272,0.04774393147244432,0.042389209159707814
0.7410000000000001,-0.01039999999999899,0.695,0.010682523584431777,0.9051654817806754,0.04953920677893994,0.043679402915758586
0.742,-0.0012999999999990341,-1.305,0.010608512049688488,0.9051654817806758,0.04883021585055524,0.043679402915758656
0.7430000000000001,0.007400000000001133,-0.305,0.01061053394640637,0.9051654817806765,0.04884958453999103,0.04367940291575877
0.744,0.017600000000000122,0.695,0.010522634911697285,0.9051654817806765,0.048007558787671864,0.04367940291575877
0.7450000000000001,0.0186999999999994,0.695,0.010786004417563918,0.9191645345795277,0.05053049782846155,0.04593043075492106
0.746,0.013299999999999588,0.695,0.01094023087250259,0.9206698038599815,0.0520079048008709,0.046172475920720796
0.7470000000000001,0.00959999999999839,-1.305,0.011038813876119534,0.9112641405489195,0.05295227726253869,0.04466005859769124
0.748,-0.004899999999998923,-0.305,0.011219308607790416,0.9191645345795313,0.0546813202802217,0.045930430754921626
0.7490000000000001,0.004800000000000189,-0.305,0.011249276669584125,0.9483272375120583,0.054968398288085044,0.05061975203326731
0.75,0.006499999999999833,-0.305,0.01125375751570661,0.9559213655869909,0.05501132239800047,0.051840877059114776
0.7510000000000001,0.004999999999999834,-0.305,0.011257825491053327,0.9559213655869909,0.05505029142664875,0.051840877059114776
0.752,0.003499999999998024,-0.305,0.011204934659417836,0.957368843913606,0.05454362554065743,0.052073629521485795
0.7530000000000001,-0.014299999999999768,0.695,0.01116496174466422,0.9573688439136075,0.05416070639109907,0.052073629521486045
0.754,-0.012199999999999756,-0.305,0.01116359938835619,0.9854015481390934,0.05414765574612906,0.056581248610096745
0.7550000000000001,-0.010000000000001532,0.695,0.011422083417487688,0.9868057849372893,0.0566237945320928,0.056807047896015185
0.756,-0.023799999999998992,-1.305,0.011506197677641692,0.9868057849372893,0.057429564167918216,0.056807047896015185
0.7570000000000001,-0.014699999999998756,-0.305,0.011818985651467759,0.9996622176551714,0.06042590570737837,0.05887434404641217
0.758,-0.0034999999999995117,-0.305,0.012123225465808499,1.0123553929469684,0.06334036044972638,0.06091538863419647
0.7590000000000001,0.0009000000000010102,0.695,0.012250729979758679,1.0123553929469684,0.06456178551586415,0.06091538863419647
0.76,0.009999999999999601,-0.305,0.012208429503575665,1.0442233160825163,0.06415656957237462,0.06603970548514003
0.7610000000000001,0.006399999999999645,0.695,0.012120947241926132,1.0442233160825163,0.06331853628311465,0.06603970548514003
0.762,0.0032000000000002777,0.695,0.012117733258415147,1.0109866445794589,0.0632877480396176,0.06069529583760921
0.7629999999999999,0.0057,0.695,0.012110875783836406,1.009616040585358,0.06322205709989018,0.06047490465889738
0.764,-0.0005,-0.305,0.012244377221372164,1.010986644579458,0.06450092948738317,0.06069529583760906
0.7649999999999999,0.0016,0.695,0.012582872453384,1.0109866445794584,0.06774353281442241,0.06069529583760913
0.766,0.0023,-0.305,0.012941758265110927,1.0181135021678431,0.0711814669921547,0.06184128443181713
0.7669999999999999,0.0073,0.695,0.013204069419846079,1.0194726820308855,0.07369426759501213,0.06205983862645437
0.768,0.0043,0.695,0.013229106400008076,1.006869235395387,0.07393410847752557,0.06003322227936612
0.7689999999999999,-0.0041,1.695,0.013235511399321257,1.0068692353953874,0.07399546494615045,0.060033222279366194
0.77,-0.0078,-1.305,0.013252682284594919,1.0153896843453298,0.07415995284568647,0.061403298388376604
0.7709999999999999,-0.0067,-0.305,0.0132289893681272,1.0153896843453298,0.0739329873746845,0.061403298388376604
0.772,-0.0002,-1.305,0.01317987683642295,1.0167525053746769,0.07346251558175255,0.0616224380773924
0.7729999999999999,-0.0086,-1.305,0.013233985351371172,1.0431906656810686,0.07398084622277654,0.06587365676490292
0.774,-0.0053,0.695,0.01326886652695628,1.0445172143506725,0.07431498923368712,0.06608696390990684
0.7749999999999999,0.0037,-1.305,0.013285784490953275,1.045842080424031,0.07447705428263135,0.06630000049582045
0.776,0.0124,0.695,0.013246440979155108,1.0445172143506714,0.07410016447684029,0.06608696390990666
0.7769999999999999,0.0113,1.695,0.013259487409123031,1.0126585401078338,0.07422514229992079,0.060964134267795844
0.778,0.0138,-0.305,0.013312311493745232,1.0126585401078338,0.07473116878521488,0.060964134267795844
0.7789999999999999,0.0145,-0.305,0.013287554196113738,1.0112902020402217,0.07449400711179556,0.06074410744685027
0.78,0.0069,0.695,0.013286614897214314,1.0197737134442006,0.07448500913058839,0.06210824405084782
0.7809999999999999,0.0022,0.695,0.013283073897390243,1.0281872302849275,0.07445108824566977,0.06346112562832791
0.782,0.0065,-0.305,0.01329359378974675,1.029533110993409,0.07455186318938925,0.06367754133777018
0.7829999999999999,0.001,-0.305,0.013335966323233119,1.0170543419160107,0.0749577694033154,0.06167097296522958
0.784,0.0003,-0.305,0.013398165476897702,1.028187230284926,0.07555360403712422,0.06346112562832766
0.7849999999999999,0.0068,-0.305,0.013495619747291712,1.0295331109934083,0.07648716383805738,0.06367754133777007
0.786,-0.0056,-1.305,0.013542291058921225,1.054338697145956,0.07693425004800986,0.06766624441636018
0.7869999999999999,-0.0259,0.695,0.01354148887566536,1.028187230284926,0.07692656556135133,0.06346112562832766
0.788,-0.0339,-0.305,0.013536194639591236,1.0268395855294097,0.07687584961062417,0.06324442626262364
0.7889999999999999,-0.0361,1.695,0.013604835931455343,1.0268395855294097,0.07753339648373063,0.06324442626262364
0.79,-0.0205,-1.305,0.013595856472886012,1.0268395855294097,0.07744737807201219,0.06324442626262364
0.7909999999999999,0.0016,-0.305,0.013631609826307067,1.053024521171589,0.07778987608023191,0.06745492678320565
0.792,0.0045,0.695,0.01361606180090887,1.0517087030532153,0.07764093431054894,0.06724334509562345
0.7929999999999999,0.007,-0.305,0.013619380605899274,1.043484854796012,0.0776727266877701,0.06592096195742071
0.794,0.0292,1.695,0.013607023270264047,1.055651237109212,0.07755435001993352,0.06787729898124792
0.7949999999999999,0.0263,0.695,0.013499498156741457,1.054338697145956,0.07652431692677485,0.06766624441636018
0.796,0.0183,-0.305,0.013393547432678047,1.053024521171589,0.07550936564279866,0.06745492678320565
0.7969999999999999,0.0252,-1.305,0.013346060059438556,1.0517087030532153,0.07505446199897615,0.06724334509562345
0.798,0.0096,-2.305,0.013326767864175556,1.0434848547960118,0.07486965308402072,0.06592096195742068
0.7989999999999999,0.0038,-1.305,0.013381594040403073,1.0434848547960118,0.07539485853636212,0.06592096195742068
0.8,0.0056,-0.305,0.013414311389853401,1.0434848547960118,0.07570827324991362,0.06592096195742068
0.8009999999999999,0.0041,0.695,0.01339913214822133,1.0434848547960118,0.07556286423151906,0.06592096195742068
0.802,-0.0003,-1.305,0.013392058420131607,1.055651237109212,0.07549510169878859,0.06787729898124792
0.8029999999999999,-0.0152,-2.305,0.013388264183619682,1.055651237109212,0.07545875494180763,0.06787729898124792
0.804,-0.024999999999997982,0.695,0.013333555950724678,1.054338697145956,0.07493467932352664,0.06766624441636018
0.8049999999999999,-0.0159,1.695,0.013411264588039179,1.055651237109212,0.0756790865176784,0.06787729898124792
0.806,-0.02720000000000031,1.695,0.013526811221777197,1.054338697145956,0.07678596148534111,0.06766624441636018
0.8069999999999999,-0.0286,1.695,0.013486725135591194,1.046135523921356,0.07640195821397401,0.06634718579408247
0.808,-0.019499999999996936,-2.305,0.01359364088312886,1.046135523921356,0.07742615390682916,0.06634718579408247
0.8089999999999999,-0.0057,2.695,0.013601018362382486,1.054338697145956,0.07749682621329206,0.06766624441636018
0.81,-0.007399999999996692,-0.305,0.013615463630151987,1.0530245211715892,0.07763520415454386,0.0674549267832057
0.8109999999999999,0.0075,-0.305,0.013584704552341563,1.0530245211715892,0.07734054863620189,0.0674549267832057
0.812,0.00570000000000282,-0.305,0.013571447803195852,1.0517087030532155,0.07721355606785722,0.06724334509562349
0.813,0.0184,0.6949999999998889,0.013590213408694719,1.0517087030532153,0.07739332053444328,0.06724334509562345
0.8140000000000001,0.029700000000000334,-0.305000000000111,0.013581488350280417,1.0503912366195267,0.07730973914018058,0.06703149836127595
0.815,0.0312,-1.304999999999778,0.013582401011254172,1.0503912366195267,0.07731848194430328,0.06703149836127595
0.8160000000000001,0.027599999999995826,0.6949999999998889,0.01358151800233372,1.0490721156604634,0.07731002319099606,0.06681938558159435
0.817,0.0088,-0.305,0.013610903304932014,1.0490721156604634,0.0775915186773725,0.06681938558159435
0.8180000000000001,-0.004600000000000488,-0.305000000000111,0.013596520501217084,1.0490721156604634,0.07745373910836355,0.06681938558159435
0.819,-0.0068,-1.304999999999778,0.013592393134534466,1.0490721156604634,0.07741420114247427,0.06681938558159435
0.8200000000000001,-0.013199999999998713,0.695,0.013587202124854406,1.0368285353108126,0.07736447404540642,0.06485063522297395
0.821,-0.0074,0.6949999999996669,0.013597278142311738,1.029831201632734,0.07746099690493465,0.0637254738898761
0.8220000000000001,-0.012799999999999668,-2.304999999999667,0.013624308791126147,1.029831201632734,0.07771993606711039,0.0637254738898761
0.823,-0.0113,0.695,0.013659211464151213,1.0227859972046334,0.07805428501200096,0.06259261500805623
0.8240000000000001,-0.006899999999997979,0.6949999999998889,0.01365984177355319,1.015691925880792,0.07806032303904127,0.06145189839869531
0.825,0.0022,-0.30499999999988897,0.01366062649334672,1.015691925880792,0.07806784023506844,0.06145189839869531
0.8260000000000001,0.005900000000001709,0.6949999999998889,0.01368809728167235,1.0085479564804976,0.07833099569841621,0.06030315824939709
0.827,0.0136,-0.305,0.013724333361905733,1.015691925880792,0.07867811797138079,0.06145189839869531
0.8279999999999998,0.0006,-0.305000000000111,0.013750301140617718,1.029831201632734,0.07892687540629899,0.0637254738898761
0.829,0.0061,-1.305,0.013819315195025859,1.0381632134426375,0.07958799314525869,0.06506524957397529
0.8299999999999998,0.0075,-1.304999999999778,0.01376789303917694,1.0381632134426375,0.07909539638799208,0.06506524957397529
0.831,-0.0062,0.6949999999998889,0.013750538333936961,1.0381632134426375,0.0789291475914685,0.06506524957397529
0.8319999999999999,-0.0116,-0.30499999999977795,0.013749814607972493,1.0490721156604634,0.07892221468370995,0.06681938558159435
0.833,0.013,1.695,0.013741489800075514,1.0490721156604634,0.07884246747538662,0.06681938558159435
0.8339999999999999,0.0167,0.695,0.013741352947864957,1.0490721156604634,0.07884115650438525,0.06681938558159435
0.835,0.0135,-2.305,0.013746730447432423,1.0503912366195267,0.07889267007485706,0.06703149836127595
0.8359999999999999,0.0048,-0.305,0.013733336943556123,1.0824186289506625,0.07876436746931703,0.07218145763274006
0.837,-0.0086,-0.305,0.013722487678272785,1.0824186289506625,0.07866043730907639,0.07218145763274006
0.8379999999999999,-0.0155,-0.305,0.013509087971524947,1.0890781404829852,0.07661618222466342,0.07325229764383787
0.839,-0.0042,-1.305,0.013223330730146799,1.0903488626071265,0.07387878064854332,0.07345662795949437
0.8399999999999999,-0.01,-2.305,0.012731063814025795,1.086532237835731,0.06916312681047242,0.07284292010829227
0.841,-0.0081,-0.305,0.012569072400848076,1.086532237835731,0.06761133569010741,0.07284292010829227
0.8419999999999999,-0.0033,-0.305,0.012582508690598015,1.0865322378357307,0.06774004816143904,0.07284292010829223
0.843,-0.0047,1.695,0.012575841506477618,1.0852570468536673,0.06767618010255297,0.07263787120661876
0.8439999999999999,0.0044,-0.305,0.012558490537363519,1.0865322378357307,0.06750996709611758,0.07284292010829223
0.845,0.0081,-0.305,0.012214078468365846,1.106038765128555,0.0642106836345258,0.07597954203639366
0.8459999999999999,0.0071,-0.305,0.011928817094687504,1.1047860896374107,0.06147803220582611,0.07577811359373261
0.847,0.0064,-0.305,0.011787360291491737,1.1047860896374107,0.06012295166909675,0.07577811359373261
0.8479999999999999,0.013,-0.305,0.011557647683242923,1.1047860896374107,0.057922427710920515,0.07577811359373261
0.849,0.0105,-0.305,0.01153481087931485,1.0798570257575195,0.05770366334027932,0.0717695554716792
0.8499999999999999,0.0014,-0.305,0.011532692583014674,1.0718491695143744,0.05768337119439065,0.07048190354305667
0.851,0.0025,1.695,0.01152126903886509,1.0718491695143744,0.05757393974968208,0.07048190354305667
0.8519999999999999,0.0015,-0.305,0.011580838717851257,1.078573942744353,0.05814458542206912,0.07156323754259537
0.853,-0.0076,-0.305,0.011585918415596492,1.078573942744353,0.05819324621032057,0.07156323754259537
0.8539999999999999,-0.0189,0.695,0.01149880858324886,1.0543386971459563,0.05735878059463241,0.06766624441636022
0.855,-0.0203,-0.305,0.011299215198461584,1.061174441869892,0.055446782692270186,0.06876542247476777
0.8559999999999999,-0.0214,-0.305,0.011325882495907472,1.050391236619527,0.055702241142621886,0.06703149836127599
0.857,-0.0225,-0.305,0.011149292427308532,1.050391236619527,0.05401060270931896,0.06703149836127599
0.8579999999999999,-0.0057,-1.305,0.010794319988084672,1.0394961778940417,0.05061015654765995,0.06527958836759501
0.859,0.0063,-0.305,0.010621534062309413,1.0394961778940417,0.048954959768507625,0.06527958836759501
0.8599999999999999,0.0041,-0.305,0.010662718045730268,1.0061033572769686,0.04934948030833173,0.05991007016395254
0.861,0.0023,-0.305,0.010990529854591634,1.0074787400410816,0.05248974215408632,0.06013122976210595
0.8619999999999999,0.0078,0.695,0.011486825135938397,1.0074787400410816,0.05724398557702653,0.06013122976210595
0.863,0.003,-0.305,0.011535481176300051,1.0088522477278539,0.05771008442698533,0.06035208785048186
0.8639999999999999,0.0016,-0.305,0.0113904807038085,1.0088522477278545,0.05632105743322572,0.06035208785048197
0.865,0.0005,-0.305,0.011007852534008817,1.017356088906321,0.05265568416035194,0.06171949345338913
0.8659999999999999,0.0092,-0.305,0.010581438841876541,1.0088522477278572,0.048570868995939646,0.0603520878504824
0.867,0.0038,0.695,0.010259451742854291,1.0074787400410856,0.045486404755933005,0.060131229762106594
0.8679999999999999,-0.0028,0.695,0.010228505407408987,1.0074787400410856,0.04518995540957675,0.060131229762106594
0.869,0.0015,-0.305,0.01025667389956765,1.0341540114572958,0.045459794502578116,0.06442057557984839
0.8699999999999999,-0.0094,0.695,0.01032381143267685,1.025789435276071,0.04610293617088228,0.06307556359101756
0.871,-0.0109,-0.305,0.01039590382750297,1.024438636236072,0.0467935427650373,0.06285835702084153
0.8719999999999999,-0.0098,0.695,0.010505982330131001,1.0354921368721275,0.04784803596051211,0.06463574424906891
0.873,-0.0087,0.695,0.010736878275502081,1.0088522477278705,0.050059895655581485,0.060352087850484536
0.8739999999999999,-0.0055,0.695,0.010758462937102834,1.007478740041098,0.05026666517225571,0.06013122976210859
0.875,0.0094,0.695,0.010738181967333981,1.0074787400410987,0.050072384326238464,0.0601312297621087
0.8759999999999999,0.0159,-1.305,0.010751179981740118,1.0200746560209975,0.05019689835412518,0.0621566351904551
0.877,0.0141,-2.305,0.010745217748983711,1.02713845786963,0.050139783352364006,0.06329248451112506
0.8779999999999999,0.0195,-1.305,0.010778313296915427,1.02713845786963,0.050456821005141976,0.06329248451112506
0.879,0.0083,-0.305,0.010811120198664854,1.0284857110070023,0.05077109358183464,0.06350912090518683
0.8799999999999999,0.0006,0.695,0.010795412780739234,1.0200746560209977,0.05062062491696722,0.06215663519045513
0.881,0.0017,1.695,0.010848919188769747,1.0115936684099702,0.05113318769567008,0.0607929044087854
0.8819999999999999,-0.0045,-0.305,0.010834635915751116,1.011593668409971,0.05099636157751194,0.06079290440878551
0.883,0.0008,-0.305,0.01081149887908087,1.0241389760128745,0.05077472113773716,0.06281017208187463
0.8839999999999999,-0.0039,0.695,0.01075576211573271,1.0115936684099718,0.050240792747676934,0.06079290440878565
0.885,-0.0032,2.695,0.010632754589471962,1.0187162793170572,0.049062446419034934,0.061938210142662584
0.8859999999999999,-0.0011,-1.305,0.010561363819735709,0.9916258114667771,0.04837856101807728,0.057582101327077896
0.887,-0.0094,-1.305,0.010557324396564033,0.9916258114667771,0.04833986550399885,0.057582101327077896
0.8879999999999999,-0.0196,0.695,0.01052521221332577,1.0002761138087655,0.04803224795917256,0.058973057677395
0.889,-0.0048,-1.305,0.010432976538556876,1.0016594980167375,0.04714867951391048,0.059195503896374756
0.8899999999999999,-0.003,-1.305,0.010440033107979594,0.993021246539026,0.047216277675785887,0.057806485307945056
0.891,0.006,-0.305,0.010458739957837564,0.9740947809061975,0.04739547929474919,0.054763136472233735
0.8919999999999999,-0.002,-0.305,0.010605830474128781,0.9755152937291505,0.0488045277905494,0.05499155291985343
0.893,0.0024,0.695,0.010610621705412594,0.976933741054248,0.04885042522434534,0.055219637238346886
0.8939999999999999,0.0013,2.695,0.010602348297244565,0.9652098674896931,0.048771170397941564,0.053334454993816914
0.895,-0.0023,-0.305,0.010600005007203412,0.9666434370595226,0.048748722932319966,0.05356497094781967
0.8959999999999999,0.0009,-0.305,0.010646416848669047,0.9666434370595229,0.04919332355684286,0.05356497094781972
0.897,0.01,-1.305,0.010623562550186061,0.9755152937291486,0.04897439159772006,0.05499155291985312
0.8979999999999999,0.0063,-0.305,0.010672159655647198,0.9755152937291477,0.04943992588284479,0.054991552919852985
0.899,0.0031,-0.305,0.010597456249410761,0.9885185787434757,0.048724307195503976,0.057082462711279446
0.8999999999999999,0.0023,-0.305,0.010544940977450906,1.0013530210383197,0.048221238970391,0.0591462228328347
0.901,0.0124,-1.305,0.010549246918707348,1.0013530210383188,0.04826248758521252,0.05914622283283456
0.9019999999999999,0.0034,-1.305,0.010548359511141607,1.001353021038317,0.048253986695235396,0.05914622283283427
0.903,-0.0054,0.695,0.010551058498884245,1.0027349195342408,0.04827984155464332,0.059368430151423436
0.9039999999999999,-0.013,-1.305,0.010563727881037923,1.0027349195342399,0.04840120746127332,0.05936843015142329
0.905,-0.0177,0.695,0.010448528668846066,1.0140250317246182,0.04729766060625423,0.06118386418206661
0.9059999999999999,-0.0185,1.695,0.010269324587745252,1.0153896843453205,0.04558098133091309,0.061403298388375105
0.907,-0.0061,0.695,0.01005797572073263,1.01538968434532,0.04355637219456597,0.061403298388375036
0.9079999999999999,0.0029,-2.305,0.009841130230066351,1.0167525053746678,0.04147910834269775,0.061622438077390936
0.909,0.0109,-0.305,0.009825001371174364,1.0167525053746647,0.04132460249871979,0.061622438077390436
0.9099999999999999,0.0276,0.695,0.009804973359140358,1.0181135021678258,0.0411327448525442,0.06184128443181434
0.911,0.0342,-0.305,0.009905021942531497,1.0194726820308688,0.0420911567847936,0.06205983862645169
0.9119999999999999,0.012,0.695,0.009904157586915988,1.020830052221226,0.042082876720173676,0.06227810182828728
0.913,-0.0028,0.695,0.009873224286037787,1.0208300522212261,0.0417865522380006,0.062278101828287316
0.9139999999999999,0.0052,-1.305,0.009869008868511442,1.0332632228718617,0.04174617079210979,0.06427733803846382
0.915,0.0074,-0.305,0.009867646494706726,1.034602500407922,0.04173311997953087,0.06449269196714418
0.9159999999999999,0.0096,-0.305,0.009868046922464143,1.034602500407922,0.04173695586333556,0.06449269196714418
0.917,0.0038,-0.305,0.009845775481646932,1.0359400465090158,0.04152360736899304,0.06470776748353714
0.9179999999999999,-0.0089,-2.305,0.009839650546101369,1.034602500407922,0.04146493376151,0.06449269196714418
0.919,-0.0136,-0.305,0.00983624789538343,1.0332632228718617,0.041432338187051936,0.06427733803846382
0.9199999999999999,-0.018,-0.305,0.009925365062285765,1.034602500407922,0.04228603299443912,0.06449269196714418
0.921,-0.0169,1.695,0.00989074814228954,1.0332632228718617,0.04195442141077083,0.06427733803846382
0.9219999999999999,-0.0256,-0.305,0.010017830759567732,1.034602500407922,0.04317180493238188,0.06449269196714418
0.923,-0.0132,-0.305,0.010015902066969496,1.0455485545688934,0.04315332908857544,0.06625280195453895
0.9239999999999999,-0.0019,0.695,0.010008522324006917,1.052441393969064,0.043082635096991194,0.06736116075592384
0.925,0.0057,1.695,0.010013205019323984,1.052441393969064,0.04312749281426061,0.06736116075592384
0.9259999999999999,0.0047,-1.305,0.009977619278999952,1.0511248458811964,0.042786600449886546,0.06714946169028213
0.927,0.016,-0.305,0.009880620548400922,1.0511248458811964,0.04185740447660914,0.06714946169028213
0.9279999999999999,0.0084,0.695,0.009819698271288126,1.0248913766103822,0.04127380163741213,0.06293115703103712
0.929,0.001900000000002487,-0.305,0.009699593491027787,1.016450579202502,0.040123262063336614,0.06157388877704309
0.9299999999999999,0.0131,-0.305,0.009668770635858784,1.0289366706375362,0.03982799559200161,0.06358163457430833
0.931,0.002600000000001443,0.695,0.009685109774478456,1.0289366706375362,0.039984515803332836,0.06358163457430833
0.9319999999999999,0.0091,1.695,0.009773907599318446,1.016450579202502,0.04083515148451705,0.06157388877704309
0.933,-0.007099999999997514,-0.305,0.009844178264579827,1.0178119797250766,0.041508306883532686,0.061792800050584185
0.9339999999999999,0.0041,-1.305,0.009844600950794848,1.0178119797250766,0.04151235599145947,0.061792800050584185
0.935,-0.0056999999999996,-0.305,0.009949839703831438,1.0178119797250766,0.04252048697369433,0.061792800050584185
0.9359999999999999,-0.0039,-0.305,0.009990477426335822,0.9965800419239301,0.042909774626027956,0.05837873455940575
0.937,-0.002400000000000977,-1.305,0.009991102709275758,0.9892980704432097,0.042915764502249626,0.0572078038712643
0.938,-0.0068,0.6949999999998889,0.009987434882033639,0.9805509259051443,0.04288062867848156,0.05580127543314187
0.9390000000000001,-0.005700000000001355,-0.305000000000111,0.009799724489696232,0.9878973762855533,0.04108246348987461,0.05698257423692109
0.94,-0.0118,-1.304999999999778,0.009821125683547097,0.9805509259051443,0.041287475483606326,0.05580127543314187
0.9410000000000001,-0.019399999999996715,0.695,0.009839097616427319,0.973149017630389,0.04145963699088775,0.054611059078592004
0.942,-0.0046,0.695,0.009825244301738714,0.9745709089777762,0.04132692964362969,0.054839697190985956
0.9430000000000001,0.0020000000000004,0.695,0.009866653257547155,1.0021225296360787,0.04172360529863264,0.05926995872417819
0.944,0.0038,0.6949999999998889,0.009943031803111126,1.0007397855054208,0.04245527092502318,0.05904761542872288
0.9450000000000001,0.012799999999997492,-0.305000000000111,0.009948429695348215,0.9660081676472008,0.042506979846365894,0.05346282052714106
0.946,0.0015,-1.304999999999889,0.009948856163709153,0.9660081676472009,0.042511065185228236,0.05346282052714108
0.9470000000000001,0.011999999999998068,-0.30499999999977795,0.009954709092050122,0.967440554283249,0.04256713310913531,0.05369314626706921
0.948,0.0033,1.695,0.010042766003654868,0.9599375595805363,0.043410671237697096,0.05248667535824605
0.9490000000000001,-0.0002999999999992006,1.694999999999778,0.010051055443626836,0.9599375595805363,0.0434900796402103,0.05248667535824605
0.95,0.0033,-0.30499999999977795,0.010046213042468685,0.9613789910353843,0.04344369202637906,0.052718455492211484
0.9510000000000001,0.002100000000000155,1.694999999999889,0.010045208492173599,0.9613789910353844,0.04343406897169181,0.052718455492211505
0.952,0.0028,0.6949999999998889,0.00996816843043873,0.9875866285280056,0.04269606637410112,0.05693260643815298
0.9530000000000001,-0.009200000000000333,-0.30499999999977795,0.009985819237138207,0.9917840930261215,0.0428651516642793,0.05760755277737455
0.954,-0.0107,1.694999999999889,0.010116306747105218,0.9917840930261215,0.04411515223723066,0.05760755277737455
0.9550000000000001,-0.0062999999999997554,0.6949999999998889,0.010365867592815206,0.9844666471756176,0.04650581169730139,0.056430917860875174
0.956,-0.0052,-0.30499999999988897,0.010260851520180136,0.9830590690749077,0.04549981387424443,0.05620458129825051
0.9569999999999999,0.0085,0.6949999999997779,0.010098380916490521,0.9699825983330158,0.043943432365001776,0.05410190334561037
0.958,-0.0006,-1.304999999999778,0.010102030796266911,0.9699825983330158,0.0439783962616448,0.05410190334561037
0.9589999999999999,0.0009,0.695,0.010109828736756598,0.9429605396840326,0.04405309636192576,0.04975679463258882
0.96,0.0146,0.695,0.010096588038340657,0.9444278826421724,0.04392625755098986,0.049992741299540636
0.9609999999999999,0.0019,0.695,0.009725555445742993,0.942960539684031,0.04037196370747979,0.04975679463258857
0.962,0.0005,0.695,0.00918085875288792,0.942960539684031,0.03515406064284409,0.04975679463258857
0.9629999999999999,-0.001,1.695,0.009107331089734865,0.9414909098288848,0.034449704945564485,0.049520480235840984
0.964,-0.0,0.695,0.009126613290806994,0.9414909098288818,0.034634418121515326,0.049520480235840506
0.9649999999999999,0.001,-0.305,0.009320829817149908,0.9414909098288818,0.03649490859502225,0.049520480235840506
0.966,0.0064,0.695,0.009316971920147375,0.954957604039022,0.036457952004580976,0.0516859055688315
0.9669999999999999,0.0016,-0.305,0.009300234974442899,0.9639370204537077,0.0362976210140874,0.053129782995349026
0.968,-0.001,-0.305,0.00934237641901331,0.9728335588837289,0.036701313519763454,0.05456033375945489
0.9689999999999999,-0.0134,0.695,0.009309569416327662,0.9458929493461271,0.03638703997615576,0.05022832194804726
0.97,-0.0044,-0.305,0.009214128390768524,0.945892949346128,0.03547276598424536,0.050228321948047404
0.9709999999999999,-0.0193,0.695,0.009095452923367293,0.9549576040390164,0.034335918463097075,0.051685905568830605
0.972,-0.0096,1.695,0.009008472364341193,0.950597542169976,0.0335026912167059,0.05098481380293019
0.9729999999999999,-0.0078,-1.305,0.008765140759591927,0.950597542169976,0.031171704554222635,0.05098481380293019
0.974,-0.0063,0.695,0.008952111591885801,0.9520531147422276,0.03296278515306018,0.051218867808521786
0.9749999999999999,0.0042,-0.305,0.008981213252989137,0.9520531147422276,0.03324156350557991,0.051218867808521786
0.976,0.0078,-1.305,0.008971073579106044,0.9385447464393063,0.03314443085153042,0.04904674134050614
0.9769999999999999,0.0089,-0.305,0.009061789534526457,0.9293200133321134,0.03401344119803801,0.04756341733769667
0.978,0.0121,-0.305,0.008956681703875488,0.9293200133321134,0.03300656438225235,0.04756341733769667
0.9789999999999999,0.0031,1.695,0.008943022891745183,0.9370681911995753,0.03287572026550099,0.04880931335173763
0.98,-0.0057,0.695,0.008941240616224087,0.9385447464393062,0.03285864701900338,0.04904674134050612
0.9809999999999999,-0.0133,-0.305,0.008919130846386085,0.9400189823506754,0.03264684724619515,0.0492837963845629
0.982,-0.0126,0.695,0.00891528701419408,0.9400189823506755,0.03261002538911818,0.049283796384562914
0.9829999999999999,0.0012,-0.305,0.00887759600070967,0.9355893056503297,0.032248965633571144,0.04857151065250359
0.984,0.0149,0.695,0.008854429007641135,0.9642553897312218,0.03202703822751864,0.0531809763237203
0.9849999999999999,0.0095,1.695,0.008869035734227034,0.9552789659238229,0.03216696285789847,0.051737580104210916
0.986,0.0015,0.695,0.008851693162305118,0.9552789659238229,0.03200083029207415,0.051737580104210916
0.9869999999999999,-0.009,-0.305,0.008896966884844355,0.9642553897312218,0.03243452834584186,0.0531809763237203
0.988,0.0033,-1.305,0.008964828573023486,0.956727416167879,0.033084607032505466,0.05197048884952827
0.9889999999999999,0.008,0.695,0.008996855720272319,0.9567274161678798,0.03339140997802233,0.051970488849528394
0.99,0.0066,0.695,0.009125068503793663,0.9567274161678794,0.03461961988793543,0.05197048884952832
0.9909999999999999,0.003,0.695,0.009112720814215661,0.9476796900630775,0.034501335624169266,0.05051562732170441
0.992,0.0092,-2.305,0.00892529511979145,0.9476796900630775,0.03270589768934088,0.05051562732170441
0.9929999999999999,0.0125,-0.305,0.00894632434746819,0.9476796900630775,0.03290734644601724,0.05051562732170441
0.994,0.0035,-0.305,0.00911244879762571,0.9462173898461562,0.0344987298506866,0.05028049152038984
0.9949999999999999,0.0024,-0.305,0.009388919371928466,0.946217389846157,0.03714717012186661,0.050280491520389964
0.996,0.0035,0.695,0.009475957777386359,0.9476796900630777,0.03798095150614349,0.05051562732170444
0.9969999999999999,0.0166,0.695,0.00950546100808233,0.9476796900630793,0.03826357668063876,0.05051562732170469
0.998,0.0075,-0.305,0.009469320515631714,0.9476796900630802,0.037917370087521655,0.05051562732170484
0.9989999999999999,-0.0004,0.695,0.009494218999743275,0.9341080787234955,0.038155884251926654,0.04833333146307343
1.0,-0.0019,-0.305,0.009496595572544696,0.9218397130877632,0.03817865054859511,0.046360595665597075
1.001,-0.0008,2.694999999999778,0.009491289425519456,0.9218397130877641,0.038127820497325146,0.04636059566559722
1.002,-0.0069,1.695,0.00950514981887994,0.9078819110458031,0.038260595654474795,0.044116200889648606
1.003,-0.0171,0.695,0.009504856260641828,0.9063554039632593,0.0382577835235212,0.043870740715388365
1.004,-0.0261,0.695,0.00947360941663173,0.9063554039632602,0.03795845546579814,0.043870740715388504
1.005,-0.0098,-0.305,0.009462879097706224,0.8937061442010066,0.03785566474806412,0.04183675768248182
1.006,-0.0032,-0.305,0.009448860010756238,0.8921553822467553,0.03772136939118156,0.041587397359244827
1.007,0.0066,0.695,0.009567133181183771,0.8921553822467557,0.038854363122432664,0.041587397359244896
1.008,0.0049,0.695,0.00963210435922968,0.8921553822467573,0.03947675226759485,0.041587397359245146
1.009,0.0096,0.6949999999997779,0.009635894479573989,0.8840136414634218,0.039513059593890974,0.040278216986410556
1.01,0.0053,-0.305,0.009636831752641685,0.8840136414634218,0.039522038168713414,0.040278216986410556
1.011,0.0119,-0.305,0.009539379178067527,0.8840136414634218,0.038588494612827644,0.040278216986410556
1.012,0.0032,-0.305,0.009578288606606223,0.8824458466005953,0.038961226133100164,0.040026117795627626
1.013,0.0065,0.6949999999995559,0.009594146122819038,0.8906019200299794,0.03911313265930038,0.04133760283762289
1.014,0.0196,-1.305,0.00959817071309743,0.8906019200299794,0.0391516860821924,0.04133760283762289
1.015,0.0069,1.694999999999334,0.009599279810454161,0.8890457433958661,0.03916231064182821,0.04108737184154218
1.016,-0.0079,-1.305,0.009628286879415375,0.9032946507490585,0.03944018285220546,0.04337857593874455
1.017,-0.0097,-1.3049999999995558,0.00960765842928806,0.901760378349529,0.03924257333015418,0.04313186711252436
1.018,-0.0042,0.695,0.009627287103985846,0.9032946507490585,0.03943060553817709,0.04337857593874455
1.019,-0.0027,-0.30500000000022204,0.009653396462453853,0.9032946507490585,0.03968071923145434,0.04337857593874455
1.02,-0.0103,-1.305,0.0096289404191349,0.9112641405488905,0.0394464434132665,0.04466005859768658
1.021,-0.0113,-1.304999999999778,0.009767432879982113,0.9206698038599561,0.04077312713535013,0.04617247592071671
1.022,-0.0149,-0.305,0.009688749637598273,0.9191645345795019,0.04001938374576185,0.045930430754916894
1.023,-0.0225,0.695,0.009722934393655215,0.9066939922145589,0.040346855429972725,0.04392518522607349
1.024,-0.0075,0.695,0.009698455344370815,0.8971418180136028,0.040112359226937344,0.042389209159703886
1.025,0.0038,-0.305,0.009717618929060676,0.8971418180136029,0.040295936121371036,0.0423892091597039
1.026,0.0136,-0.305,0.009851633653198898,0.8971418180136029,0.04157972552005789,0.0423892091597039
1.027,0.0082,-0.305,0.010193865395208444,0.8874868380655176,0.04485812261493865,0.04083670207497621
1.028,0.0068,-1.305,0.010317106293797298,0.8874868380655175,0.046038704525698186,0.04083670207497619
1.029,-0.0008,0.695,0.01025504658194627,0.8971418180136027,0.04544420566990275,0.042389209159703865
1.03,0.0115,0.695,0.010297362615670078,0.9131186435429085,0.04584957064631439,0.04495826004940815
1.031,0.0003,0.695,0.010315568476015778,0.9116009055912918,0.04602397305363253,0.0447142099389662
1.032,-0.0041,-1.305,0.010230260462380297,0.9131186435429085,0.04520676789776243,0.04495826004940815
1.033,-0.003,-2.305,0.01015453728381936,0.9116009055912918,0.0444813803368319,0.0447142099389662
1.034,-0.0066,-0.305,0.010157751530271698,0.9116009055912919,0.0445121710991665,0.04471420993896622
1.035,0.0011,-0.305,0.01004878521798012,0.9240052257350286,0.04346833209241938,0.046708807028543894
1.036,-0.0098,-1.305,0.01000429306637983,0.9116009055912919,0.04304212107033566,0.04471420993896622
1.037,-0.0113,0.695,0.010064061368439762,0.9194984061178725,0.04361466944556431,0.045984116824851415
1.038,-0.0102,0.695,0.010224808570917345,0.9210031297254563,0.04515454169270969,0.04622607424722744
1.039,-0.0163,-0.305,0.0102576841420067,0.9116009055912919,0.04546947208496091,0.04471420993896622
1.04,-0.0108,-0.305,0.010236285235713285,0.9194984061178724,0.0452644820048064,0.0459841168248514
1.041,-0.0061,0.695,0.01024476949245694,0.9194984061178724,0.045345756647822553,0.0459841168248514
1.042,0.0076,0.695,0.010245767279444632,0.9179912160486777,0.045355314913641344,0.04574176279894584
1.043,0.0174,-0.305,0.010204545190524567,0.897483882224805,0.044960429343510085,0.042444212599812375
1.044,0.0229,0.695,0.01013782420335111,0.8990254529011321,0.04432127796254047,0.042692094978592554
1.045,0.0181,0.695,0.010132174790279284,0.9085578236157056,0.04426715960609082,0.04422488667243351
1.046,0.0076,-1.305,0.010131537936649837,0.9100806365174932,0.044261058888850555,0.04446975282766657
1.047,0.0087,-0.305,0.01012640280490628,0.9085578236157057,0.04421186707253611,0.044224886672433524
1.048,0.0076,-0.305,0.009989034944885376,0.9164815473492918,0.04289595642503703,0.04549901021282026
1.049,0.0021,0.695,0.009961604799425204,0.9164815473492919,0.04263319029860836,0.045499010212820275
1.05,0.001,-0.305,0.010009046163993082,0.928820689230451,0.04308765320395795,0.04748312673019935
1.051,-0.0056,-0.305,0.01016334549819222,0.9380503326750395,0.04456575832071355,0.04896724030829909
1.052,0.0027,-0.305,0.01018811340155922,0.9024408758529328,0.044803021591408046,0.04324129014611474
1.053,-0.005,-0.305,0.010194568641586048,0.8881782716260586,0.04486485933920561,0.04094788361104674
1.054,-0.009699999999998645,0.695,0.01027945063283562,0.8881782716260586,0.04567798342841569,0.04094788361104674
1.055,-0.0036,-0.305,0.010138070801589993,0.8866178410554769,0.04432364024181126,0.040696968588014075
1.056,-0.015899999999999602,-0.305,0.010202740355013295,0.886617841055477,0.04494313998436955,0.040696968588014096
1.057,-0.0141,0.695,0.010446564253046482,0.886617841055477,0.047278842553280305,0.040696968588014096
1.058,-0.002799999999999023,0.695,0.010428108924575857,0.886617841055477,0.04710205037471764,0.040696968588014096
1.059,0.0016,0.695,0.010435678385102511,0.8947358849718275,0.04717456175912249,0.04200233853824006
1.06,0.0052000000000007995,0.695,0.010489540929906473,0.8931869108677895,0.047690536137686326,0.041753265698782134
1.061,0.0088,-0.305,0.010605710246654864,0.8947358849718291,0.048803376075635695,0.04200233853824031
1.062,0.005499999999999422,-1.305,0.010787211419450608,0.8947358849718291,0.05054206026114417,0.04200233853824031
1.063,0.0029,1.695,0.011067027976485861,0.8962821821095742,0.05322255325778246,0.0422509809253143
1.064,-0.0014999999999980016,-0.305,0.01116066748963539,0.8962821821095773,0.054119569724089385,0.0422509809253148
1.065,0.0075,1.695,0.010988819759283832,0.8866178410554817,0.05247336035543683,0.040696968588014845
1.066,0.0012999999999982902,-0.305,0.01097627562739919,0.8819199837545194,0.05235319427941205,0.039941559795661004
1.067,-0.0064,0.695,0.010950818356151895,0.8720964991652871,0.05210932723303388,0.03836195740357929
1.068,-0.007200000000000955,-0.305,0.011021388727926658,0.8720964991652941,0.05278535366019266,0.038361957403580414
1.069,-0.0115,-1.305,0.011096694929856094,0.872096499165294,0.053506746807953566,0.03836195740358039
1.07,-0.016999999999999512,-1.305,0.011366456711145034,0.8819199837545253,0.05609092042929711,0.03994155979566195
1.071,-0.0148,-0.305,0.011418478559048335,0.873682865785485,0.05658926191578539,0.0386170429066125
1.072,-0.012599999999998002,0.695,0.011438777131735425,0.865367345229007,0.05678371138834696,0.03727991899267924
1.073,-0.0036,-0.305,0.011372614370602862,0.8669660248818736,0.05614990751436196,0.03753698441390547
1.074,0.008700000000001776,0.695,0.011169714520500211,0.8653673452290072,0.05420623544226726,0.03727991899267926
1.075,0.0167,-0.305,0.011147028089447062,0.8637657067040355,0.05398891156336248,0.037022377789014266
1.076,0.027299999999997982,-0.305,0.011194982554121723,0.8784247766880653,0.05444828969337704,0.03937953545563776
1.077,0.0182,-0.305,0.01123400508100006,0.8928432004114782,0.054822104635268896,0.041697997544794516
1.078,0.004400000000001199,-1.305,0.011315166436940645,0.9024408758529465,0.055599587027667124,0.043241290146116954
1.079,0.0098,-2.305,0.011472637178661257,0.8943927697783485,0.0571080725327059,0.04194716610167175
1.08,0.008299999999998312,-0.305,0.01152634758092328,0.8928432004114766,0.05762258946706957,0.04169799754479425
1.081,0.0007,0.695,0.011494652825781652,0.8912909370178903,0.057318970660207504,0.04144839579224125
1.082,0.001800000000000222,-0.305,0.011508432230824704,0.8912909370178903,0.05745096999258114,0.04144839579224125
1.083,0.0028,-0.305,0.011569433119104312,0.8815718805185466,0.0580353258847223,0.03988558528893284
1.0839999999999999,0.0017,1.695,0.011657939716016839,0.8501222692898723,0.05888317175808292,0.034828532399441205
1.085,0.0013,0.695,0.011639849621628466,0.8650125808126207,0.05870987832673515,0.03722287337758624
1.0859999999999999,-0.0111,-1.305,0.01166785792818205,0.8666119149162954,0.05897818292729216,0.037480044033574404
1.087,-0.0202,0.695,0.011788689319631432,0.8582278854106531,0.06013568304803491,0.03613190397776237
1.0879999999999999,-0.0089,-0.305,0.011972912255937964,0.8566128980967209,0.061900440272631835,0.03587221630776133
1.089,-0.0046,-1.305,0.012098866620442896,0.8862715830112677,0.06310701573595927,0.04064129078550499
1.0899999999999999,0.0078,0.695,0.012070108781977295,0.8878326221558184,0.06283153102046479,0.040892303666368895
1.091,-0.0034,-0.305,0.012069221455945559,0.8878326221558185,0.06282303091153985,0.04089230366636891
1.0919999999999999,0.001,-1.305,0.012054023428623474,0.8862715830112677,0.06267744193627976,0.04064129078550499
1.093,0.0046,0.695,0.012148476093720037,0.8862715830112694,0.06358224796344156,0.040641290785505255
