time_sec,bts_raw,diy_raw,bts_rms,diy_rms,bts_norm_rms,diy_norm_rms
0.0,0.020599999999995126,1.503,0.034533477328498555,0.8027954553953932,0.153742381822876,0.0
0.0010000000000000009,-0.023300000000001944,1.503,0.03459791771056782,0.8047720028076769,0.15410165329704778,0.0006692305418779178
0.0020000000000000018,-0.04079999999999945,1.503,0.03461050434054757,0.8059538848790994,0.1541718269515556,0.0010693988222734662
0.0029999999999998916,-0.0358,0.503,0.03466128187382827,0.8079227053693289,0.15445492457839702,0.0017360131394146326
0.0039999999999998925,-0.0218,0.503,0.03465696574130985,0.8098867397055456,0.154430861044898,0.0024010069336057407
0.004999999999999893,0.0351,-0.497,0.03483117326825145,0.8118460226240325,0.15540211219218103,0.003064391966052883
0.005999999999999894,0.0739,-3.497,0.03496299732821499,0.8138005884429207,0.1561370647612627,0.003726179856381949
0.006999999999999895,0.0949,-1.497,0.03499435770084978,0.8149693772152896,0.1563119067926921,0.00412191493392787
0.007999999999999896,0.101,-1.497,0.03507397301921373,0.8169164700862995,0.1567557823855545,0.004781172591525391
0.008999999999999897,0.0364,-0.497,0.03520211987793381,0.8180808072231575,0.1574702336250484,0.005175400409277416
0.009999999999999898,0.0281,-0.497,0.03507627617520336,0.8192434895655418,0.1567686230643505,0.00556906793740757
0.010999999999999899,-0.0262,-0.497,0.03477104117233709,0.8204045241490072,0.1550668605060416,0.0059621775580535035
0.0119999999999999,-0.0901,2.503,0.03473517357625449,0.8351734920330576,0.15486688956071504,0.010962737786760992
0.0129999999999999,-0.0474,0.503,0.03478860550373677,0.8496857891863465,0.1551647861084693,0.015876392995551353
0.013999999999999901,-0.055,0.503,0.03473037889435665,0.850805282302512,0.15484015799305037,0.016255437272508198
0.014999999999999902,-0.0482,1.503,0.03471478707814332,0.851923304319403,0.15475322966307933,0.016633983456397074
0.015999999999999903,-0.0544,1.503,0.03448299214714,0.8537861264638077,0.1534609141321503,0.01726470825731736
0.016999999999999904,-0.0487,0.503,0.03462726253845403,0.8556448930728541,0.15426525815529746,0.017894059912261694
0.017999999999999905,-0.0438,0.503,0.03476453865851775,0.8574996305195931,0.15503060734225393,0.018522047350766034
0.018999999999999906,-0.0105,0.503,0.03478470685779839,0.8593503648924702,0.15514305016854193,0.019148679406002986
0.019999999999999907,-0.0062,-0.497,0.03477248465225666,0.8604572840585724,0.1550749082727057,0.019523466324212913
0.020999999999999908,0.0137,-0.497,0.03479479247635354,0.8623016705243226,0.15519928005002132,0.02014794906934484
0.02199999999999991,0.0318,1.503,0.03479815188302834,0.8763648495572884,0.15521800959428597,0.024909539338451435
0.02299999999999991,0.0416,-1.497,0.034886480914805375,0.8880570321422219,0.15571046634950186,0.028868344292191362
0.02399999999999991,0.009,1.503,0.03508976927065365,0.8898442142514802,0.1568438504937651,0.02947345846450032
0.02499999999999991,0.0047,0.503,0.03508813621480339,0.8909132470030217,0.15683474579320483,0.029835417587339035
0.025999999999999912,-0.0073,-0.49700000000000344,0.0350438609752235,0.8926947109650925,0.15658790010293447,0.03043859567720592
0.026999999999999913,0.0108,-1.497,0.034960566161204264,0.8944726269062866,0.15612351038855643,0.03104057245820507
0.027999999999999914,0.0405,-1.497,0.03497053131619672,0.8955361345770845,0.15617906865512043,0.03140066086812439
0.028999999999999915,0.0605,-1.497,0.03508002472237297,0.9090853353144569,0.15678952216557213,0.03598822547453462
0.029999999999999916,0.0424,-0.497,0.03560621642830834,0.9108312577988205,0.1597231743851566,0.03657936973094154
0.030999999999999917,0.0197,0.503,0.03581194544006179,0.9241562415165057,0.1608701658051193,0.041091017677497815
0.03199999999999992,0.017,0.503,0.03583550598793494,0.937291810102087,0.1610015218352183,0.04553853238307542
0.03299999999999992,-0.0018,0.503,0.03582759452382102,0.9389852877356649,0.1609574134161836,0.046111919566875915
0.03399999999999992,-0.0238,1.503,0.035642037420199585,0.9519162511138058,0.15992288550029599,0.05049015789031597
0.03499999999999992,-0.0149,-1.497,0.03515822540354532,0.9529156506129991,0.15722551079729424,0.05082854019485419
0.03599999999999992,0.0039,-0.497,0.03506020696925017,0.9636795006540704,0.15667903316549842,0.0544730250935776
0.03699999999999992,-0.0029,-0.497,0.03471690583964803,0.9743244443092667,0.15476504229585356,0.05807724999926602
0.03799999999999992,0.0084,0.503,0.03433376530183149,0.9753008822036376,0.15262893662086915,0.05840785783447348
0.038999999999999924,0.0102,0.503,0.03446284678878766,0.9877565435762634,0.15334859864983078,0.06262516573108452
0.039999999999999925,0.0193,-0.497,0.03481550593713204,0.988719716313152,0.1553147628474556,0.06295128217464874
0.040999999999999925,0.0144,-0.497,0.03475501371821763,0.9896819516768974,0.1549775033842522,0.06327708123714094
0.041999999999999926,0.0038,-1.497,0.034207570265023544,0.9912859318958257,0.15192536728357967,0.06382016588282348
0.04299999999999993,-0.0085,-1.4969999999999863,0.03407922864831532,0.9922456786618971,0.15120983021890502,0.06414512234191566
0.04399999999999993,-0.0006,0.503,0.03342665220170463,1.0044912470368974,0.14757155101485558,0.06829129576951684
0.04499999999999993,-0.0082,0.503,0.03290904224156279,1.0165893192062734,0.14468574420467442,0.07238752910208085
0.04599999999999993,-0.0146,-0.497,0.03395674743743739,1.0484172679452377,0.15052696640312005,0.0831640150335918
0.04699999999999993,-0.0006,-0.497,0.0355603954036645,1.0600141255079052,0.15946771055109427,0.08709054430504397
0.04799999999999993,0.02,0.503,0.03586337210438355,1.0697008409242148,0.16115688250215496,0.09037032690311685
0.04899999999999993,0.0228,-0.497,0.03575416170676283,1.0705902937737692,0.16054800683618034,0.09067148285251773
0.04999999999999993,0.0252,0.503,0.03571560166494131,1.0801821697844713,0.16033302482296924,0.0939191541911229
0.050999999999999934,0.0097,-0.49699999999999306,0.0357548546418962,1.0784119269404615,0.1605518701252993,0.09331977541053325
0.051999999999999935,0.0196,0.503,0.03573534975014047,1.0766387734122294,0.16044312540669864,0.09271941111410563
0.052999999999999936,-0.0079,0.503,0.03553000100809021,1.0661161090203497,0.15929825408677972,0.08915658820927044
0.05399999999999994,-0.0357,0.503,0.03535967211141604,1.0661161090203497,0.15834862728698193,0.08915658820927044
0.05499999999999994,-0.0319,0.503,0.035344760604773894,1.076047072931124,0.1582654918554184,0.09251906983661407
0.05599999999999994,-0.0219,-0.497,0.03542939940022758,1.0766387734122291,0.15873737460717002,0.09271941111410556
0.05699999999999994,-0.0246,0.503,0.03464725861685576,1.0212601451968244,0.15437674136403018,0.07396900364159736
0.05799999999999994,-0.0323,-0.497,0.03331606559940434,1.012679502443561,0.14695500265874292,0.07106372134796778
0.05899999999999994,-0.0202,-0.497,0.03177756354977809,1.0033910104840924,0.13837746351890023,0.06791877148810999
0.05999999999999994,0.0046,-0.497,0.031566515848041585,1.0040255301391683,0.1372008190532926,0.06813361072240287
0.06099999999999994,-0.0051,1.503,0.031444951188993146,1.0151919797127722,0.1365230652464238,0.07191441003566658
0.061999999999999944,-0.02,1.503,0.03136112568496819,1.0158191280558204,0.136055716800664,0.07212675344966599
0.06299999999999994,-0.0065,-0.497,0.03008553687410973,0.9933748134114777,0.1289439856501323,0.06452743113735303
0.06399999999999995,-0.0043,-0.497,0.029721096540223847,0.9933748134114776,0.12691213835502932,0.064527431137353
0.06499999999999995,0.0295,0.503,0.029219501234941256,1.0212601451968242,0.1241156173075156,0.0739690036415973
0.06599999999999995,0.063,0.503,0.02896574215664912,1.0212601451968244,0.12270084608464334,0.07396900364159736
0.06699999999999995,0.0326,0.503,0.028570655804769227,1.0101607761468168,0.1204981394664164,0.07021091682937299
0.06799999999999995,0.0127,0.503,0.02818338070919769,1.0095301126834153,0.11833898258329222,0.06999738324615015
0.06899999999999995,-0.0053,-0.497,0.027844497406167276,1.0088990549919448,0.1164496222172864,0.06978371618296997
0.06999999999999995,-0.028,0.503,0.027826588702560225,1.008267602332183,0.11634977665245881,0.06956991538920386
0.07099999999999995,-0.013,1.5029999999999584,0.027823230428167846,1.008267602332183,0.11633105342095583,0.06956991538920386
0.07199999999999995,-0.0263,-1.4969999999999724,0.027966610204884453,1.008267602332183,0.11713043204183408,0.06956991538920386
0.07299999999999995,-0.0382,0.503,0.02811996700176555,1.0063708671060783,0.11798543508061982,0.06892770810630422
0.07399999999999995,-0.0044,-0.497,0.02847537044613835,0.9970236042395334,0.11996689942464404,0.06576285926211405
0.07499999999999996,0.0096,0.503,0.02892128741837109,0.9856513465261894,0.12245299964360422,0.06191237627112765
0.07599999999999996,0.0139,0.503,0.02923101821873461,0.9944652263437824,0.12417982741323788,0.06489662928206834
0.07699999999999996,0.0178,-0.497,0.0293202287069342,0.9951054374577301,0.12467719851157495,0.0651133955625232
0.07799999999999996,-0.0294,1.503,0.029326898047686453,0.9862972787957187,0.12471438177782623,0.06213107965262363
0.07899999999999996,-0.0613,0.503,0.02989743487837635,0.9774097465555269,0.12789526931525477,0.05912188899010928
0.07999999999999996,-0.0438,1.503,0.03031043017863145,0.9793625725003937,0.13019782286295384,0.05978308778410455
0.08099999999999996,-0.0172,1.503,0.030855634830757452,0.9793625725003937,0.13323747707984046,0.05978308778410455
0.08199999999999996,-0.003,0.503,0.030911803173126792,0.9901640236170666,0.13355062983463215,0.06344030386652921
0.08299999999999996,0.01,1.503,0.03087956971306565,0.9901640236170667,0.133370920119358,0.06344030386652925
0.08399999999999996,0.0299,-0.497,0.03088301617186443,0.9901640236170666,0.13339013500129304,0.06344030386652921
0.08499999999999996,0.019,-1.497,0.03079290667197484,0.9882325424274842,0.13288775168476616,0.06278633209985261
0.08599999999999997,0.0131,-1.4969999999999863,0.030785061299425286,0.9787120634607704,0.13284401174296578,0.05956283477404365
0.08699999999999997,0.0163,-0.49699999999997224,0.031167105798460725,0.9793625725003938,0.13497400672375515,0.059783087784104585
0.08799999999999997,0.031,1.503,0.032232376886994506,0.9888767886666363,0.1409131632290462,0.06300446461569874
0.08899999999999997,0.0605,-0.497,0.03263495610502976,0.997662173614766,0.14315764447651907,0.0659790696734392
0.08999999999999997,0.0484,-0.497,0.0328605196431671,0.997662173614766,0.14441521841174032,0.0659790696734392
0.09099999999999997,0.03,0.503,0.032802463683761156,0.997662173614766,0.1440915417132097,0.0659790696734392
0.09199999999999997,0.0331,-0.497,0.03297890939640393,0.9983003345249811,0.14507527131345205,0.06619514178438095
0.09299999999999997,0.0004,1.503,0.03353544699908038,0.9895206154570957,0.14817810960405498,0.06322245511224688
0.09399999999999997,-0.0392,1.503,0.03433384261686196,0.9914495873050921,0.15262936767177357,0.06387557725193306
0.09499999999999997,-0.0871,2.503,0.03539633760526703,0.9908070139620975,0.15855304671473955,0.06365801115467877
0.09599999999999997,-0.1059,1.503,0.035528831299924665,0.9995754340791836,0.15929173266708152,0.06662687216448919
0.09699999999999998,-0.053,-1.497,0.0355066877415275,1.0107910461200613,0.15916827671270486,0.07042431718248493
0.09799999999999998,0.0107,-0.497,0.03553357175749217,1.0218835694042583,0.15931816192035156,0.07418008611681041
0.09899999999999998,0.0189,-1.497,0.035479456239719924,1.0322401729584725,0.15901645418335045,0.077686683209057
0.09999999999999998,0.0265,-1.497,0.035474670296462035,1.0328569697302172,0.1589897713358199,0.07789552172981191
0.10099999999999998,0.0196,-1.497,0.03538608569334951,1.0328569697302175,0.15849588970558762,0.07789552172981198
0.10199999999999998,0.0133,-0.4969999999999861,0.03538367581281528,1.041882802751508,0.15848245401038674,0.08095153904879893
0.10299999999999998,0.0074,0.5030000000000139,0.035331389295006656,1.0502248731426227,0.15819094341207554,0.08377604416996835
0.10399999999999998,-0.0192,1.5029999999999861,0.035363098406155494,1.0585012015418491,0.158367729749172,0.08657828999769399
0.10499999999999998,-0.0432,0.503,0.0353576196661416,1.0685029428674908,0.15833718438401137,0.0899647358403203
0.10599999999999998,-0.0039,-0.497,0.0354223017303681,1.0679067345351552,0.15869780329750804,0.08976286826920037
0.10699999999999998,0.001,0.503,0.03543277851665788,1.0766387734122287,0.15875621403832063,0.09271941111410541
0.10799999999999998,0.014999999999998546,-0.497,0.03535160656705491,1.0760470729311233,0.15830365983148942,0.09251906983661384
0.10899999999999999,0.001900000000000433,0.503,0.03522718713758578,1.0847135833540062,0.1576099899554645,0.09545342568887005
0.10999999999999999,0.005799999999997979,1.503,0.03522058644014005,1.0847135833540062,0.15757318939305717,0.09545342568887005
0.11099999999999999,-0.012400000000000366,0.503,0.035228716414839295,1.095057554841109,0.15761851606402627,0.09895574574477262
0.11199999999999999,-0.015699999999999034,-1.497,0.03525507191525873,1.085300558906904,0.1577654546634599,0.09565216717358911
0.11299999999999999,-0.006999999999998513,0.503,0.0352128614058491,1.085300558906904,0.15753012036757014,0.09565216717358911
0.11399999999999999,0.006400000000002454,-2.497,0.035224684897724574,1.095638988748364,0.15759603933359043,0.0991526109079355
0.11499999999999999,0.028499999999999668,1.503,0.035222576654299176,1.1041517325144168,0.15758428534177607,0.10203490358051101
0.11599999999999999,0.02549999999999851,-0.497,0.03509806341777391,1.1137435942197549,0.15689009246762073,0.10528257007552555
0.11699999999999999,0.012099999999998667,-0.497,0.034539644627572745,1.1131716167844867,0.1537767660794383,0.10508890673784514
0.118,0.00010000000000023315,-0.497,0.034411906668260994,1.1125993453007417,0.15306459455785576,0.10489514383957725
0.119,0.002200000000000189,-0.497,0.03454204101771753,1.1204150180454289,0.15379012656229646,0.10754141828438006
0.12,0.0039000000000030417,-0.497,0.0347740805680516,1.1457671326058534,0.15508380590803764,0.11612527985004874
0.121,0.03130000000000132,-0.497,0.034921636841151675,1.145211149486805,0.15590646955554638,0.11593703195792968
0.122,0.04320000000000199,-1.497,0.0350816595941702,1.135324220831649,0.15679863699049731,0.11258946003515274
0.123,0.061099999999998905,-0.497,0.0349894694426028,1.1276118910817192,0.15628465351314702,0.1099781760428688
0.124,0.05119999999999904,-0.497,0.034945414662985716,1.1276118910817192,0.15603903694308496,0.1099781760428688
0.125,0.042499999999997914,-1.497,0.03515520065683834,1.1281765474250212,0.1572086470672306,0.11016936056404665
0.126,0.023699999999995936,0.503,0.03553406273459772,1.1281765474250214,0.15932089924224246,0.11016936056404672
0.127,-0.012900000000006472,0.503,0.03596020338434869,1.1375658519007994,0.16169674144746077,0.11334844409279526
0.128,-0.07120000000000085,0.503,0.03597619868350274,1.147433465571181,0.16178591929716252,0.11668947623937129
0.129,-0.07879999999999925,1.503,0.03592901028546693,1.1381255698128134,0.16152283200963047,0.1135379565321266
0.1299999999999999,-0.072,-0.497,0.0355208199319706,1.1381255698128134,0.15924706725879925,0.1135379565321266
0.1309999999999999,-0.0275,1.503,0.035412525510849925,1.1364455890665826,0.15864329839413321,0.11296913920037055
0.1319999999999999,-0.0101,0.503,0.03548988367493694,1.126481729282367,0.15907458977941538,0.10959551950314213
0.1329999999999999,-0.0051,0.503,0.03557482243850139,1.1358850433287437,0.15954814492946595,0.11277934647111454
0.1339999999999999,-0.0004,-1.497,0.03556145512673887,1.1358850433287435,0.15947361877601343,0.11277934647111447
0.1349999999999999,0.0127,-0.497,0.035692084007200434,1.1364455890665826,0.16020190791623595,0.11296913920037055
0.1359999999999999,0.0486,0.503,0.035743724378171894,1.1381255698128132,0.16048981608204654,0.11353795653212653
0.1369999999999999,0.082,-1.497,0.0357243027739866,1.1298688233209602,0.16038153571277544,0.110742340856757
0.1379999999999999,0.0516,-1.497,0.03578524725812215,1.1381255698128137,0.16072131666929554,0.11353795653212669
0.1389999999999999,0.0396,0.503,0.03571922107043248,1.1364455890665828,0.16035320392657915,0.11296913920037062
0.1399999999999999,-0.0003,-0.497,0.035214988848234596,1.1370058584544946,0.1575419813984565,0.11315883836151376
0.1409999999999999,-0.0373,0.503,0.03488474155659619,1.1375658519007998,0.15570076898632895,0.11334844409279542
0.1419999999999999,-0.0612,0.5030000000000278,0.03478934267324516,1.1375658519007996,0.15516889601544828,0.11334844409279535
0.1429999999999999,-0.0743,1.5029999999999444,0.03476408131993711,1.1457671326058547,0.1550280575636712,0.11612527985004918
0.1439999999999999,-0.0863,-0.49700000000002775,0.034921012652617406,1.135885043328744,0.15590298954615373,0.11277934647111461
0.1449999999999999,-0.0319,-1.497,0.03474144414213355,1.125916222974002,0.15490184955590627,0.1094040471960118
0.1459999999999999,0.0068,1.503,0.03366755592769949,1.1057089852905435,0.14891465038814325,0.10256216698574554
0.1469999999999999,0.0136,1.503,0.032005998505298,1.124217997277749,0.1396510463343123,0.10882905238644065
0.1479999999999999,-0.0052,1.503,0.03157516065129631,1.125916222974002,0.13724901602403544,0.1094040471960118
0.1489999999999999,-0.0225,0.503,0.03155653348623813,1.1264817292823672,0.13714516485439307,0.1095955195031422
0.1499999999999999,0.0041,0.503,0.03149979390354815,1.1281765474250216,0.13682882728992907,0.1101693605640468
0.1509999999999999,0.0088,-1.497,0.03138825700884953,1.1204150180454302,0.1362069808126713,0.1075414182843805
0.1519999999999999,0.0046,-1.497,0.03135182935569171,1.1125993453007428,0.1360038874071021,0.10489514383957763
0.1529999999999999,0.0166,-1.497,0.03134099893599981,1.1125993453007428,0.13594350507037997,0.10489514383957763
0.15399999999999991,0.0347,1.503,0.03139887763258242,1.1120267793145502,0.13626619348371102,0.10470128122701433
0.15499999999999992,0.038,-0.497,0.03148213122442501,1.1103073097840266,0.13673035337399894,0.10411909356052909
0.15599999999999992,0.0231,-1.497,0.03137794686940582,1.1181390037280436,0.13614949917029254,0.10677079255312794
0.15699999999999992,0.0042,-0.497,0.031617555910930975,1.1181390037280436,0.13748538034928834,0.10677079255312794
0.15799999999999992,-0.0125,-1.497,0.03171075221952228,1.1175692758871782,0.13800497340724036,0.10657789089577546
0.15899999999999992,-0.019,-0.497,0.031707928165484,1.1181390037280436,0.1379892285897068,0.10677079255312794
0.15999999999999992,-0.0092,1.503,0.031712029199816416,1.1276118910817194,0.13801209289626312,0.10997817604286889
0.16099999999999992,-0.0147,0.503,0.031763633904536785,1.1276118910817194,0.13829980221367774,0.10997817604286889
0.16199999999999992,-0.0099,1.503,0.03228171249448963,1.1276118910817197,0.14118822175391468,0.10997817604286896
0.16299999999999992,-0.0113,1.503,0.032407723222471374,1.119277589411957,0.1418907635227515,0.10715630129907776
0.16399999999999992,0.0011,-1.497,0.03240072139196687,1.127046951842709,0.14185172654180142,0.10978689573727066
0.16499999999999992,0.0026,1.503,0.032470784385990346,1.152805745304469,0.1422423455036916,0.11850845293311732
0.16599999999999993,0.0102,-0.497,0.0333673701611456,1.151147188961578,0.1472410386029232,0.11794688959636661
0.16699999999999993,0.0138,-0.497,0.03495947138103429,1.159252390725675,0.1561174067114377,0.12069119440530075
0.16799999999999993,0.0324,-1.497,0.03593626961211303,1.1598016428054165,0.16156330459687918,0.12087716326426591
0.16899999999999993,0.0402,-2.497,0.03610459937473345,1.1598016428054165,0.16250178571728316,0.12087716326426591
0.16999999999999993,0.0422,-0.497,0.03617808992623937,1.1598016428054165,0.16291151418147584,0.12087716326426591
0.17100000000000004,0.03559999999999334,-0.497,0.03670276944907779,1.1694816549035911,0.16583673559675696,0.12415467621517526
0.17199999999999993,0.0056,0.503,0.03749671930712664,1.179082198855509,0.17026320742637913,0.12740528239407856
0.17300000000000004,-0.03390000000000109,0.503,0.0382971141121539,1.1716579373519567,0.17472561147005,0.12489153416917512
0.17399999999999993,-0.0388,0.503,0.03847828467708591,1.18124079368338,0.17573568332017803,0.12813615157403002
0.17500000000000004,-0.05290000000000096,0.5030000000000278,0.03840093357471041,1.1817798263266688,0.17530443130572865,0.12831866027871183
0.17599999999999993,-0.0572,1.503,0.038623187044490644,1.1833954510921278,0.17654355077032013,0.1288656876004649
0.17700000000000005,-0.02119999999999032,1.503,0.039226243567952256,1.1833954510921278,0.179905743842982,0.1288656876004649
0.17799999999999994,0.0224,0.503,0.03967248872980874,1.1828571546956086,0.1823936738023339,0.1286834281783561
0.17900000000000005,0.02830000000000113,0.503,0.03926395365927649,1.1823186132188062,0.18011598716659621,0.1285010857755863
0.17999999999999994,0.0334,-1.497,0.038469701915353,1.1823186132188062,0.175687832246655,0.1285010857755863
0.18100000000000005,0.028699999999999067,-0.497,0.03779899704560525,1.1828571546956086,0.17194848248567027,0.1286834281783561
0.18199999999999994,0.0245,1.503,0.037762430360873935,1.1828571546956086,0.17174461394381596,0.1286834281783561
0.18300000000000005,-0.0033000000000088375,1.503,0.03784119333275097,1.1823186132188062,0.17218373748883153,0.1285010857755863
0.18399999999999994,-0.0431,0.503,0.037901519939264494,1.1896763478617793,0.17252007362089541,0.1309923089617894
0.18500000000000005,-0.027399999999992583,1.503,0.038052149583586194,1.1817798263266688,0.17335987209246967,0.12831866027871183
0.18599999999999994,0.006,-0.497,0.038212916633903665,1.1817798263266688,0.17425618917363975,0.12831866027871183
0.18700000000000006,0.026399999999999067,-1.497,0.037999533240079576,1.1817798263266688,0.17306652263223785,0.12831866027871183
0.18799999999999994,0.0222,-1.497,0.03714648720090409,1.17437261906713,0.1683105746041588,0.12581068637568477
0.18900000000000006,0.010299999999999223,0.503,0.03679882625039178,1.1669183942832038,0.16637227662715012,0.1232867930147545
0.18999999999999995,0.0068,0.503,0.036582915622543205,1.1759984201381566,0.16516852011507457,0.1263611592482235
0.19100000000000006,-0.016000000000003286,0.503,0.03658466179143284,1.1855461925498054,0.1651782554495184,0.12959389774215732
0.19199999999999995,-0.0308,-1.497,0.03639674845105869,1.1855461925498054,0.1641305909161176,0.12959389774215732
0.19300000000000006,-0.0332999999999963,-0.497,0.03588408852412673,1.1944846252339498,0.1612723817965678,0.13262032256332454
0.19399999999999995,-0.0166,-0.497,0.03514206426368637,1.1850088731390966,0.1571354083436002,0.12941196911340022
0.19499999999999984,-0.0144,-1.497,0.034096890089074926,1.1850088731390966,0.15130829723064435,0.12941196911340022
0.19599999999999995,-0.0162,2.503,0.033990615391638106,1.1770810399753031,0.15071578883778214,0.12672771876294026
0.19699999999999984,-0.007,1.503,0.03405992037944239,1.1680094303636386,0.15110218172274578,0.12365620214846919
0.19799999999999995,0.0011,0.503,0.03406544468291757,1.1588668103658166,0.15113298111575943,0.12056064243798548
0.19899999999999984,0.0026,1.503,0.034062355260903815,1.1490973821506782,0.15111575680445682,0.117252854475186
0.19999999999999996,-0.0038,0.503,0.03400699520840653,1.1485430111295754,0.15080711047070994,0.11706515241625819
0.20099999999999985,0.0126,0.503,0.034026573343645755,1.1485430111295754,0.150916263540308,0.11706515241625819
0.20199999999999996,0.0105,-0.497,0.03403150653764481,1.1502053226130722,0.150943767348068,0.11762798718963967
0.20299999999999985,0.0203,-0.497,0.0340479369722571,1.1420359142419259,0.15103537118831364,0.11486194294649782
0.20399999999999996,0.0295,-1.497,0.03401433817655266,1.1437076834450495,0.15084804938053548,0.11542797996779476
0.20499999999999985,0.0343,-1.4969999999999724,0.03403818030250067,1.1338076444747325,0.150980975279819,0.11207596908075879
0.20599999999999996,0.0388,-0.497,0.03430271667397442,1.1437076834450495,0.15245583264564397,0.11542797996779476
0.20699999999999985,0.0241,-0.49699999999997224,0.03437237300193353,1.1354915281155518,0.1528441843410818,0.11264610787652024
0.20799999999999996,0.0144,0.5030000000000278,0.03438625383025475,1.1453770125701366,0.1529215734795933,0.11599319081374349
0.20899999999999985,0.0053,1.503,0.03440356662193534,1.1453770125701366,0.15301809668428856,0.11599319081374349
0.20999999999999996,-0.0193,1.503,0.03435239618723045,1.153522759061624,0.15273280853235494,0.11875122348456098
0.21099999999999985,-0.0591,0.503,0.035106436316365675,1.1437076834450493,0.15693677350090385,0.11542797996779469
0.21199999999999997,-0.0327,-0.497,0.036045773124697644,1.1680094303636388,0.16217381445312082,0.12365620214846927
0.21299999999999986,0.0005,-1.497,0.03677527229509974,1.2074258996574667,0.16624095735236288,0.13700205205851257
0.21399999999999997,0.0221,-3.497,0.03688677537749344,1.2058424720546184,0.16686261531744487,0.1364659262332007
0.21499999999999986,0.0818,-1.497,0.03689537548965591,1.2058424720546184,0.16691056312401326,0.1364659262332007
0.21599999999999997,0.1072,-1.497,0.03691727772724105,1.1964566757341837,0.16703267365365626,0.13328803051542334
0.21699999999999986,0.0839,0.503,0.037037393943947707,1.2042569624701962,0.16770235202709843,0.1359290954788554
0.21799999999999997,0.0346,-0.497,0.0373321501234879,1.2120070488272723,0.16934569248760073,0.13855316331558595
0.21899999999999986,-0.0234,-0.497,0.037256571719656996,1.2042569624701962,0.16892432371715035,0.1359290954788554
0.21999999999999997,-0.0622,1.503,0.03707924017019343,1.1807015149523579,0.16793565535195562,0.12795355954757914
0.22099999999999986,-0.0832,1.503,0.03690242255694186,1.1812407936833806,0.1669498523114934,0.12813615157403027
0.22199999999999998,-0.0894,0.503,0.03731951457207919,1.1891408946843907,0.16927524608371844,0.13081101221280828
0.22299999999999986,-0.072,1.503,0.038004673476665946,1.1891408946843907,0.17309518075493474,0.13081101221280828
0.22399999999999998,-0.0455,0.503,0.038129742334024726,1.1980525083074378,0.1737924713561601,0.13382835648539912
0.22499999999999987,-0.0597,1.503,0.03795429163531446,1.1975208004084077,0.1728142892109588,0.13364832783383362
0.22599999999999998,-0.0728,0.503,0.037587055697380835,1.1975208004084075,0.17076685571423528,0.13364832783383354
0.22699999999999987,-0.0609,-0.497,0.03717485437482776,1.1880692643566253,0.16846872879360306,0.13044817358799907
0.22799999999999998,-0.0428,-0.497,0.03715240112115769,1.178541932392307,0.16834354620953135,0.12722235593570974
0.22899999999999987,-0.0,1.503,0.03708875659786962,1.1875330865529359,0.1679887118499199,0.13026663149096868
0.22999999999999998,0.0058,0.503,0.03698035267020164,1.1869966665526037,0.16738433245847828,0.1300850073896365
0.23099999999999987,0.0214,1.503,0.03684163704024633,1.1790821988555094,0.1666109576387706,0.1274052823940787
0.23199999999999998,0.0261,-0.497,0.03673734878852869,1.1869966665526037,0.16602952418461878,0.1300850073896365
0.23299999999999987,0.0217,-1.497,0.036669449111891204,1.186996666552603,0.16565096626584178,0.13008500738963627
0.23399999999999999,0.0336,-0.497,0.03667901925867779,1.1780014181468719,0.16570432226147136,0.12703934558183852
0.23499999999999988,0.0371,-0.49699999999997224,0.036434730936916813,1.1774606557779719,0.16434235290834615,0.12685625121692876
0.236,0.0273,0.503,0.036365549785847745,1.167846781646972,0.1639566504445903,0.1236011316310032
0.23699999999999988,0.0185,0.503,0.03638725989096653,1.1774606557779699,0.1640776897870024,0.1268562512169281
0.238,0.0105,0.5030000000000278,0.0362901312271576,1.169481654903589,0.16353617285134145,0.12415467621517451
0.23899999999999988,-0.0015,1.503,0.03623202139067603,1.169481654903589,0.16321219577444926,0.12415467621517451
0.24,-0.0038,1.503,0.03621738492816688,1.1769196449435864,0.1631305937836872,0.12667307272517717
0.24099999999999988,-0.002,0.503,0.03621463484496048,1.1769196449435864,0.1631152613723027,0.12667307272517717
0.242,0.0033,1.503,0.03618296563617706,1.1763783853009149,0.16293869750101397,0.12648980999051643
0.24299999999999988,0.0145,-0.497,0.0360536244563834,1.1689369512104095,0.162217587618617,0.12397024737451838
0.244,0.0129,-0.497,0.03592520864109264,1.169481654903589,0.16150163687802555,0.12415467621517451
0.24499999999999988,0.0165,-0.497,0.035906691748568996,1.17746065577797,0.16139840050573187,0.12685625121692815
0.246,0.0226,0.503,0.03594685282529765,1.1700261050109042,0.16162230869462377,0.12433901919530223
0.2469999999999999,0.0149,0.503,0.03598635968019843,1.1424271752081783,0.1618425694308937,0.1149944182854821
0.248,0.0017,-0.497,0.036009287055402385,1.1325159425598554,0.1619703953627692,0.11163861737997711
0.2489999999999999,0.0107,-0.497,0.03602684717326468,1.1325159425598554,0.1620682974736573,0.11163861737997711
0.25,0.0121,0.503,0.03609422870044631,1.1225172023850403,0.1624439665777987,0.10825318768388055
0.2509999999999999,0.0105,1.503,0.03637221282374879,1.1319534508544453,0.16399379857084748,0.1114481657740738
0.252,0.0114,-0.497,0.0364621297684017,1.1413116840513977,0.1644951083430917,0.11461672901444674
0.2529999999999999,-0.0076,1.503,0.036471811670383346,1.1494862395441225,0.16454908740227844,0.11738451599896765
0.254,-0.0374,-0.497,0.036418204266668794,1.1576030708538823,0.1642502125300229,0.12013275840489405
0.2549999999999999,-0.0574,1.503,0.03631451368321493,1.1742108517635956,0.16367211122802935,0.12575591429203545
0.256,-0.0322,-0.497,0.03615215508438971,1.1662096165142606,0.16276692086026115,0.12304681105053092
0.2569999999999999,0.0105,1.503,0.036037556232039164,1.1758368765063625,0.1621280031924838,0.12630646289661027
0.258,0.0162,-1.497,0.036911645289225845,1.1763783853009153,0.16700127138315563,0.1264898099905166
0.2589999999999999,0.0006,-1.497,0.03715224659860765,1.176378385300915,0.16834268470712302,0.1264898099905165
0.26,0.0727,-0.497,0.03734072157674037,1.176378385300915,0.1693934805134771,0.1264898099905165
0.2609999999999999,0.0828,-2.497,0.03742709559733764,1.1673013150648972,0.16987503758551262,0.12341644448713325
0.262,0.0733,-3.497,0.037285497832260484,1.166755593473324,0.1690855941314993,0.12323167100071279
0.2629999999999999,0.0305,-1.497,0.03721234152773545,1.176378385300915,0.16867772917900073,0.1264898099905165
0.264,-0.0083,-1.497,0.037221920907041024,1.1780014181468703,0.16873113664826533,0.127039345581838
0.2649999999999999,0.0128,-0.497,0.0371772124590316,1.1358850433287417,0.1684818757111248,0.11277934647111386
0.266,-0.0318,-1.497,0.0362719190626402,1.1276118910817174,0.1634346354149713,0.1099781760428682
0.2669999999999999,-0.0491,-1.497,0.0346569210368444,1.1198464481395594,0.15443061180616466,0.10734890868717242
0.268,-0.0226,-0.497,0.0336433662256175,1.1293050131216706,0.14877978666375638,0.11055144282777885
0.2689999999999999,-0.018,0.503,0.033463485003859025,1.1298688233209584,0.14777690322883938,0.1107423408567564
0.27,-0.0224,0.503,0.03338787687267349,1.1298688233209582,0.14735536872084715,0.11074234085675633
0.2709999999999999,-0.0664,-1.497,0.03288350741963476,1.120415018045428,0.14454338109598058,0.10754141828437976
0.272,-0.0723,0.503,0.03183887344295954,1.1108807620130916,0.13871928172353065,0.10431325624218968
0.2729999999999999,-0.0459,1.503,0.030564837269871914,1.1108807620130916,0.13161620692236978,0.10431325624218968
0.274,-0.0126,-0.497,0.02982522269233691,1.1012639657047885,0.12749266806277196,0.10105714724903414
0.2749999999999999,0.0005,0.503,0.029562863075057174,1.1012639657047885,0.12602994665367293,0.10105714724903414
0.276,0.0126,-0.497,0.028980358777803975,1.0915624475534542,0.12278233745482285,0.09777235265766414
0.2769999999999999,0.0163,-0.497,0.028057236704688467,1.1198464481395594,0.11763569776401153,0.10734890868717242
0.278,-0.0065,1.503,0.027426683303269007,1.1298688233209584,0.11412020262264966,0.1107423408567564
0.2789999999999999,-0.0035,-0.497,0.02710005311274271,1.1304323523164208,0.11229915646663431,0.11093314367416086
0.28,0.0101,-0.497,0.027102335997214656,1.1209832995690376,0.11231188412657771,0.10773383023949956
0.2809999999999999,0.0081,-1.497,0.027114177135013278,1.1209832995690376,0.11237790147309513,0.10773383023949956
0.28200000000000003,0.0104,1.5029999999999444,0.02707467955109829,1.119277589411955,0.11215769242492238,0.10715630129907708
0.2829999999999999,0.0087,0.5029999999999445,0.026966943305517032,1.1198464481395596,0.11155703553045972,0.1073489086871725
0.28400000000000003,0.007,-0.497,0.026893153005802424,1.1120267793145482,0.1111456358939779,0.10470128122701365
0.2849999999999999,0.0151,-0.496999999999889,0.026700737151178714,1.1125993453007406,0.11007286870165461,0.10489514383957688
0.28600000000000003,0.0138,1.5029999999998889,0.026511304756523014,1.1209832995690379,0.10901673505535357,0.10773383023949964
0.2869999999999999,0.0015,-0.4970000000000555,0.026548758300827462,1.1209832995690379,0.10922554806426395,0.10773383023949964
0.28800000000000003,0.0088,-1.497,0.026537310029550797,1.130432352316421,0.10916172104824991,0.11093314367416093
0.2889999999999999,-0.0024,-1.497,0.026527469422514202,1.1550134490172774,0.10910685716812918,0.11925594967559189
0.29000000000000004,0.0052,0.503,0.026543547139564232,1.1457671326058523,0.10919649451850479,0.11612527985004836
0.2909999999999999,0.0042,-0.497,0.026640823867702525,1.1358850433287417,0.10973883695035579,0.11277934647111386
0.29200000000000004,0.0005,0.503,0.02672464988109227,1.1353242208316474,0.11020618823595349,0.11258946003515222
0.2929999999999999,0.0128,0.503,0.026729809219465762,1.1353242208316474,0.11023495285595841,0.11258946003515222
0.29400000000000004,0.0114,-1.497,0.026691354740170935,1.1358850433287417,0.11002055938060766,0.11277934647111386
0.29499999999999993,0.0219,0.503,0.026663896661819328,1.1364455890665806,0.10986747362955325,0.11296913920036987
0.29600000000000004,0.022999999999998067,-0.497,0.026741778075331717,1.137005858454492,0.11030168226309461,0.11315883836151286
0.29699999999999993,0.0143,-0.497,0.026702094376291948,1.1446548963150143,0.11008043557589646,0.115748692629834
0.29800000000000004,0.01110000000000242,0.503,0.026662187921029114,1.1522531584491462,0.10985794696625666,0.11832135496707609
0.29899999999999993,0.022,-0.497,0.026691841914417622,1.1528057453044647,0.11002327550059586,0.11850845293311582
0.30000000000000004,0.04479999999999636,1.503,0.026778367686511952,1.1528057453044647,0.1105056786257165,0.11850845293311582
0.30099999999999993,0.0284,1.503,0.027081198558153757,1.1522531584491462,0.11219403754268466,0.11832135496707609
0.30200000000000005,0.013399999999998202,-1.497,0.027422194308280332,1.1505938055644074,0.11409517533703552,0.11775952193270561
0.30299999999999994,0.0053,-1.497,0.028489651536659458,1.1752951182155422,0.12004652012643914,0.1261230313268542
0.30400000000000005,-0.011599999999996603,-2.497,0.030582204060665367,1.1656633838288761,0.13171303118581518,0.12286186451509269
0.30499999999999994,0.0037,-0.497,0.03069935501227322,1.1752951182155422,0.13236617745424578,0.1261230313268542
0.30600000000000005,-0.026600000000012676,1.503,0.030418159581453223,1.1656633838288761,0.13079844160729684,0.12286186451509269
0.30699999999999994,-0.0837,0.503,0.03067115993077078,1.1662096165142593,0.13220898272369797,0.12304681105053046
0.30800000000000005,-0.04489999999999849,0.503,0.030716126291027546,1.1662096165142593,0.1324596815870322,0.12304681105053046
0.30899999999999994,-0.0381,1.503,0.030810624515134652,1.1853859500829824,0.1329865331541921,0.1295396419462997
0.31000000000000005,-0.032000000000003845,0.503,0.03259842680166069,1.2042569624701922,0.1429539843452404,0.13592909547885404
0.31099999999999994,-0.0493,-0.497,0.03223758135466894,1.204785697503454,0.14094217945635013,0.13610811756080393
0.31200000000000006,-0.02279999999999687,1.503,0.031260747046864254,1.1812407936833766,0.13549608043401126,0.1281361515740289
0.31299999999999994,-0.0087,1.503,0.030436924851409277,1.1309956005283943,0.13090306274677266,0.11112385142231211
0.31400000000000006,-0.013099999999999112,-1.497,0.030805417824722757,1.1226864182244003,0.1329575045345631,0.1083104817346913
0.31499999999999995,-0.0091,-0.497,0.031191323647370955,1.1148866687549155,0.1351090273738484,0.10566959868198257
0.31600000000000006,0.00900000000000071,0.503,0.03190324782251632,1.1148866687549155,0.139078185216955,0.10566959868198257
0.31699999999999995,0.0122,1.503,0.032351650424548344,1.1070319664171095,0.14157814345248113,0.10301010937798144
0.31800000000000006,-0.0025999999999982235,0.503,0.03207926663001686,1.099121133074618,0.1400595347127526,0.10033161492265004
0.31899999999999995,0.0054,-0.497,0.0320653035187766,1.1093307692808,0.1399816868260979,0.10378845098343811
0.32000000000000006,0.022099999999997514,0.503,0.0320164101358291,1.1087565153910852,0.13970909381524468,0.10359401687100497
0.32099999999999995,0.0109,0.503,0.03196857027694712,1.1087565153910852,0.139442374468264,0.10359401687100497
0.32200000000000006,0.0010999999999938938,0.503,0.03129253989848951,1.1002793989133541,0.135673333645503,0.10072378708613003
0.32299999999999995,-0.0264,0.503,0.030565625119101256,1.0997004184877723,0.13162059938164705,0.10052775263659404
0.32399999999999984,-0.0224,0.503,0.030365332389206558,1.0894005323664397,0.13050391661186128,0.09704035925183527
0.32499999999999996,-0.0115,0.503,0.030382394672704927,1.0894005323664397,0.13059904316990384,0.09704035925183527
0.32599999999999985,-0.0016,2.503,0.030468674469435544,1.0991211330746178,0.13108007491998458,0.10033161492264997
0.32699999999999996,0.0133,1.503,0.030464629123357033,1.099121133074618,0.13105752108956814,0.10033161492265004
0.32799999999999985,0.0054,0.503,0.030470793779527758,1.0991211330746178,0.1310918906112733,0.10033161492264997
0.32899999999999996,0.0033,0.503,0.030615881300260817,1.0894005323664397,0.1319007903381816,0.09704035925183527
0.32999999999999985,0.0098,0.503,0.030638130341505074,1.0894005323664397,0.13202483438618465,0.09704035925183527
0.33099999999999996,0.0157,-1.497,0.03067853890554996,1.0894005323664397,0.13225012237963518,0.09704035925183527
0.33199999999999985,0.0103,0.503,0.030770808193186054,1.0911529478827118,0.13276454706063984,0.09763370195551217
0.33299999999999996,0.0089,0.503,0.03084078857424437,1.0813607216938221,0.133154705434296,0.09431819492651046
0.33399999999999985,0.0104,0.503,0.030900851839073016,1.0894005323664409,0.13348957336967482,0.09704035925183564
0.33499999999999996,0.0194,-1.497,0.03106106246619572,1.0997004184877737,0.13438278825040742,0.10052775263659448
0.33599999999999985,0.0307,0.503,0.031509182063302735,1.0997004184877741,0.13688116866169756,0.10052775263659464
0.33699999999999997,0.0168,1.503,0.03190334565678652,1.097961645354399,0.13907873066782525,0.09993902904766391
0.33799999999999986,0.0077,-2.497,0.03205532100865978,1.1064565194432128,0.13992603180031377,0.10281527130439433
0.33899999999999997,0.0091,0.503,0.03204297711999739,1.0985415421914133,0.13985721149021718,0.10013537378093798
0.33999999999999986,0.0228,-0.497,0.03206001659632115,1.0899849839200715,0.13995221089247667,0.09723824614668412
0.34099999999999997,0.021,-0.497,0.032088545279298504,1.0894005323664426,0.1401112655358591,0.09704035925183624
0.34199999999999986,0.0061,1.503,0.03267288222154094,1.0894005323664426,0.14336909219534133,0.09704035925183624
0.34299999999999997,-0.0036,0.503,0.03314041249835473,1.0894005323664426,0.14597569206916405,0.09704035925183624
0.34399999999999986,-0.0053,0.503,0.03348532100047299,1.0888157670925502,0.14789864444826722,0.0968423661358167
0.345,-0.0266,0.502999999999889,0.03409580409636679,1.0905691222578182,0.15130224254585412,0.09743602699113664
0.34599999999999986,-0.0178,-1.497,0.03455896863198664,1.0985415421914133,0.15388450230522946,0.10013537378093798
0.347,-0.0042,-1.496999999999889,0.03461262501526184,1.1070319664171124,0.1541836502509584,0.10301010937798241
0.34799999999999986,0.0125,0.5029999999999445,0.034582884098853,1.1070319664171124,0.1540178370987344,0.10301010937798241
0.349,0.0239,-0.497,0.03485378026368854,1.1070319664171124,0.15552815192559769,0.10301010937798241
0.34999999999999987,0.042,-0.4970000000000555,0.03499664752517901,1.1076071144229296,0.15632467314410003,0.10320484622527529
0.351,0.0442,-1.4970000000000556,0.03477064747806708,1.1076071144229296,0.15506466556063286,0.10320484622527529
0.35199999999999987,0.0779,-2.497,0.03469011706934361,1.0979616453543988,0.15461568810692006,0.09993902904766384
0.353,0.1112,-0.497,0.03479574414360354,1.0899849839200715,0.15520458583631325,0.09723824614668412
0.35399999999999987,0.0456,1.503,0.034887813560643396,1.081949516231297,0.15571789618805032,0.09451755229326032
0.355,-0.0396,-0.497,0.034883529492630905,1.0656968315036588,0.15569401142230443,0.08901462686903217
0.35599999999999987,-0.0509,0.503,0.035046393823975806,1.0762235953457056,0.15660202137713977,0.09257883778876631
0.357,-0.02,1.503,0.03496891002412801,1.0662942754830333,0.156170029540626,0.08921691281247765
0.3579999999999999,-0.0294,2.503,0.03396586716665335,1.074446830432287,0.15057781120655314,0.09197725072922648
0.359,-0.1067,2.503,0.03371952698465985,1.0825379905223103,0.14920440221221448,0.0947168012291616
0.3599999999999999,-0.0548,0.503,0.03357329491490118,1.1014364467253766,0.1483891213341942,0.1011155468432733
0.361,-0.0265,0.503,0.033445306371829735,1.10085807483257,0.14767555274459537,0.10091971843418765
0.3619999999999999,-0.0182,-0.497,0.03320476308800997,1.111051750111565,0.14633446292785346,0.10437115035446087
0.363,-0.0568,-0.497,0.03344543434152946,1.1110517501115642,0.14767626620812854,0.10437115035446057
0.3639999999999999,-0.0498,0.503,0.03382407110700849,1.1014364467253754,0.14978726221003102,0.10111554684327292
0.365,-0.0685,-0.497,0.03391023576873565,1.1031697430259182,0.1502676520532656,0.10170241605533345
0.3659999999999999,-0.0625,0.503,0.033929510910225266,1.1133422530514885,0.15037511585586072,0.10514668172503741
0.367,-0.0254,0.503,0.033921467749706204,1.1211527469207152,0.15033027319596495,0.10779120267705315
0.3679999999999999,-0.0205,1.503,0.033899251660421494,1.1194472949518508,0.1502064128634941,0.10721376115544999
0.369,0.0014,-0.497,0.03398992956960616,1.1272154876833071,0.15071196520600774,0.10984395955027526
0.3699999999999999,0.0134,0.503,0.034099807619006973,1.1524180080037003,0.15132456319999416,0.1183771706566148
0.371,0.0099,-0.497,0.03416418737434608,1.1524180080037003,0.15168349666476844,0.1183771706566148
0.3719999999999999,0.0262,-0.497,0.034197372279680345,1.1599654196006521,0.15186851092875708,0.12093261573291979
0.373,0.0292,-0.497,0.03419873189807671,1.1594162451071517,0.1518760911461594,0.12074667314354057
0.3739999999999999,0.0158,-0.497,0.03411062126160481,1.1685545664064287,0.15138485200016163,0.1238407773764887
0.375,0.0227,1.503,0.03404667206164975,1.1759984201381468,0.15102831899085598,0.1263611592482202
0.3759999999999999,0.0116,-0.497,0.03404146621673012,1.183395451092118,0.1509992950850608,0.1288656876004616
0.377,0.0174,-0.497,0.03410361184392432,1.156666461502026,0.15134577271878108,0.11981563594166583
0.3779999999999999,0.0302,0.503,0.03515319148377466,1.1550134490172694,0.15719744541781022,0.11925594967558918
0.379,0.0119,-0.497,0.036973616511042647,1.1625440107406122,0.16734677666266215,0.121805689626899
0.3799999999999999,0.0186,-0.497,0.03766695918847602,1.1864600040271138,0.1712123379431641,0.1299033011727721
0.381,0.025,1.503,0.037970135904485496,1.2099033454797823,0.17290262503019915,0.1378408796018528
0.3819999999999999,0.0231,0.503,0.03857758378223176,1.2099033454797823,0.17628930101678544,0.1378408796018528
0.383,0.021,-1.497,0.03864694639109453,1.209376847865139,0.17667601515376471,0.13766261507768535
0.3839999999999999,0.0321,1.503,0.03913962673037515,1.209376847865139,0.1794228330046978,0.13766261507768535
0.385,0.0549,-0.497,0.04038232150002361,1.2181404292622298,0.18635117153250602,0.14062983776645963
0.3859999999999999,0.0517,-1.497,0.04129786241878796,1.210429614085065,0.19145554436498716,0.13801906658674265
0.387,0.031,-1.497,0.041924820756088214,1.219185628157201,0.19495099611206157,0.14098372708806395
0.3879999999999999,0.0013,0.503,0.04280407087944375,1.235996497226436,0.19985303855563566,0.1466756457067244
0.389,-0.0109,-0.497,0.043870662977155965,1.2130575323985537,0.20579956002214655,0.1389088419526242
0.3899999999999999,-0.0148,-0.497,0.04423963458569193,1.2217947135913703,0.2078566703226995,0.14186712591172151
0.391,-0.0619,-0.497,0.04423834239324146,1.230987332453798,0.2078494660220469,0.1449796145190511
0.3919999999999999,-0.0557,0.503,0.04418927563666264,1.2315045911049896,0.20757590640922596,0.1451547508629994
0.393,-0.0499,-0.497,0.04418504779537382,1.222836789053109,0.20755233512172544,0.14221995768373116
0.3939999999999999,-0.0655,1.503,0.044188875990648836,1.222836789053109,0.20757367828133605,0.14221995768373116
0.395,-0.0608,-1.497,0.044186380655379776,1.2223158623738661,0.20755976615431446,0.14204357939821075
0.3959999999999999,-0.0304,-1.497,0.04413317552899122,1.2309873324537988,0.2072631340801817,0.1449796145190513
0.397,-0.0025,-0.497,0.04411219702195736,1.2238779772361372,0.2071461735826496,0.1425724890359236
0.3979999999999999,0.0446,0.503,0.044134976004613594,1.2162035390569177,0.20727317218843447,0.13997403458480898
0.399,0.0384,0.503,0.0441194898589288,1.2416515368316798,0.2071868329984614,0.14859036082857713
0.3999999999999999,0.021,1.503,0.04409897108299793,1.242164354732264,0.20707243561843094,0.14876399359820353
0.401,0.0159,0.503,0.04393132244709705,1.2421643547322638,0.20613775195224385,0.14876399359820344
0.4019999999999999,0.0301,0.503,0.043709745314770565,1.2421643547322632,0.20490240324049774,0.14876399359820322
0.403,0.0257,0.503,0.04305823842158443,1.2193414287722162,0.20127008706806304,0.14103647893674892
0.4039999999999999,-0.0102,1.503,0.041678609124555635,1.2269962406907853,0.19357830381914698,0.1436282882181254
0.405,-0.0342,1.503,0.041551850241565706,1.2254381008098574,0.1928715908963836,0.1431007244519569
0.4059999999999999,-0.0126,0.503,0.0414357408914642,1.2259577008067692,0.19222425182053424,0.14327665354191044
0.40700000000000003,0.0071,-1.497,0.0411719754541441,1.2259577008067692,0.19075369260814937,0.14327665354191044
0.4079999999999999,0.0179,-1.496999999999778,0.041189985478614306,1.2635677892035198,0.19085410306248723,0.15601088884606262
0.40900000000000003,0.021,2.5029999999998336,0.04115847368183179,1.2610451346632767,0.1906784168030283,0.1551567542806858
0.4099999999999999,0.0121,-0.496999999999889,0.03996849584581797,1.235996497226437,0.18404398855092846,0.14667564570672478
0.41100000000000003,-0.0286,1.503,0.04017255228408821,1.2445726521207878,0.1851816549495043,0.14957940847583742
0.4119999999999999,-0.0462,1.5029999999999444,0.040312514832726284,1.2445726521207878,0.18596198165712674,0.14957940847583742
0.41300000000000003,-0.0514,0.5030000000000555,0.04027754413909603,1.2520732171706341,0.1857670111704551,0.15211899198468914
0.4139999999999999,-0.0276,1.503,0.039885421905917984,1.25258176835166,0.18358083026578598,0.15229118010440512
0.41500000000000004,-0.0147,1.5029999999998334,0.03975695143407928,1.25258176835166,0.18286457480107712,0.15229118010440512
0.4159999999999999,0.0053,-1.497,0.03958869091192055,1.2530901131434729,0.18192647971380865,0.1524632983437003
0.41700000000000004,0.0017,-1.497,0.04029263677563852,1.2530901131434729,0.18585115644715333,0.1524632983437003
0.4179999999999999,0.0247,-1.497,0.04083544352348401,1.2530901131434729,0.18887744173949111,0.1524632983437003
0.41900000000000004,0.0277,-2.497,0.04082467010584843,1.2445726521207878,0.18881737720369052,0.14957940847583742
0.41999999999999993,0.0304,0.503,0.04083936686864719,1.2520732171706335,0.1888993153838613,0.15211899198468892
0.42100000000000004,0.018499999999996578,-1.497,0.04081954439564791,1.2515644593488064,0.1887888000692791,0.15194673389936802
0.42199999999999993,0.0031,-0.497,0.040826202318977045,1.2515644593488067,0.18882591968050066,0.1519467338993681
0.42300000000000004,0.008899999999996314,1.503,0.04077870067012356,1.259023371766433,0.1885610859402097,0.15447221442568673
0.42399999999999993,-0.0077,-1.497,0.04067739741892356,1.2595291167357214,0.18799629462103504,0.15464345240244637
0.42500000000000004,-0.009799999999993293,-1.497,0.040743356811685845,1.2595291167357212,0.18836403496508997,0.1546434524024463
0.42599999999999993,0.0204,0.503,0.040749991388337424,1.2510554946340775,0.1884010244126627,0.15177440576308454
0.42700000000000005,0.0861000000000063,-1.497,0.04078426004766639,1.251055494634077,0.18859208088004636,0.1517744057630844
0.42799999999999994,0.1145,-1.497,0.04074819748049749,1.2600346587122178,0.18839102292146284,0.15481462164876453
0.42900000000000005,0.07179999999999487,-2.497,0.04063708642792361,1.2684482986732093,0.18777155062205764,0.15766335919751595
0.42999999999999994,0.0487,-2.497,0.040619603395075254,1.275808504892489,0.18767407827967347,0.1601554192239287
0.43100000000000005,0.06979999999999009,-1.497,0.04062053519137035,1.2758085048924888,0.1876792732803519,0.16015541922392862
0.43199999999999994,0.0252,-0.497,0.04062240918660018,1.2758085048924888,0.1876897212790631,0.16015541922392862
0.43300000000000005,-0.0628000000000083,0.503,0.04062472555776685,1.2753092158002537,0.18770263563582287,0.15998636711433914
0.43399999999999994,-0.1002,1.503,0.04062790450446981,1.2753092158002537,0.18772035906997417,0.15998636711433914
0.43500000000000005,-0.08889999999999776,-0.497,0.040534040407574114,1.27381017430079,0.18719704292285272,0.1594788132106235
0.43599999999999994,-0.0788,1.503,0.04023045359015966,1.27381017430079,0.18550446941647009,0.1594788132106235
0.43700000000000006,-0.08820000000000189,2.503,0.04013943726790856,1.27381017430079,0.18499703033527878,0.1594788132106235
0.43799999999999994,-0.0967,0.503,0.04036494945222089,1.266941139380243,0.1862543179599006,0.15715305672560975
0.43900000000000006,-0.05799999999999223,1.503,0.04061168531928107,1.2753092158002537,0.1876299329988444,0.15998636711433914
0.43999999999999995,-0.023,1.503,0.040605582932598625,1.2841187976223065,0.18759591064532993,0.1629691648857715
0.44100000000000006,-0.0042999999999987345,0.503,0.0406936896104836,1.284614662713262,0.18808712772120154,0.1631370576777461
0.44199999999999995,0.0014,0.503,0.040379734734068834,1.2846146627132617,0.18633674965622182,0.16313705767774603
0.44300000000000006,0.006499999999998934,0.503,0.04005339374733517,1.308733098137205,0.18451731588470172,0.1713032132213482
0.44399999999999995,0.0017,-0.497,0.04007740145902254,1.3087330981372052,0.18465116496647999,0.17130321322134828
0.44500000000000006,0.014799999999999135,1.503,0.03973880360890034,1.3000903167310753,0.18276339607283743,0.1683768916730714
0.44599999999999995,0.0109,0.503,0.03928024965865867,1.2928683525049476,0.18020684149633692,0.16593163839837755
0.44700000000000006,0.014499999999997846,-0.497,0.03916489512825386,1.2856058191217894,0.179563710731743,0.16347264899027536
0.44799999999999995,0.0048,2.503,0.03916926122872582,1.2943453220302945,0.17958805284925647,0.16643171904893125
0.44900000000000007,0.019799999999999447,0.503,0.03891285071694209,1.2943453220302945,0.17815849921218047,0.16643171904893125
0.44999999999999996,0.0173,-0.497,0.038720732062951825,1.302537353749464,0.17708738898876822,0.16920542323251397
0.45099999999999985,0.0054,-1.497,0.03892612236928644,1.3010696838216649,0.17823249204011446,0.16870849129201268
0.45199999999999996,0.021,0.503,0.03941779832948785,1.307759470108287,0.18097371022293837,0.1709735567661927
0.45299999999999985,0.0267,-1.497,0.039454087353117555,1.3144152088118914,0.18117603073372748,0.17322709421818053
0.45399999999999996,0.0321,-1.497,0.039569738531455,1.3139305902158829,0.1818208153857852,0.17306300932773197
0.45499999999999985,0.024,0.503,0.03980695612374848,1.31247566078469,0.18314336362876668,0.172570391136243
0.45599999999999996,0.0195,0.503,0.03968649113078088,1.3043460487544165,0.18247174073920894,0.1698178213620674
0.45699999999999985,0.023,-3.497,0.039691802481020756,1.31247566078469,0.18250135286392402,0.172570391136243
0.45799999999999996,0.0241,-2.497,0.04027146836901139,1.305810036205155,0.1857331372112242,0.17031350646876983
0.45899999999999985,0.0408,0.503,0.041264184484186464,1.3072723841674938,0.19126778133778574,0.17080863646826694
0.45999999999999996,0.0677,1.503,0.04142788199736799,1.2913896937625073,0.1921804364926817,0.1654309858031977
0.46099999999999985,0.0424,0.503,0.041861910245751074,1.3389482148910101,0.19460025406082063,0.18153361742637072
0.46199999999999997,0.0062,-1.497,0.04300203254694561,1.3389482148910103,0.20095672506134962,0.1815336174263708
0.46299999999999986,-0.0078,0.503,0.04310246089241549,1.3309803067321753,0.20151663855917487,0.1788357982586486
0.46399999999999997,-0.0381,0.503,0.04280944093237629,1.3309803067321748,0.19988297796275126,0.17883579825864845
0.46499999999999986,-0.0579,0.503,0.042765057705527444,1.3229644105787293,0.1996355302160674,0.17612173104575557
0.46599999999999997,-0.0977,0.503,0.042763556974697255,1.3148996487971925,0.1996271632610559,0.17339111863361095
0.46699999999999986,-0.0712,0.503,0.04292695814569296,1.308246374697396,0.2005381662331041,0.17113841566104496
0.46799999999999997,-0.0182,0.503,0.0432240142222828,1.3010696838216735,0.2021943292029854,0.16870849129201562
0.46899999999999986,-0.0113,-1.4969999999999446,0.04325921445359561,1.2943453220303032,0.20239057942045538,0.1664317190489342
0.47,-0.0051,-0.497,0.04325101721290742,1.2719580587282069,0.2023448777245371,0.1588517135010202
0.47099999999999986,0.0123,-0.4970000000000555,0.04324542626579858,1.271457257603526,0.20231370677636287,0.15868214943897926
0.472,0.0174,-1.496999999999889,0.04332787199356676,1.2865962119724002,0.2027733626195359,0.1638079817730698
0.47299999999999986,-0.0066,0.5029999999999445,0.04334864706826126,1.2865962119724,0.20288918893017913,0.1638079817730697
0.474,-0.0284,-0.4969999999999445,0.04339832047769993,1.2851103364726624,0.2031661307865602,0.16330488568760645
0.47499999999999987,-0.0243,0.5029999999999445,0.04348004824066096,1.2851103364726624,0.20362178379383458,0.16330488568760645
0.476,-0.0207,-0.496999999999889,0.04347105730465467,1.2865962119724004,0.2035716570452115,0.16380798177306988
0.47699999999999987,-0.0043,1.503,0.04342216308292169,1.2865962119724004,0.20329905935791645,0.16380798177306988
0.478,0.0044,1.5029999999998334,0.0427738877804441,1.2797958052609912,0.19968476012331632,0.16150546181317257
0.47899999999999987,0.002,-1.4969999999999446,0.04137489623118791,1.2812878438963191,0.191885027407348,0.1620106446477546
0.48,0.0188,-0.497,0.04074318416125675,1.2586683556117466,0.18836307239515812,0.15435201105889695
0.48099999999999987,0.0253,1.503,0.04047233234040495,1.2431893559186098,0.18685300479725117,0.14911104426599958
0.482,0.0235,-0.497,0.040021713630938205,1.2431893559186098,0.18434069120070096,0.14911104426599958
0.4829999999999999,0.0216,-1.497,0.04032773115201552,1.2506982167646912,0.18604681649650798,0.1516534366122084
0.484,0.0166,-1.497,0.04017884176484053,1.257655970015838,0.18521672039991136,0.15400923184867985
0.4849999999999999,0.024,-0.497,0.03922149059819448,1.2491696416682279,0.1798792448310777,0.15113588305708003
0.486,0.0441,-1.497,0.038482142305930944,1.2491696416682279,0.17575719057940678,0.15113588305708003
0.4869999999999999,0.0526,0.503,0.037812411521829604,1.2401118107508005,0.17202327159295994,0.14806903171041552
0.488,0.0445,1.503,0.03677482001277252,1.2141071070588374,0.16623843576367542,0.13926421284546375
0.4889999999999999,0.0078,1.503,0.03550802128384669,1.213582433195137,0.1591757115493632,0.13908656581715004
0.49,-0.0307,0.503,0.03518227225170453,1.2135824331951373,0.15735957807482928,0.13908656581715012
0.4909999999999999,-0.0357,-0.497,0.03570284423588562,1.2135824331951373,0.16026189892029297,0.13908656581715012
0.492,-0.0215,2.503,0.03607543989137965,1.2223158623738708,0.162339214201811,0.14204357939821233
0.4929999999999999,-0.0518,-0.497,0.03621650297380584,1.2309873324538028,0.16312567666443262,0.14497961451905264
0.494,-0.0397,-0.497,0.03632126605028683,1.239598143719439,0.1637097573870708,0.14789511143731382
0.4949999999999999,-0.007,-0.497,0.03632099764207027,1.2401118107508002,0.16370826094318663,0.14806903171041544
0.496,-0.0026,-0.497,0.03629381428836184,1.2385701705639367,0.16355670685169685,0.14754705450348196
0.4969999999999999,-0.0065,1.503,0.03631302502865702,1.2385701705639367,0.16366381160129875,0.14754705450348196
0.498,-0.0029,0.503,0.036335654238989885,1.2615500691248365,0.16378997518839378,0.15532771783117913
0.4989999999999999,0.0004,1.503,0.03633512309673833,1.2365116604411703,0.16378701393562675,0.1468500725660093
0.5,0.045,-1.497,0.036280523517059175,1.2359964972264403,0.1634826074307211,0.1466756457067259
0.5009999999999999,0.0639,-1.497,0.03624075379323832,1.2359964972264403,0.16326088113354978,0.1466756457067259
0.502,0.0345,-1.497,0.03623707146113773,1.2283977720620385,0.16324035119813213,0.14410282659409027
0.5029999999999999,0.0396,-0.497,0.036210779016003364,1.2278792046272426,0.1630937641479056,0.14392724711482663
0.504,0.0443,-1.497,0.036198535512290714,1.2278792046272429,0.16302550350936465,0.1439272471148267
0.5049999999999999,0.0138,0.503,0.03609504092106563,1.2278792046272429,0.16244849491375643,0.1439272471148267
0.506,-0.0142,1.503,0.03623649500538326,1.2273604180944897,0.1632371373110934,0.14375159345214414
0.5069999999999999,-0.0687,0.503,0.03618468777623109,1.2268414121858335,0.16294829886860485,0.14357586551193424
0.508,-0.092,1.503,0.03632847867055152,1.1785419323923014,0.16374996957439694,0.12722235593570785
0.5089999999999999,-0.0427,1.503,0.03624709503821621,1.153910125143583,0.1632962351826434,0.11888238007171065
0.51,-0.0616,3.503,0.036016605419112405,1.1630917084047283,0.16201119709662293,0.1219911321830774
0.5109999999999999,-0.1026,1.503,0.03541799733415469,1.153910125143583,0.15867380519688615,0.11888238007171065
0.512,-0.0548,0.503,0.03530117079187835,1.153910125143583,0.15802246759275929,0.11888238007171065
0.5129999999999999,-0.0103,0.503,0.03540287820294004,1.146322846065095,0.1585895122056707,0.1163134364392334
0.514,0.019,0.503,0.035395441303594476,1.1457671326058487,0.15854804960558438,0.11612527985004716
0.5149999999999999,0.0138,0.503,0.035253186356690676,1.1457671326058478,0.15775494219620523,0.11612527985004686
0.516,0.0376,0.503,0.0353900818387117,1.1533580674092168,0.1585181692295317,0.11869546125841945
0.5169999999999999,0.0504,-0.497,0.03477320183555196,1.152805745304461,0.15507890675147756,0.11850845293311454
0.518,0.0302,0.503,0.03430823363698801,1.1522531584491424,0.15248659111372245,0.11832135496707481
0.5189999999999999,0.0264,-0.497,0.034300460172359236,1.1598016428054088,0.15244325207681853,0.12087716326426329
0.52,0.0296,-0.497,0.03447606941048834,1.1598016428054052,0.15342231811949056,0.12087716326426208
0.5209999999999999,0.0324,-2.497,0.034948471448375276,1.1694816549035787,0.15605607929693,0.12415467621517105
0.522,0.0136,-0.497,0.036053918426468386,1.1700261050108935,0.16221922657640095,0.12433901919529862
0.5229999999999999,-0.0229,-1.497,0.03672501893431861,1.1625440107406098,0.1659607821201534,0.12180568962689817
0.524,-0.0279,-1.497,0.03688757951214409,1.17002610501089,0.16686709857207638,0.12433901919529741
0.5249999999999999,-0.0039,1.503,0.036797097844086225,1.1796222178769116,0.1663626403236177,0.12758812507221098
0.526,0.0005,0.503,0.03671861468895946,1.1869966665525808,0.16592507682795535,0.13008500738962875
0.5269999999999999,-0.0434,0.503,0.03667587936156153,1.1875330865529123,0.1656868165386702,0.1302666314909607
0.528,-0.0375,1.503,0.03668217663324647,1.1859230986472258,0.16572192542550263,0.12972151272889942
0.5289999999999999,-0.0005,-0.497,0.03667969065065786,1.1769196449435675,0.16570806544204666,0.12667307272517078
0.53,0.0137,-1.497,0.0367164483001018,1.1694816549035705,0.1659129986606086,0.12415467621516826
0.5309999999999999,0.0355,-1.497,0.03667715198694725,1.1694816549035705,0.16569391174797396,0.12415467621516826
0.532,0.0555,-1.497,0.036613585892327244,1.1678467816469522,0.16533951464807894,0.12360113163099651
0.5329999999999999,0.0519,-1.497,0.0366053920441219,1.1683919935766824,0.165293831866113,0.12378573255324309
0.534,0.0487,0.503,0.03659455538372419,1.1603506348966437,0.16523341473587316,0.12106304409485735
0.5349999999999999,0.0458,-0.497,0.03655728017840489,1.16199605492355,0.16502559601203742,0.12162015966384386
0.536,0.0324,-0.497,0.03648988952684931,1.1625440107406013,0.16464987603719702,0.12180568962689532
0.5369999999999999,0.0005,-0.497,0.03622813026785488,1.1550134490172586,0.16319050177780856,0.1192559496755855
0.538,-0.0125,-0.497,0.03584600111351387,1.1544619188868004,0.1610600348222193,0.11906920950139355
0.5389999999999999,-0.0324,1.503,0.03556649784495815,1.1446548963149956,0.15950173320908004,0.11574869262982769
0.54,-0.0651,1.503,0.03555813958028627,1.134763121164939,0.1594551337636119,0.1123994797535434
0.5409999999999999,-0.0521,1.503,0.035445400770509665,1.1440983726965717,0.15882658630495036,0.11556026173238951
0.542,-0.0322,1.503,0.035275034761906514,1.1446548963149956,0.15787675259673575,0.11574869262982769
0.5429999999999999,-0.0286,1.503,0.03521278865656921,1.1169992574554355,0.15752971477188318,0.106384890848529
0.544,0.0011,0.503,0.0348334401169211,1.1175692758871567,0.15541475044845943,0.10657789089576816
0.5449999999999999,0.0051,-1.497,0.034612543768581604,1.1259162229739805,0.15418319728010932,0.10940404719600451
0.546,0.016000000000000732,0.503,0.034657075632991856,1.1259162229739805,0.15443147371889723,0.10940404719600451
0.5469999999999999,0.0193,-2.497,0.034698053542890135,1.1259162229739803,0.1546599359598847,0.10940404719600443
0.548,0.004399999999999445,0.503,0.03472620969471404,1.1164289479877543,0.15481691364760083,0.10619179226069729
0.5489999999999999,0.0019,-0.497,0.03472523545713827,1.1164289479877543,0.15481148202601824,0.10619179226069729
0.55,0.004099999999999534,-0.497,0.03474978673651908,1.1068603573414735,0.15494836163555353,0.10295200501176924
0.5509999999999999,0.002,-0.497,0.03446279042568113,1.0983686065729683,0.1533482844112164,0.1000768202663991
0.552,0.01590000000000202,-0.497,0.03388355732383807,1.0903949222217353,0.1501189129564573,0.09737704536296095
0.5529999999999999,0.025,-1.497,0.03372158131582675,1.090394922221735,0.14921585562951378,0.09737704536296088
0.554,0.017000000000005087,-1.497,0.03359366523855906,1.0989482886632993,0.14850269105515054,0.10027309228953307
0.5549999999999999,0.0399,-0.497,0.03343059898565229,1.0989482886632993,0.147593555336394,0.10027309228953307
0.556,0.003499999999990341,-0.497,0.03344152717298167,1.0983686065729685,0.14765448275249207,0.10007682026639918
0.5569999999999999,-0.04,-0.497,0.03342617316353656,1.088641286491604,0.14756888025556922,0.09678328951241127
0.558,0.0007999999999988454,-0.497,0.03289684592897606,1.0880561131684083,0.14461774666862962,0.09658515823676318
0.5589999999999999,-0.0044,1.503,0.03199381729803657,1.0782357627866896,0.13958313301428726,0.09326012876034134
0.56,-0.018600000000002906,0.503,0.031716526693761744,1.0782357627866899,0.13803716756571618,0.09326012876034143
0.5609999999999999,-0.0317,0.503,0.03111702088490243,1.0295848044965965,0.1346947706275366,0.07678761361751424
0.562,-0.027799999999994357,0.503,0.029531190607651827,1.0192012187980082,0.12585336461474048,0.07327188075903797
0.563,-0.0024,-0.496999999999889,0.029227746145063266,1.0295848044965963,0.1241615847726179,0.07678761361751417
0.5640000000000001,0.020500000000009948,0.502999999999778,0.029789923191650757,1.0289660462810932,0.12729586439336774,0.07657811098009751
0.565,0.0653,-1.496999999999889,0.03130384972631428,1.0392520722376717,0.13573638880415906,0.08006081151230375
0.5660000000000001,0.07169999999999352,-0.497,0.03167237826845607,1.0476150911228777,0.1377910288971887,0.08289240949244789
0.567,0.0425,-0.497000000000111,0.03145047146479894,1.0470069884663833,0.13655384218415909,0.08268651467414301
0.5680000000000001,0.01619999999998825,-1.497,0.03124184072020864,1.0740931725858542,0.13539067286765893,0.09185750726608634
0.569,-0.0367,-1.496999999999667,0.03170203456294435,1.073500069000741,0.13795637026074273,0.09165669091774666
0.5700000000000001,-0.05770000000000711,1.5029999999998889,0.032100599417652774,1.073500069000741,0.140178470414498,0.09165669091774666
0.571,-0.0897,0.503,0.032392082344756386,1.0740931725858542,0.14180356166246513,0.09185750726608634
0.5720000000000001,-0.07229999999999182,0.502999999999778,0.03232054885971904,1.077053791437686,0.1414047443402092,0.09285993025184015
0.573,-0.0354,-1.496999999999667,0.032291115393286364,1.0776449391618952,0.14124064529958144,0.09306008437379226
0.5740000000000001,-0.011499999999997136,1.5029999999996668,0.03221224209615084,1.0983686065729683,0.1408009066632678,0.1000768202663991
0.575,0.0014,-1.496999999999778,0.032236561554375404,1.090394922221735,0.1409364938110598,0.09737704536296088
0.5760000000000001,-0.010499999999995959,0.502999999999778,0.032983120618583925,1.0805958269195721,0.14509874994520572,0.09405921255094504
0.577,0.0077,-1.497,0.03326702660108697,1.090394922221735,0.14668159780526996,0.09737704536296088
0.5779999999999998,-0.002,0.503,0.03321162134299917,1.090394922221735,0.14637269943889036,0.09737704536296088
0.579,-0.0168,0.503,0.03304438630684378,1.0805958269195721,0.14544032169618648,0.09405921255094504
0.5799999999999998,-0.0088,-0.497,0.03334500608251669,1.0909788410679162,0.1471163531923236,0.09757475189072437
0.581,0.0134,-1.497,0.03333779427052484,1.0829507477996372,0.14707614551132359,0.09485655491007655
0.5819999999999999,0.0222,0.503,0.03357680911890054,1.074270016062416,0.14840871391280486,0.09191738392520994
0.583,0.0197,-0.497,0.0337075211671306,1.076047072931102,0.14913746673443073,0.09251906983660663
0.5839999999999999,0.003,1.503,0.033515050895111344,1.067310193155927,0.1480643961513253,0.08956088793319
0.585,0.0095,0.503,0.03318826770692509,1.0754550469046313,0.1462424969945506,0.09231861833413392
0.5859999999999999,0.0076,0.503,0.03287666353309274,1.0754550469046313,0.14450522469268098,0.09231861833413392
0.587,0.0058,-0.497,0.0327147439255633,1.085887217170615,0.14360248181272892,0.09585080122875042
0.5879999999999999,-0.0023,-0.497,0.032833206908768765,1.094475812050496,0.14426294299008927,0.09875877599814474
0.589,0.002,-0.497,0.03309703296869581,1.094475812050496,0.14573384018888366,0.09875877599814474
0.5899999999999999,0.0111,1.503,0.0329559783642849,1.0841262899965542,0.1449474249933475,0.09525457660009723
0.591,0.0071,0.503,0.03256613763443738,1.1029975330492099,0.14277396404840806,0.10164410823265586
0.5919999999999999,0.0035,0.503,0.03235996159710778,1.1029975330492099,0.14162448034747835,0.10164410823265586
0.593,-0.0019,0.503,0.032306192786689204,1.0933113978467859,0.14132470559191002,0.09836452208666435
0.5939999999999999,0.0047,-1.497,0.032182808279878995,1.083538678317827,0.14063680567219794,0.09505561973231628
0.595,0.0186,-0.497,0.03218826923203503,1.083538678317827,0.1406672518655394,0.09505561973231628
0.5959999999999999,0.0168,-0.497,0.03219528657387116,1.0754550469046313,0.1407063753260975,0.09231861833413392
0.597,0.0151,0.503,0.03215609701587157,1.085300558906883,0.14048788360052827,0.09565216717358196
0.5979999999999999,0.0004,0.503,0.0321013500877099,1.0690988187101282,0.14018265559046034,0.09016649083520781
0.599,-0.0133,0.503,0.03218338092723668,1.0979616453543772,0.14063999832645865,0.09993902904765654
0.5999999999999999,-0.0079,-0.497,0.03228295326817019,1.0985415421913918,0.1411951393818836,0.10013537378093068
0.601,-0.0126,0.503,0.03236278112537255,1.0985415421913918,0.14164019993267674,0.10013537378093068
0.6019999999999999,0.0103,-1.497,0.032388620097911464,1.1087565153910668,0.1417842587581685,0.10359401687099874
0.603,0.0267,-1.497,0.032348458557325356,1.108756515391067,0.14156034798315367,0.10359401687099881
0.6039999999999999,0.0296,-1.497,0.03225027378298342,1.1002793989133355,0.14101294296340788,0.10072378708612371
0.605,0.0162,-0.497,0.03221730989294192,1.1002793989133355,0.14082916091573294,0.10072378708612371
0.6059999999999999,0.0094,0.503,0.03198297739705553,1.1002793989133355,0.13952269781697343,0.10072378708612371
0.607,0.0341,-0.497,0.031991903284957005,1.1087565153910668,0.13957246190591394,0.10359401687099874
0.6079999999999999,0.0504,0.503,0.0317624737424772,1.1093307692807817,0.13829333401594146,0.10378845098343187
0.609,0.0059,1.503,0.03176498664841285,1.1093307692807817,0.13830734410388582,0.10378845098343187
0.6099999999999999,-0.0003,1.503,0.031768341761910415,1.0991211330745994,0.1383260497125985,0.10033161492264372
0.611,-0.0296,0.503,0.03192249968207393,1.1070319664170911,0.1391855192168741,0.1030101093779752
0.6119999999999999,-0.0348,1.503,0.03202565954411172,1.116599086476539,0.13976066161236514,0.10624939870734058
0.613,-0.0587,-0.497,0.03197331373084464,1.1260849280454788,0.1394688204268338,0.1094611683081593
0.6139999999999999,-0.0983,1.503,0.031976290449628776,1.134369216754511,0.13948541638904619,0.11226610938235952
0.615,-0.0504,-1.497,0.03191270530270432,1.133807644474712,0.1391309130677216,0.11207596908075187
0.6159999999999999,-0.0057,-0.497,0.03161829486286686,1.1255192223681691,0.13748950019375267,0.10926962849757013
0.617,0.0352,-2.497,0.03083806530920522,1.1255192223681691,0.13313952254099587,0.10926962849757013
0.6179999999999999,0.0616,-0.497,0.03054066929052254,1.1255192223681687,0.13148146430772684,0.10926962849756998
0.619,0.0568,-0.497,0.030500861637289683,1.1177392407990991,0.13125952654446352,0.10663543857178776
0.6199999999999999,0.0524,0.503,0.030295722337168773,1.1093307692807886,0.13011582291642185,0.1037884509834342
0.621,0.0243,2.503,0.029749611108331915,1.0991211330746078,0.12707111430443546,0.10033161492264658
0.6219999999999999,-0.0012,0.503,0.028897995312868578,1.0985415421914004,0.12232314024780706,0.10013537378093362
0.623,0.0021,2.503,0.02801078205168462,1.097961645354387,0.11737670129113383,0.09993902904765986
0.6239999999999999,-0.0306,0.503,0.027810905059727168,1.099700418487768,0.11626233636579261,0.10052775263659254
0.625,-0.0701,0.503,0.027791100792745736,1.0899849839200686,0.11615192255437755,0.09723824614668314
0.6259999999999999,-0.0436,1.503,0.028083826110617546,1.0819495162312975,0.11778394044598732,0.09451755229326048
0.627,-0.0389,0.503,0.0282796504512216,1.091736461296448,0.11887571081215174,0.0978312712096777
0.6279999999999999,-0.017,0.503,0.028423876736565296,1.08371398045148,0.1196798089333276,0.09511497451488708
0.629,-0.0449,1.503,0.028465418834356215,1.08371398045148,0.11991141666491258,0.09511497451488708
0.6299999999999999,-0.0123,0.503,0.028438693694848055,1.08371398045148,0.11976241723380705,0.09511497451488708
0.631,0.0534,-0.497,0.028434565998455123,1.0843014971293459,0.11973940427950103,0.09531389921674195
0.6319999999999999,0.0629,1.503,0.028403792986817743,1.076223595345707,0.11956783693460567,0.09257883778876684
0.633,0.0375,-0.497,0.028322308567217628,1.076223595345707,0.11911354062828801,0.09257883778876684
0.6339999999999999,0.0144,-1.497,0.028265297705460823,1.076223595345707,0.11879569061422143,0.09257883778876684
0.635,0.0075,-0.497,0.028286137495499835,1.0656968315036601,0.11891187772932417,0.08901462686903262
0.6359999999999999,0.0013,1.503,0.02830175012887248,1.0650990524012265,0.11899892212023831,0.08881222745773656
0.637,-0.0281,-1.497,0.028361712134956866,1.0650990524012265,0.11933322551243546,0.08881222745773656
0.6379999999999999,-0.0437,-0.497,0.028373741376301904,1.0656968315036601,0.11940029158393321,0.08901462686903262
0.639,-0.0104,-0.497,0.028377084490207444,1.066294275483035,0.11941893029187689,0.08921691281247818
0.6399999999999999,-0.0409,2.503,0.02837621243758131,1.0668913849023434,0.11941406837730582,0.08941908547869443
0.641,-0.037,1.503,0.02835401503412689,1.0568743926919077,0.11929031222307813,0.08602747590570103
0.6419999999999999,-0.0262,0.503,0.02840666673698594,1.0562716206908809,0.11958385882066805,0.08582338597071183
0.643,-0.0033,0.503,0.028470911487499286,1.0645009376111578,0.11994203959929717,0.08860971438743265
0.6439999999999999,-0.0063,0.503,0.028490425307853152,1.0645009376111567,0.12005083409709703,0.08860971438743227
0.645,-0.0088,0.503,0.028498039792498025,1.0645009376111567,0.1200932867802683,0.08860971438743227
0.6459999999999999,0.0031,1.503,0.028507629975777334,1.07326068637777,0.12014675448442673,0.09157563940261912
0.647,0.0052,1.503,0.02874385377612447,1.0819495162312975,0.12146376208524999,0.09451755229326048
0.6479999999999999,0.0232,2.503,0.028952435930331494,1.1338076444747247,0.1226266604980393,0.11207596908075616
0.649,0.0252,0.503,0.029667029834099922,1.141478113748756,0.12661070275534778,0.11467307971762514
0.6499999999999999,0.0229,-0.497,0.030002696351020666,1.1414781137487566,0.12848212872291268,0.11467307971762536
0.651,0.0129,1.503,0.030788142242569067,1.1513121968733395,0.1328611887824178,0.11800275890337943
0.6519999999999999,-0.0001,-0.497,0.030864068344375037,1.1513121968733395,0.13328449605726644,0.11800275890337943
0.653,0.0012,-0.497,0.03139921608504032,1.1437076834450386,0.13626808044200614,0.11542797996779107
0.6539999999999999,-0.0094,-1.497,0.03138072595777346,1.1453770125701288,0.13616499329280754,0.11599319081374085
0.655,-0.0105,-0.497,0.03127265780012994,1.1909060530448328,0.13556248590441425,0.1314086694603489
0.6559999999999999,0.0082,-1.497,0.032252208989653086,1.2174064493552148,0.1410237322314214,0.1403813227205536
0.657,0.0107,0.503,0.03303809373559051,1.2174064493552148,0.14540523901545277,0.1403813227205536
0.6579999999999999,0.0039,-0.497,0.0332222725867758,1.2266319551656766,0.14643208282444015,0.14350494637575334
0.659,0.006,-0.497,0.03295325153291982,1.2261126409032006,0.14493222221687582,0.1433291140313725
0.6599999999999999,0.0361,-1.497,0.03328075018719674,1.2245533767173122,0.14675811027857097,0.14280116959170575
0.661,0.0404,1.503,0.03341190195350709,1.2387235330879818,0.147489314640021,0.14759898084961087
0.6619999999999999,0.0204,1.503,0.03340624682935448,1.2382092901343547,0.1474577858885504,0.1474248655775086
0.663,-0.0051,-1.497,0.033424808375609454,1.2366652782471792,0.14756127121672186,0.14690208534694157
0.6639999999999999,0.0046,-0.497,0.03304061954293904,1.2371801629807693,0.14541932103204613,0.14707641791651402
0.665,0.049,-0.497,0.031636830452195897,1.2285524044265157,0.13759284080547854,0.14415518288993615
0.6659999999999999,0.0171,-0.497,0.03128553564542371,1.2467702239891567,0.13563428315815923,0.1503234747214252
0.667,-0.0004,-0.497,0.031340691473558675,1.2557800292757773,0.13594179088928837,0.1533740652798439
0.6679999999999999,-0.0054,0.503,0.03176826491450337,1.2418045188078803,0.1383256212688133,0.14864215832667607
0.669,0.0089,-0.497,0.03149094318385335,1.2418045188078803,0.13677948228280584,0.14864215832667607
0.6699999999999999,0.0047,-0.497,0.03097120041196675,1.2423172735588204,0.13388178450619861,0.14881576971474067
0.671,-0.0550999999999905,-0.497,0.030712129900490392,1.2418045188078803,0.1324374006961755,0.14864215832667607
0.6719999999999999,-0.0123,-0.497,0.03074480783754238,1.2163597216406714,0.13261958848340713,0.14002691576261822
0.673,0.010799999999998469,1.503,0.03077056318395017,1.2158360198558116,0.13276318107200763,0.13984959786622675
0.6739999999999999,0.0039,0.503,0.030817859327644633,1.1893006312223886,0.1330268690689144,0.13086509670843824
0.675,-0.04069999999999874,0.503,0.030671363003093092,1.1887650088116752,0.13221011490340048,0.130683742659486
0.6759999999999999,-0.035,1.503,0.0298774108997548,1.1887650088116752,0.12778363055572017,0.130683742659486
0.677,-0.029899999999996846,0.503,0.029561573268795695,1.18715669160485,0.12602275565662918,0.13013918957204368
0.6779999999999999,-0.0157,0.503,0.029318067811320098,1.1866201014525344,0.1246651509704543,0.1299575078596958
0.679,-0.011299999999999111,0.503,0.029274264406435456,1.1955505051741533,0.12442093587828223,0.13298121418956438
0.6799999999999999,-0.0073,0.503,0.029079102454671598,1.1955505051741533,0.12333285849790483,0.13298121418956438
0.681,-0.0035000000000006883,0.503,0.029236065491172383,1.2044146942283305,0.12420796723722768,0.1359825011848413
0.6819999999999999,-0.0066,0.503,0.028838236973276574,1.2044146942283303,0.12198997234796127,0.1359825011848412
0.683,0.0084000000000006,-0.497,0.028138910669577584,1.2188190081670547,0.11809105083339011,0.14085959482938695
0.6839999999999999,0.0111,-0.497,0.028124374619529824,1.218819008167055,0.11801000866756806,0.14085959482938704
0.685,0.013300000000001443,-0.497,0.028542480863205214,1.2111125133199943,0.12034105702113346,0.13825028645134063
0.6859999999999999,0.0198,0.503,0.02868130722774579,1.2116382567297976,0.12111504921423984,0.13842829561259062
0.687,0.009999999999998802,0.503,0.02887385610991144,1.2259577008067708,0.12218855806884946,0.14327665354191096
0.688,0.0046,0.503,0.028892299208932576,1.2182963635414716,0.12229138302365027,0.14068263487193042
0.6890000000000001,-0.00019999999999966694,0.503,0.028563333885607077,1.218819008167055,0.12045731791001525,0.14085959482938704
0.69,0.0013,0.502999999999889,0.028547834757741794,1.22803390228903,0.12037090634109326,0.14397962551940313
0.6910000000000001,-0.019000000000000156,-0.497000000000111,0.02829465979959057,1.202297706339542,0.11895939173615809,0.13526571951638333
0.692,-0.0197,-1.496999999999778,0.02822513510541372,1.1928840195791977,0.11857177393244285,0.13207838049656428
0.6930000000000001,-0.010899999999995804,0.502999999999778,0.028138363584760153,1.2001769843091994,0.11808800069677478,0.1345476735212717
0.694,0.008,-1.497,0.02850259681930952,1.2074258996574592,0.1201186933605497,0.13700205205851002
0.6950000000000001,0.020000000000004507,-1.497,0.028773062152785762,1.2068983212817368,0.12162660619331235,0.1368234216041766
0.696,0.0403,-1.4970000000002222,0.029109039107082433,1.2063705121817776,0.12349976292798485,0.13664471302993317
0.6970000000000001,0.03770000000000595,-3.496999999999778,0.029269904441388266,1.1975208004084,0.12439662796731799,0.133648327833831
0.698,0.0645,-1.496999999999778,0.029264907731006113,1.1975208004084,0.12436877003961241,0.133648327833831
0.6990000000000001,0.04640000000000508,0.503000000000111,0.029173076183604624,1.1711142458824737,0.12385678587144056,0.12470744805291237
0.7,0.0693,1.5029999999998889,0.02928512167498879,1.1785419323922997,0.12448146790421658,0.12722235593570724
0.7010000000000001,0.024699999999981438,0.503,0.029470182999974594,1.179082198855502,0.1255132317284653,0.12740528239407622
0.702,-0.0589,0.503000000000111,0.02944317359244691,1.169481654903584,0.1253626474310515,0.12415467621517286
0.7030000000000001,-0.024899999999997757,1.503000000000222,0.029443974420978927,1.1937922141872621,0.12536711225323313,0.1323858821359929
0.704,-0.0148,3.503,0.02944498470918769,1.2016097974813522,0.1253727448662383,0.13503280346536028
0.7050000000000001,-0.08079999999999815,2.503,0.029431348896875657,1.1937922141872621,0.1252967217541219,0.1323858821359929
0.706,-0.0725,0.503,0.02959104644387003,1.1943255820357679,0.12618707608300558,0.13256647282258985
0.7069999999999999,-0.0492,1.503,0.02958103358808772,1.1943255820357679,0.1261312518724397,0.13256647282258985
0.708,-0.0282,-0.497,0.02978810421457972,1.1937922141872621,0.12728572313484612,0.1323858821359929
0.7089999999999999,-0.0472,-1.497,0.029823119594984134,1.1937922141872621,0.1274809427616177,0.1323858821359929
0.71,-0.0298,-2.497,0.029820607865006947,1.1937922141872621,0.12746693922994007,0.1323858821359929
0.7109999999999999,0.0285,-0.497,0.029686806369744707,1.1937922141872621,0.1267209619575275,0.1323858821359929
0.712,0.0361,-1.497,0.029471945045419883,1.184310922077571,0.1255230555787337,0.12917565291667948
0.7129999999999999,0.0292,0.503,0.029533436557810516,1.184310922077571,0.12586588635651974,0.12917565291667948
0.714,0.023,0.503,0.030315206754318695,1.1859230986472418,0.13022445348390213,0.12972151272890484
0.7149999999999999,0.0173,2.503,0.030738668112748998,1.1864600040271165,0.13258535796045404,0.12990330117277302
0.716,-0.0196,1.503,0.030440519706161472,1.1869966665525962,0.13092310497378593,0.13008500738963394
0.7169999999999999,-0.0631,1.503,0.030408543899384344,1.1875330865529286,0.13074483174091928,0.13026663149096618
0.718,-0.0457,-0.497,0.030443449136885438,1.1880692643566177,0.1309394372930691,0.1304481735879965
0.7189999999999999,0.0021,0.503,0.030512959503949517,1.1880692643566177,0.13132697521949682,0.1304481735879965
0.72,0.034,-0.497,0.030831324404188315,1.1880692643566177,0.13310194028581818,0.1304481735879965
0.7209999999999999,0.0281,0.503,0.031221085021171532,1.1880692643566177,0.13527495458121996,0.1304481735879965
0.722,0.0124,-0.497,0.03106891418867803,1.1880692643566177,0.13442656359469346,0.1304481735879965
0.7229999999999999,0.017,-0.497,0.031164582998694453,1.2120070488272645,0.13495994147519572,0.13855316331558334
0.724,-0.0049,-0.497,0.03129235868525725,1.2104296140850677,0.1356723233357717,0.13801906658674357
0.7249999999999999,-0.0089,0.503,0.03153206198431393,1.209903345479785,0.13700873002441247,0.1378408796018537
0.726,0.0018,-1.497,0.031305857739142955,1.2186631407629123,0.13574758398497497,0.14080682036686354
0.7269999999999999,-0.0081,-0.497,0.03130364240856972,1.2093768478651417,0.13573523295515072,0.13766261507768626
0.728,-0.0052,1.503,0.03143614036940525,1.2093768478651417,0.1364739426925165,0.13766261507768626
0.7289999999999999,-0.0295,1.503,0.03147765234018963,1.2093768478651417,0.13670538245839883,0.13766261507768626
0.73,-0.0328,1.503,0.03158230690382421,1.2093768478651417,0.13728885819439596,0.13766261507768626
0.7309999999999999,-0.024,-0.497,0.03172062768365542,1.2088501209419125,0.13806003162451522,0.1374842729129278
0.732,0.0002,-2.497,0.03180095398088549,1.2083231644102195,0.13850787110488313,0.13730585300604403
0.7329999999999999,0.0364,-0.497,0.032057509293281,1.2155235000395619,0.13993823204209585,0.1397437831487671
0.734,0.0506,-0.497,0.032724058873608304,1.2155235000395617,0.14365441501064768,0.13974378314876704
0.7349999999999999,0.029,0.503,0.03281882877746782,1.2232022048285707,0.14418278126133394,0.1423436822126259
0.736,0.0331,-2.497,0.032800283434911544,1.2232022048285707,0.1440793862728925,0.1423436822126259
0.7369999999999999,0.0295,-0.497,0.032827500766094045,1.2226814338357015,0.14423112979741798,0.14216735664027372
0.738,-0.0002,0.503,0.032818160653751996,1.2479973474124162,0.14417905630216074,0.15073896107323004
0.7389999999999999,-0.0041,1.503,0.032814991884361946,1.254970074801199,0.14416138960911026,0.15309982633745892
0.74,-0.0149,0.503,0.0328164795629122,1.261904274556762,0.14416968379435063,0.15544764669889582
0.7409999999999999,-0.0312,-0.497,0.032824523744867946,1.2619042745567624,0.14421453214901495,0.155447646698896
0.742,0.0134,-1.497,0.032773839509248524,1.261904274556762,0.1439319546802984,0.15544764669889582
0.7429999999999999,0.0453,-1.497,0.03272203784511392,1.2549700748012018,0.14364314726419422,0.1530998263374599
0.744,0.0396,-0.497,0.032727459816246224,1.2549700748012027,0.14367337612844158,0.1530998263374602
0.7449999999999999,0.0447,-0.497,0.03279117373584272,1.2479973474124197,0.14402859739007365,0.15073896107323123
0.746,0.0306,0.503,0.032736716742284976,1.2479973474124197,0.14372498583895923,0.15073896107323123
0.7469999999999999,0.0002,1.503,0.032499472872676155,1.2495273566037997,0.14240229109327998,0.15125700019228394
0.748,-0.0037,0.503,0.032278671237302194,1.2021396968132048,0.14117126597373494,0.13521221976207676
0.7489999999999999,-0.0363,-1.497,0.03164928599365909,1.2021396968132074,0.13766228360825833,0.13521221976207765
0.75,-0.0405,0.503,0.03133147264067931,1.2093768478651514,0.13589039355779592,0.13766261507768957
0.7509999999999999,0.0034,-0.497,0.0305645824530468,1.2000186955420125,0.1316147862539401,0.13449407922002735
0.752,-0.0024,-2.497,0.03046835278095904,1.2072685613186709,0.13107828142513764,0.13694877955865947
0.7529999999999999,0.0026,-1.497,0.02991019011298144,1.2067409141557697,0.12796638298331237,0.1367701258139761
0.754,-0.0022,-0.497,0.02982788278223848,1.1978939388136771,0.12750749873865683,0.1337746671341722
0.7549999999999999,-0.0326,0.503,0.029804445235871255,1.1526409512037112,0.12737682847315046,0.1184526560194369
0.756,0.0032,-1.497,0.028695964315833898,1.1246154572292464,0.12119676619783593,0.10896362661272141
0.7569999999999999,0.0365,-0.497,0.027774640728112053,1.1240490120043687,0.11606015351924752,0.10877183640195634
0.758,0.0148,-0.497,0.027357631902351402,1.1145458429948258,0.11373522354889697,0.1055541999788231
0.7589999999999999,-0.0051,-0.497,0.027227106912028985,1.1151171155479576,0.11300751362255003,0.10574762465354445
0.76,-0.0231,-1.497,0.02686634951239174,1.107264047953286,0.11099619961999276,0.10308868885007
0.7609999999999999,-0.0197,-0.497,0.026719872974377376,1.0815983115938865,0.11017955576944209,0.09439863945143137
0.762,-0.0283,1.503,0.026581736834950857,1.0821869768638392,0.10940941175640968,0.09459795305005636
0.7629999999999999,-0.0688,1.503,0.02633275739961089,1.0740931725858776,0.10802128825526564,0.09185750726609423
0.764,-0.0513,0.503,0.026181079815797346,1.0740931725858758,0.10717564725523347,0.09185750726609364
0.7649999999999999,-0.0247,0.503,0.026079561676565173,1.0999340469513355,0.106609657880777,0.10060685587605936
0.766,-0.0105,0.503,0.0260435378099229,1.0970351778261205,0.1064088156874451,0.09962534046011531
0.7669999999999999,-0.0148,0.503,0.0262555422238758,1.0952921736391337,0.10759079406631185,0.09903518429725104
0.768,0.021,0.503,0.02615477295599301,1.0935463912803558,0.10702897983956584,0.0984440874853532
0.7689999999999999,0.0449,-0.497,0.026194823985064272,1.1020752989843023,0.10725227448485616,0.10133185303495065
0.77,0.0492,-0.497,0.026686140100331657,1.109965077887336,0.10999148644090474,0.1040032187597291
0.7709999999999999,0.0452,-0.497,0.02742306938258994,1.118368780357575,0.11410005409825834,0.1068485916169584
0.772,0.027,-2.497,0.027788923020165612,1.1261444127537907,0.11613978091989079,0.10948130897532957
0.7729999999999999,0.0301,-1.497,0.027809370330763885,1.1361112308565933,0.1162537798625661,0.11285593031670713
0.774,0.0388,-0.497,0.02825138734242718,1.1638599420167905,0.11871813681219726,0.12225124504113186
0.7749999999999999,0.0145,1.503,0.02891939744772474,1.1735064785220501,0.12244246257789398,0.12551742363747578
0.776,-0.0348,-0.497,0.03019517410947179,1.1735064785220497,0.12955524104477456,0.12551742363747562
0.7769999999999999,-0.0416,0.503,0.033348806136277685,1.1655004077151456,0.14713753945585595,0.12280668314568703
0.778,-0.0226,0.503,0.03423694100913869,1.1660467167464263,0.15208911663137883,0.1229916555307483
0.7789999999999999,-0.0282,0.503,0.03441254554680556,1.156888585985776,0.1530681564677817,0.11989084409893068
0.78,0.0302,-0.497,0.034289818735819856,1.155235891336189,0.15238392336910386,0.11933126544727371
0.7809999999999999,0.0226,-0.497,0.0341512680456721,1.1535808289315779,0.15161146813065726,0.11877088510780084
0.782,-0.0412,-1.497,0.03407141403637779,1.1535808289315783,0.15116626177531853,0.118770885107801
0.7829999999999999,-0.0665,-0.497,0.03408733221367844,1.1366716650508246,0.15125500965112698,0.11304568527890103
0.784,-0.0276,-1.497,0.03392508947475298,1.1366716650508246,0.1503504652316857,0.11304568527890103
0.7849999999999999,0.0076,-0.497,0.03360313242939345,1.146546974454738,0.14855547304523373,0.11638932309022842
0.786,-0.0243,-0.497,0.03347617694726455,1.1557870521347189,0.1478476640324067,0.11951788057098368
0.7869999999999999,-0.0068,2.503,0.033326516579860216,1.1389106440512413,0.14701326952548632,0.11380377138419254
0.788,-0.0018,-1.497,0.03320091251292394,1.1471023101198354,0.1463129949951202,0.11657735176374648
0.7889999999999999,0.0029,-1.497,0.03321665326245821,1.1471023101198357,0.14640075366612973,0.11657735176374656
0.79,0.0072,0.503,0.03325522816895192,1.137791705292016,0.14661581855365846,0.11342491480452697
0.7909999999999999,-0.0047,-0.497,0.033247385514359754,1.14543549540313,0.14657209376515987,0.11601299226033239
0.792,0.0061,0.503,0.033104028298550754,1.145991369679704,0.1457728409270637,0.11620120329995412
0.7929999999999999,0.012,0.503,0.033081106668995795,1.1383513121537936,0.14564504702863867,0.11361438964384457
0.794,0.0218,0.503,0.03276708477878658,1.130659630651136,0.14389429534475803,0.11101009685127836
0.7949999999999999,0.007,-1.497,0.032527458786602806,1.131222765698743,0.1425583196615412,0.11120076628360177
0.796,0.009499999999998468,1.503,0.03225506444564463,1.1317856205510224,0.14103965212280895,0.11139134084581494
0.7969999999999999,0.0026,-0.497,0.03213849085085255,1.1317856205510224,0.14038972476506237,0.11139134084581494
0.798,-0.013099999999994227,-1.497,0.03240689805829639,1.1300962149893314,0.14188616302318804,0.11081933240702131
0.7989999999999999,0.0129,-1.497,0.033514641763364585,1.137791705292016,0.14806211513806827,0.11342491480452697
0.8,0.009099999999999223,-0.497,0.034260436134882125,1.1295325182934148,0.15222010791651153,0.11062847280865366
0.8009999999999999,0.0056,-1.497,0.035064356138034145,1.1372318230599967,0.1567021658338306,0.1132353467288039
0.802,0.00830000000000051,-0.497,0.035437590134633275,1.1471023101198357,0.1587830400289132,0.11657735176374656
0.8029999999999999,0.0106,0.503,0.035465663525603264,1.1223479610330804,0.158939556303878,0.10819588499487023
0.804,0.008299999999997492,-1.497,0.0357203752447765,1.1139742774795398,0.1603596387412825,0.10536067611132748
0.8049999999999999,-0.003,-0.497,0.03636273507519392,1.1223479610330802,0.16394095771879483,0.10819588499487015
0.806,-0.004800000000001198,-0.497,0.037350750595338246,1.1223479610330804,0.16944939483583918,0.10819588499487023
0.8069999999999999,-0.0102,0.503,0.03776778442192683,1.1145458429948105,0.17177446419214648,0.1055541999788179
0.808,-0.008600000000001688,0.503,0.03791956765137221,1.122915264339239,0.17262069419337117,0.10838796573962252
0.8089999999999999,-0.0162,0.503,0.038029562013672684,1.122915264339239,0.1732339406612739,0.10838796573962252
0.81,-0.009699999999995804,0.503,0.038029011327520165,1.122915264339239,0.17323087044630203,0.10838796573962252
0.8109999999999999,0.0092,0.503,0.03797273369258986,1.1151171155479422,0.17291710835776292,0.10574762465353926
0.812,0.001200000000001532,0.503,0.03792656854935312,1.1156880955889563,0.17265972597526572,0.10594095028786232
0.813,0.0081,0.5029999999996669,0.03786240103779339,1.1055371708527093,0.17230197582339327,0.10250399308684503
0.8140000000000001,-0.0031999999999969136,-2.497,0.03747996220029924,1.0958734830654782,0.17016978230567978,0.099232007312967
0.815,0.0107,-2.496999999999889,0.03715263820005415,1.0952921736391221,0.16834486798450987,0.09903518429724713
0.8160000000000001,0.03830000000000444,-1.497,0.03720152644603692,1.0952921736391221,0.16861743235548188,0.09903518429724713
0.817,0.0583,-1.497,0.03727278750766368,1.1032304632909722,0.16901473084812849,0.10172297506425604
0.8180000000000001,0.047500000000000736,-1.497,0.037256973155362846,1.1026530324096804,0.16892656182302734,0.10152746526814269
0.819,0.0508,-1.497,0.03719986033075181,1.1105387068357249,0.1686081433401874,0.10419744127601246
0.8200000000000001,0.07159999999999585,-1.497,0.03692519293943424,1.1206443280016474,0.1670768029691835,0.10761905933933498
0.821,0.0529,-1.496999999999667,0.036614007025823736,1.12121249330054,0.16534186257413477,0.1078114319424363
0.8220000000000001,0.016299999999984632,1.503000000000111,0.03633141441307393,1.1212124933005398,0.16376633708355728,0.10781143194243621
0.823,-0.0529,2.502999999999889,0.03626020310703312,1.0958734830654782,0.16336931599092194,0.099232007312967
0.8240000000000001,-0.06220000000000562,1.5029999999998889,0.036153682199491805,1.0872959285019936,0.16277543491428043,0.09632777063600526
0.825,-0.0875,0.502999999999889,0.035942621312083096,1.0878815107298967,0.16159871693520594,0.09652604036090948
0.8260000000000001,-0.14179999999998585,-0.496999999999889,0.03592118945606867,1.0861238168989358,0.16147922890212343,0.09593091049575216
0.827,-0.0781,0.503,0.03576845519381256,1.0964544842979176,0.16062769665176665,0.09942872597865685
0.8280000000000001,-0.03529999999999138,0.502999999999778,0.03554768685190448,1.0958734830654782,0.1593968571517382,0.099232007312967
0.829,0.0035,-1.497,0.03550258875191427,1.1055371708527095,0.15914542380597663,0.10250399308684512
0.8300000000000001,0.010399999999998645,-1.496999999999889,0.03540270572561691,1.1134024185509537,0.15858855060084853,0.10516705289830612
0.831,0.0043,-0.497000000000111,0.03527912780267482,1.1139742774795398,0.15789957233714472,0.10536067611132748
0.8320000000000001,0.010200000000001111,-1.496999999999889,0.035205714023283055,1.1145458429948105,0.1574902718969603,0.1055541999788179
0.833,0.0152,-0.497,0.03496763230399476,1.1066887216552415,0.15616290592681256,0.10289389163559177
0.8340000000000001,0.01999999999999516,1.503,0.03436164377087685,1.1168291799289682,0.1527843661566657,0.1063273050428501
0.835,-0.0018,1.503,0.03425962690080105,1.1089882360253924,0.152215596231262,0.10367247414690839
0.8359999999999999,0.0103,-1.497,0.0342611740265863,1.1089882360253924,0.1522242218499152,0.10367247414690839
0.837,0.0067,-1.497,0.034177608413781535,1.1095623699881236,0.15175832236362463,0.10386686765378875
0.8379999999999999,0.01,0.503,0.034174345779945374,1.0810093257653988,0.15174013235248007,0.0941992173162943
0.839,-0.0167,0.503,0.034186297512331563,1.082775322098085,0.15180676629187348,0.09479715828919129
0.8399999999999999,-0.013,-1.497,0.03418516628437529,1.082775322098085,0.15180045940910178,0.09479715828919129
0.841,-0.0031,0.503,0.034246715764012226,1.0908047064634037,0.1521436133689883,0.09751579241673787
0.8419999999999999,0.0056,0.503,0.034883990281697606,1.0993548846445182,0.15569658043822207,0.10041075984415153
0.843,-0.0024,0.503,0.03520190300529403,1.0987754170624733,0.1574690245050758,0.10021456045043975
0.8439999999999999,0.0044,0.503,0.035228362190550984,1.1084138046739413,0.15761654117377638,0.1034779799484823
0.845,0.0157,0.503,0.035160181207164784,1.1084138046739413,0.1572364148985269,0.1034779799484823
0.8459999999999999,0.0139,0.503,0.03519766945412959,1.1005129044648507,0.15744542138357048,0.10080284870933642
0.847,0.0414,-1.497,0.03520814918417855,1.0908047064634034,0.1575038485365871,0.0975157924167378
0.8479999999999999,0.0853,-1.497,0.03530270634829666,1.0993548846445182,0.15803102870925745,0.10041075984415153
0.849,0.0795,-0.497,0.0353064948587838,1.0908047064634034,0.15805215061611033,0.0975157924167378
0.8499999999999999,0.0846,-1.497,0.035439122512955536,1.0908047064634034,0.1587915834267198,0.0975157924167378
0.851,0.0512,1.503,0.03553130715680912,1.0913884060652566,0.1593055361971686,0.09771342471152336
0.8519999999999999,-0.0145,0.503,0.03567969853644561,1.0931376348138924,0.16013285577542752,0.09830568842148689
0.853,-0.0429,-0.497,0.03567548030580891,1.1034026369138379,0.1601093380697501,0.10178127057804509
0.8539999999999999,-0.0683,-1.497,0.035852309167118464,1.1034026369138379,0.16109520382098846,0.10178127057804509
0.855,-0.0915,0.503,0.036100083981847886,1.1051328494354242,0.16247661125669854,0.10236709566687882
0.8559999999999999,-0.0563,0.503,0.036204947253214555,1.1051328494354242,0.163061250591237,0.10236709566687882
0.857,-0.0502,-1.497,0.03634742437666534,1.1308276280668776,0.16385559669121666,0.11106697836136616
0.8579999999999999,-0.0328,-0.497,0.03638589072649421,1.1554003153221446,0.16407005634780544,0.11938693704540228
0.859,0.0042,-0.497,0.036383930390091766,1.1548489699504265,0.164059126975158,0.1192002594278639
0.8599999999999999,-0.01,0.503,0.03635055114431513,1.16402314781387,0.16387302921391222,0.1223065041780179
0.861,-0.0056,0.503,0.036343617825662845,1.1731255831740526,0.16383437420391503,0.1253884579478318
0.8619999999999999,-0.0176,-0.497,0.03668448554025665,1.1731255831740526,0.1657347981676968,0.1253884579478318
0.863,-0.0429,0.503,0.03712248705326955,1.1731255831740526,0.16817676769389353,0.1253884579478318
0.8639999999999999,-0.0131,-0.497,0.03714708917993793,1.1731255831740541,0.1683139307899535,0.12538845794783232
0.865,0.0308,0.503,0.03714590791129299,1.1483776053195065,0.1683073449176506,0.11700914838659808
0.8659999999999999,0.025,-1.497,0.03715594115961105,1.1330781550286675,0.16836328282177548,0.1118289744403822
0.867,0.0095,-0.497,0.037127954075257145,1.1247843574010616,0.16820724772808546,0.10902081378303907
0.8679999999999999,0.0048,-1.497,0.037213464694627,1.1169992574554464,0.16868399111929208,0.10638489084853268
0.869,0.0003,1.503,0.03751701522913071,1.108585173275815,0.17037636233924477,0.10353600289373523
0.8699999999999999,0.0122,0.503,0.03729934322408608,1.1001067364842005,0.16916278570255983,0.10066532606955825
0.871,0.0012,-0.497,0.03660859862860721,1.0915624475534453,0.16531170938791065,0.09777235265766113
0.8719999999999999,-0.0152,0.503,0.036222266346176084,1.0835386783178427,0.16315780892717174,0.09505561973232163
0.873,-0.0124,-0.497,0.03633449479993774,1.0736770101663833,0.16378351102160738,0.09171660065298871
0.8739999999999999,0.0009,0.503,0.03606244961833129,1.0542810711138089,0.16226679013481893,0.085149414497111
0.875,0.0077,-1.497,0.0357672049039318,1.0441431088016306,0.16062072596856805,0.08171684618655478
0.8759999999999999,0.0098,1.503,0.03469054906469898,1.052467263698038,0.15461809659059408,0.08453528537874287
0.877,0.0115,-0.497,0.03202179329175813,1.0524672636980383,0.139739106274889,0.08453528537874302
0.8779999999999999,0.0132,1.503,0.031528475340836463,1.0518619661842927,0.13698873357733846,0.0843303403414503
0.879,0.0084,-1.497,0.03133503776175954,1.0512563201494387,0.1359102700120466,0.08412527729992009
0.8799999999999999,0.007,0.503,0.03133515822779534,1.0429225000718119,0.1359109416407502,0.08130356561630338
0.881,-0.0021,0.503,0.03131865006415242,1.0447528783922497,0.1358189044414443,0.08192330540479291
0.8819999999999999,-0.0031,0.503,0.03151008946292611,1.053676815564403,0.13688622764474337,0.08494482225396596
0.883,0.0136,1.503,0.0315424014924485,1.044752878392251,0.13706637540469166,0.08192330540479335
0.8839999999999999,0.0068,0.503,0.03150534727070739,1.071896024065298,0.13685978872035282,0.09111358435998249
0.885,-0.0087,-0.497,0.031516022920556705,1.0613263380813152,0.13691930817594797,0.08753484061997402
0.8859999999999999,-0.003,0.503,0.03152756693742483,1.0613263380813152,0.13698366899791853,0.08753484061997402
0.887,-0.0048,0.503,0.031722711920623724,1.0530722132916592,0.1380716517742425,0.0847401126152827
0.8879999999999999,-0.0094,1.503,0.032318856062951117,1.0548849805357186,0.1413953065688808,0.08535388954646124
0.889,0.0012,-1.497,0.032541773779268014,1.0649206859718645,0.1426381293763883,0.08875183514868651
0.8899999999999999,0.0216,-1.497,0.03250408221742366,1.0643224709456418,0.1424279893593241,0.08854928813986167
0.891,0.0663,-1.497,0.03256623290164393,1.0554885444242321,0.14277449518724736,0.08555824760317043
0.8919999999999999,0.0474,-0.497,0.032614258361328745,1.0655185651417503,0.14304224930577814,0.08895426844138342
0.893,0.0181,1.503,0.032620593987522276,1.075455046904649,0.1430775720287239,0.09231861833413993
0.8939999999999999,-0.0025,0.503,0.03262241421365636,1.0754550469046484,0.1430877202510888,0.09231861833413971
0.895,-0.018,0.503,0.03266537908108663,1.0748626947948876,0.14332726028427292,0.09211805642455226
0.8959999999999999,-0.0132,0.503,0.032655184887077145,1.0847135833539978,0.14327042506709736,0.0954534256888672
0.897,-0.0262,-1.497,0.032625979115829463,1.084126289996567,0.1431075954848767,0.09525457660010152
0.8979999999999999,-0.0141,-0.497,0.032386373960749726,1.0754550469046442,0.1417717359737998,0.09231861833413828
0.899,0.0331,-1.497,0.031239847444178175,1.0667133181711106,0.13537955984823072,0.0893587946431229
0.8999999999999999,0.027,0.503,0.030294579174230576,1.0754550469046447,0.13010944949309883,0.09231861833413843
0.901,0.0328,1.503,0.02929533940453717,1.0754550469046416,0.1245384343379908,0.09231861833413738
0.9019999999999999,0.0063,1.503,0.029139287003627525,1.0655185651417403,0.12366840262305479,0.08895426844138003
0.903,-0.0374,0.503,0.029277780423793795,1.0736770101663768,0.12444053856682909,0.09171660065298654
0.9039999999999999,-0.0433,1.503,0.029027506753070125,1.0736770101663757,0.12304519937516152,0.09171660065298616
0.905,-0.0279,-0.497,0.028239110397779533,1.075455046904635,0.11864968973196201,0.09231861833413513
0.9059999999999999,-0.0327,-2.497,0.02675013668575644,1.074862694794874,0.11034828363622255,0.09211805642454766
0.907,-0.0197,-2.497,0.026597565374530494,1.0847135833539878,0.1094976598791885,0.09545342568886382
0.9079999999999999,-0.0077,-0.497,0.026346436673753595,1.0864735586591594,0.1080975536781113,0.09604932802839376
0.909,0.0033,1.503,0.026147150308118518,1.0968009318775191,0.10698648164431898,0.0995460281490921
0.9099999999999999,-0.0065,1.503,0.026155567573772277,1.0973814420785248,0.10703341003522567,0.09974258055859682
0.911,-0.051,0.503,0.02613882109995571,1.0968009318775183,0.10694004419625856,0.09954602814909179
0.9119999999999999,-0.0571,0.503,0.02614000911809042,1.0968009318775185,0.10694666769867886,0.09954602814909187
0.913,-0.0161,0.503,0.026122611061826336,1.0968009318775183,0.10684966912230476,0.09954602814909179
0.9139999999999999,-0.0005,-0.497,0.025790585246397938,1.106456519443192,0.1049985409889577,0.10281527130438727
0.915,0.0137,1.503,0.02576707520104496,1.1148866687548977,0.10486746652321768,0.10566959868197655
0.9159999999999999,0.0355,-0.497,0.025597159300132153,1.1243869571541387,0.1039201422795384,0.10888625977186898
0.917,0.0635,0.503,0.0254815753557873,1.1165990864765396,0.10327573247404204,0.1062493987073408
0.9179999999999999,0.0672,-0.497,0.025466943969431447,1.1171693090893575,0.10319415878412205,0.1064424678873643
0.919,0.031,-0.497,0.025471401180806024,1.1093307692807823,0.10321900886802625,0.1037884509834321
0.9199999999999999,0.0071,-0.497,0.025503613128587618,1.1093307692807823,0.1033985986468857,0.1037884509834321
0.921,0.0026999999999920287,0.503,0.025793664506297987,1.1093307692807821,0.10501570864389896,0.10378845098343202
0.9219999999999999,-0.0332,0.503,0.026176450654269733,1.1093307692807821,0.10714983850561406,0.10378845098343202
0.923,-0.028600000000002908,1.503,0.026161230264943474,1.1171693090893575,0.10706498097474412,0.1064424678873643
0.9239999999999999,-0.0417,0.503,0.026144298524919684,1.1171693090893573,0.10697058222968234,0.10644246788736422
0.925,-0.005799999999988254,-1.497,0.02614685421560527,1.1171693090893573,0.10698483085345913,0.10644246788736422
0.9259999999999999,0.0471,-0.497,0.026173799256044017,1.1188782332872698,0.10713505628802657,0.10702108505581143
0.927,0.053899999999987146,-0.497,0.026416065031166985,1.1093307692807823,0.10848574943066255,0.1037884509834321
0.9279999999999999,-0.004,-0.497,0.026541074576988195,1.11944729495184,0.10918270935502267,0.10721376115544631
0.929,0.0035999999999984677,0.503,0.026523674783943123,1.1177392407990971,0.10908570109565406,0.10663543857178709
0.9299999999999999,-0.0033,1.503,0.026534472830631275,1.1194472949518401,0.10914590294466947,0.10721376115544638
0.931,-0.03519999999999616,-1.497,0.026529115008996382,1.1194472949518401,0.10911603173014053,0.10721376115544638
0.9319999999999999,-0.0179,-0.497,0.026528613473052617,1.1289092042436102,0.10911323554004854,0.11041742763123041
0.933,-0.002299999999994693,-2.497,0.026530829966690542,1.128344914542974,0.10912559305425343,0.1102263672499889
0.9339999999999999,0.0216,-0.497,0.026503574562995572,1.1183088820505236,0.10897363726581452,0.10682831091120022
0.935,-0.008900000000006217,1.503,0.026551501391521355,1.1260849280454792,0.10924084149061768,0.10946116830815944
0.9359999999999999,-0.0369,0.503,0.026551341089038498,1.1360522680198706,0.10923994776361792,0.11283596634775533
0.937,-0.06239999999999493,1.503,0.026567330836115965,1.1354915281155302,0.10932909465908451,0.11264610787651295
0.938,-0.0396,1.5029999999997778,0.026653718684739744,1.1349305111640944,0.10981072882587505,0.11245615560110646
0.9390000000000001,0.004900000000004152,-0.497,0.02667481647364062,1.1249532322142517,0.10992835435006942,0.10907799236729077
0.94,0.0236,-0.49699999999977795,0.026819167329392258,1.1171693090893573,0.11073314698286459,0.10644246788736422
0.9410000000000001,0.017699999999994095,1.503,0.026937148024622975,1.134369216754511,0.11139091928244206,0.11226610938235952
0.942,-0.0089,1.5029999999998889,0.02667230842993896,1.134369216754511,0.10991437137031282,0.11226610938235952
0.9430000000000001,-0.004300000000002953,0.502999999999889,0.027003925229374167,1.134369216754511,0.11176321913575833,0.11226610938235952
0.944,-0.0176,-0.49699999999977795,0.027040738895917432,1.1524180080036899,0.11196846466385671,0.11837717065661127
0.9450000000000001,-0.013899999999997623,1.5029999999997778,0.027047062221879525,1.1792432979131542,0.11200371880989247,0.1274598282192755
0.946,-0.0032,-0.497,0.027490197388500098,1.1787031052907861,0.1144743097570102,0.12727692676235164
0.9470000000000001,0.012999999999998046,-0.497,0.027861844500560163,1.1787031052907861,0.116546336668303,0.12727692676235164
0.948,0.0042,-0.497000000000111,0.02863407140872742,1.171276440864428,0.12085169754270256,0.12476236494232701
0.9490000000000001,0.023000000000002664,-1.497,0.029178152063446747,1.1792432979131542,0.12388508518896536,0.1274598282192755
0.95,0.035,-1.496999999999778,0.02899317683263804,1.1718200570800075,0.12285380136159019,0.12494642557869975
0.9510000000000001,0.04139999999999782,0.502999999999778,0.02889245143768824,1.171276440864428,0.12229223173757316,0.12476236494232701
0.952,0.0316,-1.496999999999889,0.028763779155926688,1.1621595224723207,0.12157485113135902,0.12167550742609
0.9530000000000001,0.018799999999998204,-0.49699999999977795,0.028776744524426384,1.1529705158511827,0.12164713634917569,0.11856424187173695
0.954,0.0107,1.5029999999997778,0.02865540934504762,1.1529705158511827,0.1209706619496687,0.11856424187173695
0.9550000000000001,-0.01220000000000806,-0.49699999999977795,0.028410328306063222,1.143707683445028,0.11960427299696455,0.11542797996778746
0.956,-0.0485,1.503,0.02828761271409407,1.143707683445028,0.1189201024471495,0.11542797996778746
0.9570000000000001,-0.03439999999999327,1.503,0.028567250002312965,1.1183088820505236,0.12047915125390264,0.10682831091120022
0.958,-0.0041,1.5029999999998889,0.029119846835332884,1.0923196629993408,0.12356001875416561,0.09802873492303237
0.9590000000000001,-0.008199999999997603,0.502999999999889,0.02933849547856536,1.100858074832557,0.1247790403964544,0.10091971843418321
0.96,0.0026,-0.497,0.029656031753174942,1.090569122257799,0.126549385664727,0.09743602699113009
0.9610000000000001,0.00570000000000191,0.503,0.029751474838034198,1.088815767092531,0.12708150507022697,0.09684236613581017
0.962,0.0143,-0.497,0.029323898794005775,1.0882306875926369,0.12469766017785008,0.09664426662738332
0.9629999999999999,-0.0101,1.503,0.028779239237112862,1.097961645354378,0.1216610450051415,0.09993902904765678
0.964,-0.0069,-1.497,0.02984102796552394,1.097961645354378,0.1275807864695109,0.09993902904765678
0.9649999999999999,-0.0097,1.503,0.031191145134833138,1.0985415421913924,0.1351080321211736,0.10013537378093092
0.966,-0.007,0.503,0.03146603245198758,1.0968009318775127,0.13664059863449826,0.09954602814908992
0.9669999999999999,-0.0047,0.503,0.03146433714583518,1.097381442078519,0.13663114687271494,0.09974258055859486
0.968,0.0067,0.503,0.031114681548227666,1.107031966417086,0.1346817282322444,0.10301010937797347
0.9689999999999999,0.0126,1.503,0.03078697521486339,1.1171693090893517,0.13285468230696318,0.10644246788736235
0.97,0.0403,0.503,0.030682695057540003,1.1272154876832907,0.13227329398111234,0.1098439595502697
0.9709999999999999,0.0444,-0.497,0.03069448177713504,1.137172918326399,0.1323390079323426,0.11321540243273502
0.972,0.0118,-1.497,0.030699399820832283,1.137172918326399,0.13236642727332742,0.11321540243273502
0.9729999999999999,0.0075,-0.497,0.030541333254489673,1.137172918326399,0.13148516607524605,0.11321540243273502
0.974,0.0036,0.503,0.030447322963998866,1.12721548768329,0.1309610348617525,0.10984395955026947
0.9749999999999999,-0.0145,1.503,0.030223451190570773,1.1272154876832903,0.12971289294387078,0.10984395955026956
0.976,-0.0373,0.503,0.030363176244504755,1.1194472949518335,0.1304918955582817,0.10721376115544413
0.9769999999999999,-0.0285,1.503,0.03010653583043468,1.1200160674856083,0.1290610601576488,0.10740633935954784
0.978,-0.0096,-1.497,0.029636905350887217,1.1205845513288486,0.12644275112090747,0.10759881981718632
0.9789999999999999,-0.0117,1.503,0.029646759743293154,1.121152746920698,0.1264976918579587,0.10779120267704737
0.98,-0.0051,0.503,0.029714572214131388,1.128909204243604,0.12687576358228672,0.11041742763122832
0.9809999999999999,0.0007,1.503,0.029798236645274322,1.118878233287263,0.12734221400587603,0.10702108505580918
0.982,-0.0047,-0.497,0.029692894561354568,1.1110517501115451,0.12675490516991197,0.1043711503544541
0.9829999999999999,0.0066,-0.497,0.02966381850510054,1.111051750111545,0.12659279878168078,0.10437115035445403
0.984,0.0172,-1.497,0.02966972941973752,1.0848886956401687,0.12662575362997838,0.0955127161918095
0.9849999999999999,0.0082,1.503,0.029589415713473514,1.0848886956401687,0.12617798434743976,0.0955127161918095
0.986,0.0094,-0.497,0.02962116439563399,1.0744468304322585,0.12635499130296254,0.09197725072921686
0.9869999999999999,0.0217,-0.497,0.029411723103518122,1.0825379905222852,0.12518730297842667,0.0947168012291531
0.988,0.0138,-0.497,0.028790556913261274,1.0807716063864639,0.12172414392019243,0.09411872895168902
0.9889999999999999,0.0276,0.503,0.028525478827545445,1.0708844568487466,0.12024626636007188,0.0907710822412519
0.99,0.0331,-2.497,0.0285225866593348,1.0708844568487466,0.12023014178875147,0.0907710822412519
0.9909999999999999,0.0546,-1.497,0.028428673319306905,1.0714790082736976,0.1197065510986784,0.09097238880734865
0.992,0.0634,-0.497,0.02840018197656404,1.0609051676136216,0.11954770463657394,0.08739223835373652
0.9929999999999999,0.0229,2.503,0.02845127999690912,1.0502248731426,0.11983258906008502,0.08377604416996068
0.994,-0.0065,2.503,0.02847955001567606,1.0502248731426007,0.11999020158488889,0.08377604416996091
0.9949999999999999,-0.0525,-0.497,0.028466706849747118,1.0508311136516388,0.11991859767739864,0.08398130849190458
0.996,-0.0474,0.503,0.02844995841301835,1.0508311136516422,0.11982522089469816,0.0839813084919057
0.9969999999999999,-0.0712,0.503,0.028760798477848248,1.0514370046128776,0.12155823309507671,0.08418645446198796
0.998,-0.058,-1.497,0.02910865422926672,1.0520425466302448,0.12349761713654497,0.08439148228469233
0.9989999999999999,-0.0061,0.503,0.029230028518559024,1.0526477403059389,0.12417430958373946,0.08459639216391344
1.0,-0.0128,-0.497,0.029151435407402313,1.0443250239619364,0.12373613305532179,0.0817784400448911
1.001,-0.0189,0.503,0.028947358932230435,1.0443250239619395,0.1225983549459373,0.08177844004489215
1.002,0.0106,0.503,0.028650256997521127,1.043715004405972,0.12094193630540888,0.08157189619198017
1.003,-0.0264,0.503,0.028473745554317836,1.0353204822295659,0.11995784024062031,0.07872963165028038
1.004,-0.0216,0.503,0.02847307914964522,1.0353204822295667,0.119954124865549,0.07872963165028067
1.005,-0.0086,-0.497,0.028501226549154893,1.024373472139029,0.12011105375689345,0.0750231313916458
1.006,0.0512,-0.497,0.02847766421807357,1.0249950027551948,0.1199796877849566,0.07523357272407497
1.007,0.0595,-0.49700000000022204,0.028066424587955285,1.0145644437009271,0.11768692254356419,0.07170193536258512
1.008,0.0363,-1.497,0.027860004061807872,1.0033910104840846,0.11653607575546503,0.06791877148810735
1.009,0.0432,-0.49700000000022204,0.027930270972940655,0.9927334862234304,0.11692783160695949,0.06431028697025104
1.01,0.0244,-1.497,0.027976688038695595,1.0033910104840869,0.1171866185213912,0.0679187714881081
1.011,0.007,-0.4969999999995559,0.02800152476582971,1.0033910104840869,0.11732508957454983,0.0679187714881081
1.012,-0.0086,1.503,0.02810866890864193,1.0310054724236082,0.11792244534589896,0.07726863135618012
1.013,-0.0807,0.503,0.02856938965088706,1.0310054724236082,0.12049108033738633,0.07726863135618012
1.014,-0.091,0.503,0.0291103397206815,1.0477964034885918,0.12350701417867672,0.08295379925320039
1.015,-0.044,-1.496999999999556,0.02938072845911514,1.039434843395933,0.12501449997464995,0.08012269519924328
1.016,-0.0358,0.503,0.02953417601895459,1.039434843395933,0.12587000903994885,0.08012269519924328
1.017,-0.0435,1.503,0.029528568222671435,1.069098818710145,0.12583874415335433,0.09016649083521344
1.018,-0.0504,1.503,0.0304770758816911,1.069098818710145,0.13112691492417536,0.09016649083521344
1.019,-0.0185,1.503,0.03226944023460252,1.0790023305898728,0.14111980079240766,0.09351967759945455
1.02,0.011,1.503,0.032780646562131574,1.0690988187101451,0.14396990572660706,0.09016649083521353
1.021,0.006,0.503,0.032529321166020204,1.0685029428674857,0.142568702899152,0.08996473584031857
1.022,0.0107,0.503,0.03231271283855624,1.0950575548411041,0.14136105653476178,0.09895574574477095
1.023,0.015,-0.49699999999977795,0.033119051663847175,1.086473558659173,0.14585659999899572,0.09604932802839836
1.024,0.0188,0.503,0.034381221895758624,1.086473558659173,0.15289351916851834,0.09604932802839836
1.025,0.0294,0.503,0.03476602784113854,1.085887217170631,0.155038909913069,0.09585080122875583
1.026,0.026,0.503,0.03473903962625276,1.1018421245399808,0.15488844377000893,0.1012529035198742
1.027,0.0109,0.503,0.034652125328055124,1.109733561224891,0.15440387451331977,0.10392483054576626
1.028,0.0083,0.503,0.03460578226360408,1.1001067364842054,0.15414550017492634,0.1006653260695599
1.029,0.0202,-1.497,0.03479439997550279,1.1018421245399808,0.15519709175822768,0.1012529035198742
1.03,0.0223,-0.497,0.03618402751269946,1.1204150180454242,0.16294461773195212,0.10754141828437848
1.031,0.0242,0.503,0.036941315012844506,1.1298688233209544,0.1671666876175176,0.11074234085675505
1.032,0.0116,-0.497,0.03711402485100556,1.1204150180454242,0.16812958876998746,0.10754141828437848
1.033,-0.0065,-0.497,0.03714072735883664,1.130432352316417,0.16827846202375316,0.11093314367415959
1.034,0.0004,-0.497,0.03713674714795897,1.1309956005283919,0.16825627133860174,0.11112385142231128
1.035,0.016,-0.497,0.03709622365399621,1.130995600528392,0.16803034258170915,0.11112385142231136
1.036,0.0102,-1.497,0.037088146061154556,1.1293050131216669,0.16798530795288183,0.11055144282777757
1.037,0.0156,-1.497,0.03708391140255034,1.1375658519007938,0.16796169865711888,0.11334844409279339
1.038,-0.0058,0.503,0.037038893357725367,1.1375658519007938,0.16771071163920803,0.11334844409279339
1.039,0.0029,-0.497,0.037020814331000865,1.1375658519007938,0.1676099164798013,0.11334844409279339
1.04,0.0055,0.503,0.0369173815165374,1.1375658519007936,0.1670332523053077,0.11334844409279332
1.041,0.0124,-0.497,0.03676666535862161,1.1125993453007366,0.16619297149850376,0.10489514383957552
1.042,0.0189,-0.497,0.03635690643853006,1.1041517325144121,0.1639084615910657,0.10203490358050944
1.043,0.0131,0.503,0.035800356871667584,1.1041517325144121,0.16080555659709114,0.10203490358050944
1.044,0.0149,0.503,0.035742599890044434,1.0835386783178431,0.1604835467755299,0.09505561973232178
1.045,-0.0098,1.503,0.035874114732040746,1.0625258050546251,0.16121677537601675,0.08794096289537415
1.046,-0.042500000000001,0.503,0.03577314353826712,1.0713017040759478,0.16065383536121447,0.09091235615465341
1.047,-0.047,0.503,0.03574794618992573,1.0713017040759478,0.16051335375336026,0.09091235615465341
1.048,-0.027199999999996,0.503,0.03508469219024115,1.0713017040759478,0.15681554448275592,0.09091235615465341
1.049,-0.0092,0.503,0.034791179845905934,1.0713017040759478,0.15517913871899763,0.09091235615465341
1.05,0.007199999999999378,-1.497,0.034900943797175434,1.0713017040759476,0.15579110058696308,0.09091235615465335
1.051,0.0044,-0.497,0.034943719185099455,1.071896024065291,0.1560295842238418,0.09111358435998015
1.052,0.0019000000000037303,0.503,0.034926329569105186,1.0713017040759476,0.15593263270411264,0.09091235615465335
1.053,0.0187,-0.497,0.034910324813920916,1.079416439866528,0.15584340213464412,0.0936598890479077
1.054,0.016499999999996958,-0.497,0.03481997493276412,1.0892261454377046,0.1553396786315842,0.09698131434449402
1.055,0.0028,0.503,0.03476071417475765,1.0972083236118744,0.15500928487528035,0.09968396513428393
1.056,-0.002500000000000311,0.503,0.03475143490193803,1.10743559447269,0.15495755057579147,0.10314677203564118
1.057,-0.0039,-0.497,0.03436922332504463,1.1074355944726897,0.15282662409356768,0.1031467720356411
1.058,-0.020399999999999512,0.503,0.033903160771631954,1.1080105329625831,0.15022820714996765,0.10334143794385389
1.059,-0.0182,1.503,0.03383403444125265,1.1001067364842045,0.14984281032546148,0.10066532606955961
1.06,0.01190000000000291,-0.497,0.03361753368281204,1.1001067364842037,0.14863576368565942,0.1006653260695593
1.061,0.025,-2.497,0.033575641398640756,1.0921457421790486,0.14840220357618547,0.09796984783330982
1.062,0.0529000000000008,-0.497,0.033604678452358504,1.0927287254441416,0.1485640925153846,0.0981672375867654
1.063,0.0565,-2.497,0.0337399676500405,1.0823624979224282,0.1493183641061161,0.09465738195746352
1.064,0.04009999999999804,0.503,0.03276641367004064,1.0921457421790501,0.14389055374328485,0.09796984783331035
1.065,0.0313,1.503,0.03171692089334957,1.0921457421790504,0.13803936532839992,0.09796984783331042
1.066,-0.003800000000015987,2.503,0.031590179367687814,1.0938937598837881,0.13733274917714344,0.09856170150121826
1.067,-0.0758,0.503,0.03162051457678647,1.0938937598837881,0.1375018756618447,0.09856170150121826
1.068,-0.10649999999998952,1.503,0.03142399441738998,1.0841262899965765,0.13640622592943066,0.09525457660010475
1.069,-0.0593,0.503,0.031025487255114982,1.0742700160624383,0.1341844474256244,0.09191738392521753
1.07,0.0007000000000051736,-0.497,0.030997336903517435,1.0637239194964507,0.13402750207564132,0.08834662722305567
1.071,0.024,-2.497,0.030979186565001024,1.0530722132916583,0.13392630933490773,0.08474011261528241
1.072,0.07340000000000423,-0.497,0.030980124240383475,1.052467263698041,0.13393153711298927,0.08453528537874393
1.073,0.0924,-0.497,0.030968158057696756,1.052467263698041,0.13386482260950533,0.08453528537874393
1.074,0.05149999999998941,-0.497,0.03094387397243437,1.0613263380813152,0.1337294326749492,0.08753484061997402
1.075,0.0038,-2.497,0.030893096820858685,1.0613263380813152,0.13344633717621002,0.08753484061997402
1.076,-0.02799999999999869,-1.497,0.03075206987194364,1.0607260959616975,0.13266007616707762,0.08733160726646416
1.077,-0.0221,0.503,0.03072832137495117,1.0689211197053994,0.13252767227296852,0.0901063245065446
1.078,-0.0376000000000139,1.503,0.0307083160113793,1.0770537914377096,0.13241613729705726,0.09285993025184813
1.079,-0.1002,2.503,0.030714863087539363,1.08688482135932,0.13245263890719688,0.09618857566696405
1.08,-0.07479999999999139,1.503,0.030707116747187454,1.0782357627867065,0.1324094510950161,0.09326012876034706
1.081,-0.036,0.503,0.030700646121128043,1.0782357627867047,0.13237337571357777,0.09326012876034646
1.082,-0.014999999999995803,1.503,0.030638736235973536,1.0880561131684234,0.13202821240152046,0.09658515823676829
1.083,0.0039,0.503,0.03062668806490216,1.0966277217689757,0.1319610407919972,0.09948738169615155
1.084,-0.0018999999999988898,-1.497,0.030857926165051078,1.0972083236118673,0.13325025184968287,0.09968396513428152
1.085,0.0031,-1.497,0.03161390050734215,1.1057089852905333,0.13746500054715374,0.10256216698574208
1.086,0.007600000000000955,-1.497,0.031947533311544526,1.1313906794959558,0.13932508805049934,0.11125761948165772
1.087,0.0119,-0.497,0.03207800273703564,1.1313906794959532,0.14005248818881874,0.11125761948165681
1.088,0.007699999999997558,-0.497,0.03238366090809413,1.1230844202023569,0.1417566100171282,0.1084452394833398
1.089,-0.0033,0.503,0.032856578742709204,1.1325159425598512,0.14439324689214952,0.11163861737997569
1.0899999999999999,-0.0003,0.503,0.03289034922153918,1.1864600040271174,0.14458152587689688,0.12990330117277332
1.091,-0.0033,-0.497,0.03368315992713051,1.237541343514967,0.14900164664264298,0.14719870845359634
