time_sec,bts_raw,diy_raw,bts_rms,diy_rms,bts_norm_rms,diy_norm_rms
0.0,-0.0149,-1.179,0.016966954743611394,1.236567941007226,0.02812813885337607,0.0915573948580675
0.001,0.0001,0.821,0.01713273292016767,1.2341270108403017,0.02854071512440691,0.09113123379088729
0.002,-0.0023,-1.179,0.01713282974669048,1.231681243278628,0.028540956098982377,0.09070422816480211
0.003,-0.014,-1.179,0.01725295635357513,1.2453946728660577,0.028839918173180563,0.09309845060789808
0.004,0.0015,-0.179,0.01725362943128471,1.2537789679370552,0.02884159327841637,0.09456226148763029
0.005,-0.0042,-1.179,0.01725868241532099,1.2565613011392207,0.0288541687654592,0.0950480279805652
0.006,0.0085,0.821,0.017258879117538952,1.2267750801845965,0.028854658303161182,0.08984766302080731
0.007,0.0038,0.821,0.017322425255460128,1.1933244689202391,0.029012807157048653,0.08400753355400965
0.008,0.0023,-0.179,0.017426575701068304,1.1619182768013459,0.029272008961338223,0.0785243384463348
0.009000000000000001,0.0033999999999999846,-0.179,0.01749036297486839,1.1472074249263926,0.02943075793608478,0.07595597642635124
0.01,-0.0053,1.821,0.017586087825150167,1.1441591990308233,0.029668990751734278,0.0754237878294529
0.011,-0.0217,1.821,0.01759178305867558,1.0808082454759123,0.02968316462105397,0.0643633690023689
0.012,-0.0146,-1.179,0.017592488996579513,1.080808245475916,0.02968492150627272,0.06436336900236957
0.013000000000000001,0.009900000000000018,-1.179,0.01759273164594075,1.0840346242478196,0.02968552539377291,0.06492666124202205
0.014,0.0195,-1.179,0.017679793857511963,1.114930257408799,0.02990219928501671,0.07032071805589751
0.015,0.0107,-1.179,0.01778727001903858,1.1149302574087991,0.030169677881225706,0.07032071805589755
0.016,0.0131,-0.179,0.01791344619142538,1.1180581746783282,0.030483695659546593,0.07086681993939128
0.017,-0.0036,0.821,0.018228127522492154,1.1180581746783291,0.031266850914547714,0.07086681993939144
0.018000000000000002,-0.005800000000000075,-1.179,0.018294113185564096,1.1331475138408966,0.031431071075350835,0.07350126191061225
0.019,-0.0276,-1.179,0.01829750700691201,1.136225281888759,0.03143951736294642,0.07403860826061578
0.02,-0.0245,-0.179,0.0183136007700491,1.1331475138408986,0.031479570311530404,0.0735012619106126
0.021,-0.0056,-0.179,0.01869311323781354,1.1273898576815369,0.03242407242883299,0.0724960349169939
0.022,-0.0091,0.821,0.0193548132798447,1.1304833011958118,0.0340708617804428,0.07303611804070174
0.023,0.0029,-0.179,0.019891075266582955,1.1423559416232614,0.03540547032410085,0.07510895780620172
0.024,0.0183,1.821,0.0200813155860774,1.1514907323118686,0.035878926138654885,0.07670379742966799
0.025,0.02,0.821,0.020112390869817462,1.1514907323118684,0.03595626397016582,0.07670379742966794
0.026000000000000002,0.010899999999999983,1.821,0.02011565559241067,1.1458252526801402,0.035964388966479785,0.0757146635008643
0.027,0.0061,1.821,0.020139396778721827,1.1601426233873675,0.03602347424731457,0.07821432779379871
0.028,0.0076,-0.179,0.020314617245111917,1.162738878872361,0.03645954977989209,0.07866760704903915
0.029,0.0064,-0.179,0.020557755143733467,1.179409975879127,0.03706465311522465,0.08157820751919552
0.03,-0.0073,-2.179,0.020629783243081512,1.1958486869019218,0.037243911237468307,0.08444823580901308
0.031,-0.0346,0.821,0.020848561281901472,1.1958486869019218,0.03778838958386355,0.08444823580901308
0.032,-0.0304,0.821,0.020849747458224526,1.1845123380048284,0.03779134165037988,0.08246902697732399
0.033,-0.0194,-0.179,0.020908594891487456,1.1815603563958468,0.03793779672112385,0.08195364163372557
0.034,-0.003,-0.179,0.020916850017636948,1.1841096527127513,0.03795834145888365,0.08239872230571366
0.035,-0.0116,-0.179,0.020935878093927333,1.1752284290338433,0.038005697105590944,0.0808481528497923
0.036000000000000004,0.01789999999999997,0.821,0.020945731515208676,1.172659825596545,0.038030219560196254,0.08039970135501595
0.037,0.0138,-1.179,0.020963068803232645,1.1781962754519002,0.03807336730009366,0.08136630802435835
0.038,0.0101,0.821,0.020964045869411776,1.1756341563800765,0.03807579894899408,0.08091898863247789
0.039,0.0132,1.821,0.021024831664205792,1.1781962754518953,0.03822707806828906,0.08136630802435749
0.04,0.0217,-1.179,0.021101538190225415,1.187055294721717,0.03841797950734646,0.08291300082096244
0.041,0.0618,0.821,0.021240719340068777,1.1870552947217172,0.038764363096507645,0.08291300082096248
0.042,0.0556,0.821,0.02124173382854677,1.189592815449091,0.038766887879213965,0.08335602559726411
0.043000000000000003,0.028899999999999832,-1.179,0.02124193479215446,1.189592815449091,0.038767388022342544,0.08335602559726411
0.044,0.0049,0.821,0.02133331089120995,1.189592815449091,0.03899479799265828,0.08335602559726411
0.045,-0.0081,-0.179,0.021497566764525293,1.1807528349870413,0.039403585669752515,0.0818126567788491
0.046,-0.0199,1.821,0.021550701359900306,1.1950508204627512,0.039535823058762,0.08430893661160398
0.047,-0.0378,0.821,0.02159123594411304,1.1921249348995728,0.039636702486619615,0.08379810736669259
0.048,-0.067,2.821,0.02161761412318784,1.1921249348995713,0.03970235051692938,0.08379810736669231
0.049,-0.0784,0.821,0.021662102286502113,1.1975713996793322,0.03981306931542565,0.08474900357599567
0.05,-0.0238,0.821,0.021849772446724196,1.197571399679329,0.04028012871067665,0.08474900357599509
0.051000000000000004,-0.0005999999999998549,0.821,0.02210049180532449,1.1921249348995644,0.04090410021401526,0.08379810736669112
0.052000000000000005,0.020299999999999867,1.821,0.02218701836498174,1.1921249348995653,0.04111944101501868,0.08379810736669127
0.053,0.0015,1.821,0.022189413423774958,1.2008812054684812,0.04112540165740439,0.08532686130678048
0.054,-0.0042,0.821,0.02225460277416551,1.2008812054684812,0.0412876400150324,0.08532686130678048
0.055,0.0008,0.821,0.022493392755235795,1.2037858084920325,0.04188192257981896,0.08583397484121286
0.056,0.0148,-0.179,0.022605036497422706,1.1983675879321003,0.04215977313766828,0.08488800977948062
0.057,0.019,0.821,0.02280510944638175,1.1954498202462605,0.04265769966171618,0.08437859783167863
0.058,0.0149,-0.179,0.02283572516991775,1.1954498202462605,0.04273389377431765,0.08437859783167863
0.059000000000000004,0.01829999999999984,-0.179,0.02283458193657985,1.200881205468481,0.04273104858107649,0.08532686130678044
0.06,-0.0045,0.821,0.022832558610420398,1.200881205468481,0.04272601307894173,0.08532686130678044
0.061,-0.0016,1.821,0.02282648505926373,1.1895928154490714,0.04271089768112407,0.0833560255972607
0.062,0.0009,0.821,0.022845310423436006,1.1752284290338113,0.042757748833141415,0.08084815284978672
0.063,0.0175,2.821,0.022806986700490514,1.1696779315216066,0.042662371630705465,0.07987909360539097
0.064,0.0195,-0.179,0.02279270514579719,1.1696779315216066,0.042626828770346556,0.07987909360539097
0.065,0.0212,0.821,0.02276862163853049,1.178600981132638,0.04256689154683592,0.08143696543485461
0.066,0.0337,0.821,0.02275314881480418,1.1730664413434562,0.042528383945606804,0.08047069224323719
0.067,0.0155,1.821,0.02271840598745212,1.1786009811326377,0.04244191860709396,0.08143696543485457
0.068,0.0035,0.821,0.022724259611037904,1.1786009811326377,0.04245648666569618,0.08143696543485457
0.069,-0.0077,-0.179,0.022789515660935192,1.176039743752559,0.04261889102004547,0.0809897999771997
0.07,-0.0375,-0.179,0.022632814895253435,1.176039743752559,0.042228905927220485,0.0809897999771997
0.07100000000000001,-0.05019999999999994,0.821,0.022501728010802368,1.1790055478940584,0.04190266673765193,0.08150759859148025
0.07200000000000001,-0.04589999999999975,1.821,0.022498973632633062,1.1790055478940584,0.041895811848198405,0.08150759859148025
0.073,-0.0276,1.821,0.022625092689334603,1.176039743752559,0.042209687481292876,0.0809897999771997
0.074,-0.0112,-0.179,0.023047569139850108,1.1790055478940584,0.04326111513101649,0.08150759859148025
0.075,0.0036,-0.179,0.02309068961281718,1.1790055478940582,0.04336843012453014,0.08150759859148021
0.076,-0.0098,-2.179,0.023094192749630173,1.181560356395813,0.043377148468242435,0.08195364163371968
0.077,0.0266,-1.179,0.02312498720774026,1.1866534723703732,0.0434537874020237,0.08284284680984573
0.078,0.0315,-2.179,0.02314339601288066,1.1752284290338113,0.04349960185321825,0.08084815284978672
0.079,0.0172,-2.179,0.02339079372485266,1.1752284290338113,0.044115306691981035,0.08084815284978672
0.08,0.0301,-1.179,0.023577169435729604,1.1752284290338113,0.044579144558952795,0.08084815284978672
0.081,0.0022,0.8209999999998889,0.024090029611843207,1.1700855835052477,0.045855512434487614,0.0799502654097878
0.082,-0.0157,-0.17900000000011101,0.023903119650769744,1.1815603563958128,0.04539034496576455,0.08195364163371964
0.083,-0.0059,-1.179,0.02371345250483115,1.1929247582666664,0.044918315622494244,0.08393774822340165
0.084,0.0089,-1.178999999999778,0.023757978733766887,1.1983675879321003,0.045029129155849376,0.08488800977948062
0.085,0.0064,0.8209999999997779,0.023792892383214585,1.1983675879321003,0.04511601962356012,0.08488800977948062
0.08600000000000001,0.00849999999999991,-1.178999999999778,0.023767039751073683,1.2012782687144492,0.04505167953497551,0.08539618442750417
0.08700000000000001,0.0019999999999997502,0.8209999999997779,0.02370701093919873,1.2124578681195353,0.044902284337897974,0.08734802642514819
0.088,-0.016,-1.178999999999667,0.023737132572243684,1.2124578681195353,0.04497724879520595,0.08734802642514819
0.089,-0.018,1.820999999999778,0.023812574362829093,1.2095740898703082,0.04516500265573325,0.08684454868012514
0.09,-0.0243,-0.17900000000011101,0.02390045717960524,1.1983675879321003,0.04538371880755967,0.08488800977948062
0.091,-0.0021,-1.179,0.023857792627378843,1.20707857451135,0.04527753847533245,0.08640885760507959
0.092,0.0009,-1.179,0.02308639851396387,1.2182049450415708,0.04335775076009086,0.08835140639375569
0.093,0.0197,-1.179,0.02249031844639062,1.2182049450415708,0.04187427147093547,0.08835140639375569
0.094,0.0265,-1.178999999999667,0.022309905828694243,1.2157271463130634,0.04142527410226905,0.08791880845846568
0.095,0.0151,1.820999999999778,0.022325657921425237,1.2128511414032312,0.04146447672721577,0.08741668785780381
0.096,0.0132,-0.17899999999988897,0.022318133351818658,1.2128511414032312,0.04144575014369383,0.08741668785780381
0.097,-0.0107,0.8209999999997779,0.02224858066296632,1.1987654837558313,0.041272652637116276,0.0849574782596385
0.098,-0.0139,-1.178999999999667,0.021925610457773644,1.1987654837558313,0.040468868654927125,0.0849574782596385
0.099,-0.0286,1.820999999999778,0.020878902061520457,1.170085583505243,0.03786389943670066,0.07995026540978697
0.1,-0.0364,-0.17899999999988897,0.019465884355817774,1.170085583505243,0.03434728712964308,0.07995026540978697
0.101,-0.0196,0.821000000000111,0.01941065557045632,1.1670971123464495,0.03420983787793016,0.0794285093695994
0.10200000000000001,-0.003999999999999639,1.8209999999996669,0.019572490470253914,1.1641009692324962,0.03461260041801924,0.07890541388568559
0.10300000000000001,0.022000000000000148,-1.179,0.019604725831539598,1.1494180529334264,0.03469282536337002,0.0763419291272444
0.10400000000000001,0.03269999999999986,0.821,0.01976193575244807,1.1345451309888472,0.035084077603470834,0.07374527135559794
0.105,0.0228,-0.179,0.019805130521302526,1.1314627926587406,0.035191577499007205,0.07320712708175992
0.106,0.0313,-0.179,0.019807583061430663,1.1314627926587406,0.03519768119662073,0.07320712708175992
0.107,0.0124,0.821,0.019805009102439528,1.1314627926587402,0.03519127532086308,0.07320712708175985
0.108,0.0004,-1.179,0.020359345280651114,1.1314627926587402,0.03657086555436034,0.07320712708175985
0.109,-0.0016,-0.179,0.020811983520875838,1.166688416163134,0.03769735760028101,0.07935715525877954
0.11,0.0003,0.821,0.020897619417181497,1.1696779315215904,0.037910481785249826,0.07987909360538814
0.111,-0.0236,-0.179,0.020897835995981957,1.1696779315215904,0.03791102079029702,0.07987909360538814
0.112,0.0061,-0.179,0.020943925097868382,1.158085428804474,0.038025723884434426,0.07785516297592601
0.113,-0.0058,-1.179,0.02095141119682859,1.155065910383411,0.03804435472510194,0.07732798640605636
0.114,-0.0165,1.821,0.020878792988233134,1.119474630392179,0.037863627983297767,0.07111411840241483
0.115,-0.0067,-0.179,0.020793261865253918,1.1225898855642207,0.037650764550312264,0.07165800961513596
0.116,-0.0038,-1.179,0.020730802871748135,1.1225898855642205,0.03749532129976953,0.07165800961513592
0.117,-0.0063,0.821,0.020547626944983407,1.1225898855642171,0.03703944681509901,0.07165800961513534
0.11800000000000001,-0.018199999999999845,0.821,0.020635147011988573,1.1132179669466937,0.03725726018254851,0.0700217699169703
0.11900000000000001,-0.006999999999999866,-1.179,0.02072715645335592,1.1100764112679569,0.03748624636762749,0.06947328690881296
0.12,0.0027,0.821,0.02085294884637912,1.1100764112679569,0.03779930902470129,0.06947328690881296
0.121,0.0043,-0.179,0.020517578794704377,1.1132179669466937,0.03696466523617817,0.0700217699169703
0.122,0.0255,-0.179,0.020019448859503963,1.1159234004958234,0.03572495687755682,0.07049411052880154
0.123,0.044,0.821,0.01958033519630199,1.1064950187578837,0.03463212378283967,0.06884801295597094
0.124,0.0231,1.821,0.019511019389803708,1.0969856048726698,0.0344596158112681,0.06718776801144319
0.125,0.0204,-1.179,0.019481652605648544,1.0969856048726698,0.03438652996516584,0.06718776801144319
0.126,-0.0162,-2.179,0.019497594349758555,1.0969856048726698,0.034426204580216294,0.06718776801144319
0.127,-0.0111,0.821,0.01992881683785344,1.0914741543506166,0.035499398711184633,0.06622552596617039
0.128,-0.0348,-0.179,0.02030346944811394,1.085495477970672,0.03643180598024864,0.06518171113650939
0.129,-0.0303,-0.179,0.020126453742693246,1.0673585348573973,0.03599126259164663,0.06201518915350659
0.13,-0.05,1.821,0.020158929830088785,1.0455732629001653,0.03607208663805406,0.05821170682865001
0.131,-0.0173,1.821,0.019956542880070125,1.0555459522587591,0.03556840120201804,0.05995283486144031
0.132,0.0044,1.821,0.019965808988345816,1.0682517776298042,0.035591461996139245,0.06217114006857091
0.133,0.0242,-1.179,0.01990541682158538,1.0715159651114026,0.03544116250872127,0.06274103331643355
0.134,0.0132,-0.179,0.020352377997835756,1.065425298445651,0.03655352590433589,0.061677666145472466
0.135,0.0033,0.821,0.020908447822513103,1.0625913008898473,0.03793743070690966,0.061182879592734135
0.136,0.006,1.821,0.02101747179897378,1.062591300889849,0.03820876138864044,0.06118287959273445
0.137,-0.0183,-1.179,0.02101627647442459,1.0597497246451895,0.038205786554706196,0.060686769879598305
0.138,-0.0215,-0.179,0.021059107064326184,1.0597497246451912,0.038312380109025164,0.06068676987959862
0.139,-0.0244,0.821,0.021071017310294354,1.053591041137381,0.03834202143438345,0.05961152767411557
0.14,-0.0164,1.821,0.02129349487942236,1.0373451093084647,0.038895706893866594,0.05677515663025558
0.14100000000000001,-0.014199999999999068,1.821,0.02178143426932801,1.040706240437509,0.040110053788965885,0.05736197523256369
0.14200000000000002,0.01939999999999961,0.821,0.022458670661622982,1.0378047432173079,0.04179550884187864,0.05685540393915408
0.14300000000000002,0.005300000000000122,0.821,0.02250254850737927,1.0378047432173079,0.041904708727889275,0.05685540393915408
0.14400000000000002,0.009699999999999886,-0.179,0.022418554076733946,1.0378047432173079,0.04169566969933389,0.05685540393915408
0.145,0.0056,-0.179,0.022261652714668446,1.0378047432173116,0.041305185377299686,0.05685540393915474
0.146,0.0092,-0.17899999999977795,0.02221241595910437,1.0276599027918751,0.041182648639170066,0.0550842201172411
0.147,-0.0006,0.821,0.02217332884621518,1.0276599027918751,0.04108537156919512,0.0550842201172411
0.148,0.0023,-1.178999999999556,0.022149542632231917,1.0407062404375187,0.041026174226872894,0.0573619752325654
0.149,0.021,0.821,0.022106138820475015,1.0507251249131497,0.04091815408106614,0.05911116845322622
0.15,0.0187,-0.179,0.021924090110638266,1.0378047432173252,0.04046508492919906,0.056855403939157105
0.151,0.0251,-0.179,0.0216255936155514,1.0378047432173254,0.0397222092780309,0.05685540393915714
0.152,0.0232,-0.179,0.021538061870163664,1.0344341844530238,0.039504366846300244,0.05626693936960396
0.153,0.0249,-0.179,0.021534395202314753,1.0242559605522699,0.039495241518831714,0.0544899271394629
0.154,0.0137,-0.17899999999977795,0.0214227361142385,1.0178825451918492,0.03921735276928592,0.05337719498170426
0.155,0.0032,0.821,0.021206011803201072,1.0208406681003008,0.038677985586300916,0.053893652532435644
0.156,-0.0145,-0.17899999999977795,0.02122730195797713,1.0242559605522699,0.03873097092399519,0.0544899271394629
0.157,-0.0509,0.821,0.02115682048215752,1.0242559605522699,0.038555561922192505,0.0544899271394629
0.158,-0.0457,2.820999999999556,0.021433793845259928,1.0242559605522699,0.03924487241949352,0.0544899271394629
0.159,0.0263,0.821,0.021608481575752157,1.0178825451918492,0.039679622118992466,0.05337719498170426
0.16,-0.0046,0.821,0.021667982608234673,1.0242559605522699,0.03982770381836976,0.0544899271394629
0.161,-0.014,0.821,0.021675255795539344,1.0271957294343101,0.039845804780504854,0.05500318026772103
0.162,-0.0057,-0.179,0.021546878187637664,1.0271957294343101,0.03952630823486662,0.05500318026772103
0.163,0.0018,-0.179,0.021628773199578347,1.0305899619380487,0.03973012238787755,0.05559577802641634
0.164,-0.005,0.821,0.021653104874236474,1.0305899619380487,0.039790677231747354,0.05559577802641634
0.165,0.0138,0.821,0.021635518261754937,1.0174139111335585,0.03974690899187149,0.05329537634014525
0.166,0.0195,0.8209999999995559,0.021771271718261574,1.0174139111335585,0.040084761995376104,0.05329537634014525
0.167,0.0245,-1.179,0.02193451021694195,1.0109973638182588,0.040491017706913386,0.05217511379082937
0.168,0.0198,-0.179,0.022030457188084843,1.0109973638182586,0.04072980332027426,0.052175113790829335
0.169,0.0241,-0.179,0.02197891906232408,1.0139755734181668,0.04060153910489923,0.05269507826936359
0.17,0.0041,0.821,0.021969355810443722,1.007537129126309,0.040577738802098896,0.051570992735259204
0.171,0.0223,-1.179,0.021977057818797045,1.007537129126309,0.040596906981842894,0.051570992735259204
0.17200000000000001,0.019100000000000082,-1.179,0.021979252723301753,1.013975573418167,0.04060236949527278,0.05269507826936363
0.17300000000000001,0.022099999999999478,-1.179,0.021940360585466646,1.0174139111335585,0.04050557766456412,0.05329537634014525
0.17400000000000002,0.0031999999999996697,-0.179,0.021627987066297098,1.0174139111335585,0.039728165918428746,0.05329537634014525
0.17500000000000002,-0.008700000000000934,-0.179,0.02150448582558295,1.0174139111335585,0.03942080530908926,0.05329537634014525
0.176,-0.0424,1.821,0.021650717579112345,1.0144457958544915,0.039784735910998,0.05277717422523795
0.177,-0.0471,-0.179,0.021800730245498088,0.9950146139454462,0.040158076164766646,0.049384691584341105
0.178,-0.0167,0.821,0.02177770010172053,0.9950146139454462,0.04010076047316942,0.049384691584341105
0.179,-0.0207,-0.179,0.02153296953997243,0.9950146139454463,0.039491693437503014,0.049384691584341125
0.18,-0.0098,1.821,0.021337117779723514,0.9950146139454463,0.039004272290782335,0.049384691584341125
0.181,-0.0065,1.821,0.02076828200351071,1.001057275907562,0.0375885965471229,0.050439677632397345
0.182,0.0022,0.821,0.020701030198870863,0.9874872488129074,0.03742122530830978,0.048070491775839344
0.183,0.0428,-0.179,0.02071866662687209,0.970134970202248,0.037465117525308435,0.045040964069176036
0.184,0.0487,0.821,0.02062603138004799,0.970134970202248,0.03723457388262496,0.045040964069176036
0.185,0.0223,0.821,0.020666350851887613,0.9737281260643038,0.0373349179549696,0.04566829178115565
0.186,0.0082,0.821,0.020820718321002796,1.0199059030965378,0.03771909611459841,0.05373045226683021
0.187,-0.0136,0.821,0.020815427171767417,1.003114572226122,0.03770592789990123,0.05079886021226127
0.188,-0.0175,-0.179,0.020754028992967456,1.003114572226122,0.037553124725300174,0.05079886021226127
0.189,-0.0356,-0.179,0.020687208866415147,1.0095812210679298,0.037386827814479696,0.05192786996798777
0.19,-0.0519,0.821,0.02056402580316839,1.0061161159894159,0.03708025906131664,0.051322898593484295
0.191,-0.0548,0.821,0.02050550619145961,0.9926152506254594,0.03693461984822766,0.04896578765711933
0.192,-0.0141,-1.179,0.020475693581886067,0.9789282060983122,0.036860424465318654,0.04657617177163815
0.193,0.0034,-1.179,0.02039125503907027,0.9789282060983122,0.03665028016375919,0.04657617177163815
0.194,-0.0016,-1.179,0.02038606001257367,0.9753542072577918,0.036637351172112656,0.04595218867674432
0.195,0.0031,-1.179,0.020369814217576228,0.9753542072577919,0.036596919858056666,0.04595218867674433
0.196,-0.0012,-0.179,0.020364601137486702,0.9820036794921349,0.036583945935984415,0.04711311749886777
0.197,0.0029,1.821,0.020344011213779083,0.9855535650665955,0.036532703280765466,0.04773289066783399
0.198,-0.0007,1.821,0.020382763144827513,0.9886084277694115,0.03662914617535707,0.04826623798237908
0.199,-0.0039,0.821,0.0203814505278623,0.9820036794921403,0.03662587943286992,0.04711311749886872
0.2,0.0048,-0.179,0.02027895083961178,0.9784409146477463,0.03637078590947199,0.046491095743075375
0.201,0.0023,-0.179,0.020252680302936,0.9784409146477463,0.036305405771477825,0.046491095743075375
0.202,0.0001,-1.179,0.02011694263521733,0.9784409146477463,0.0359675920619225,0.046491095743075375
0.203,0.0023,-0.179,0.020041109992883954,0.9850695510355266,0.035778865478929237,0.047648386842691605
0.20400000000000001,0.01210000000000035,-1.179,0.01993704598891896,0.9850695510355266,0.03551987880410693,0.047648386842691605
0.20500000000000002,0.024700000000000038,0.821,0.019981481282576957,0.991653879787676,0.03563046602457472,0.04879794228909638
0.20600000000000002,0.02610000000000029,-0.179,0.020167581806295957,0.9946900075597332,0.036093619026422386,0.049328018679223436
0.20700000000000002,0.03649999999999975,0.821,0.020145201549642715,1.0012110706837989,0.036037920725074654,0.0504665286037426
0.20800000000000002,0.02739999999999969,-0.179,0.019524202868882748,1.004218303906591,0.03449242586353573,0.05099156030553022
0.209,0.0161,-1.179,0.01900627760417986,0.9630683219081103,0.03320345237605597,0.043807200637831396
0.21,0.0056,-1.179,0.018823799689166767,0.9630683219081103,0.03274931505059186,0.043807200637831396
0.211,-0.001,-0.179,0.019060230880148896,0.9630683219081103,0.033337727235821034,0.043807200637831396
0.212,-0.0198,0.821,0.019184232857916237,0.9594352451226292,0.03364633404191853,0.04317290314705177
0.213,-0.0118,-1.179,0.019300212846019137,0.9630683219081103,0.03393497632282486,0.043807200637831396
0.214,-0.014,0.821,0.019384752199119237,0.9630683219081104,0.03414537151344609,0.04380720063783142
0.215,-0.0252,-0.179,0.0193968924871277,0.9769775820059987,0.03417558535015139,0.04623561305508327
0.216,-0.027,-0.179,0.01938098409719969,0.9769775820059986,0.03413599374448322,0.04623561305508325
0.217,-0.0215,0.821,0.019285348189075242,0.9800591765722757,0.033897982281392736,0.046773627475477864
0.218,-0.0102,-1.179,0.01917513180786126,0.9733964211270304,0.03362368403229635,0.04561037954262753
0.219,-0.0026,-0.179,0.019175131807861262,0.9769775820060025,0.033623684032296354,0.04623561305508393
0.22,0.0064,0.821,0.019023557238298593,0.9769775820060025,0.033246456631245515,0.04623561305508393
0.221,0.0053,-1.179,0.019038628878333363,0.9733964211270305,0.033283965796643736,0.04561037954262755
0.222,0.0219,0.821,0.019375215809050824,0.9666877446943738,0.034121638062305226,0.04443911428209354
0.223,0.024,0.821,0.020089260515688698,0.9635633875885192,0.03589869888257524,0.04389363396621834
0.224,0.0014,1.821,0.02026675195629164,0.9604288667360137,0.03634042624515722,0.04334637916569053
0.225,-0.0324,0.821,0.020391201362014583,0.9671809577222038,0.03665014657633571,0.044525224156573104
0.226,0.0302,0.821,0.020396659459367417,0.9738862366319025,0.03666373027896493,0.04569589624486927
0.227,0.0047,0.821,0.02008460801830528,0.9562871931288643,0.03588712009662582,0.042623285949730555
0.228,0.0122,-0.179,0.019994634251844907,0.9562871931288643,0.03566320014631668,0.042623285949730555
0.229,-0.0088,-0.179,0.0206431247258048,0.9526282552301805,0.03727711451733506,0.04198447337705702
0.23,0.0101,-2.179,0.02150965054554593,0.9702936662792736,0.039433658876111825,0.04506867075675725
0.231,0.0044,0.821,0.021918884319391374,0.9942104414564646,0.04045212914705075,0.04924429141609983
0.232,0.0096,-0.179,0.02228553183343406,0.9942104414564648,0.04136461393406436,0.04924429141609985
0.233,-0.0143,-1.179,0.022469447079855057,1.0076899349405266,0.04182232838195091,0.05159767104410257
0.234,-0.0185,0.821,0.022073483662272797,1.011149646718933,0.04083688437668849,0.05220170080439657
0.23500000000000001,0.025499999999999187,-3.179,0.021634359977094255,1.0076899349405244,0.03974402634002899,0.05159767104410218
0.23600000000000002,-0.0038000000000001414,-0.179,0.021539499549818937,1.0042183039066033,0.03950794483541456,0.05099156030553235
0.23700000000000002,-0.00890000000000013,-1.179,0.02161953625069887,1.0072165585127595,0.03970713416347092,0.0515150244340648
0.23800000000000002,-0.01359999999999988,-1.179,0.02170581028491672,1.0264167703735683,0.03992184649813281,0.0548671821023029
0.23900000000000002,-0.009299999999999888,-0.179,0.021734372143182086,1.0298135703045916,0.03999292910515397,0.055460228107148964
0.24,-0.0053,0.821,0.021453736745395965,1.0331992027982149,0.03929450481105788,0.056051324393357194
0.241,-0.0089,0.821,0.020838874404524147,1.0361135972971778,0.03776428161121425,0.05656014741774844
0.242,-0.0057,0.821,0.020169835488969428,1.0327375191328698,0.03609922782254273,0.05597071921825255
0.243,-0.0027,-0.179,0.020146618210502655,1.03273751913287,0.036041446404190276,0.05597071921825259
0.244,0.0053,-0.179,0.020168893043880667,1.0264167703735645,0.03609688233601097,0.054867182102302244
0.245,0.0032,-1.179,0.02017101628934923,1.023474764057652,0.03610216650981539,0.05435353834131744
0.246,0.0011,0.821,0.02022672867703095,1.0170964535098184,0.03624081931465033,0.05323995153465478
0.247,-0.0126,-1.179,0.020248106522864524,1.0205242764489406,0.03629402289126039,0.05383841383465656
0.248,0.0002,-0.179,0.020285638546976265,1.007216558512741,0.036387429773118596,0.051515024434061585
0.249,0.005,-0.179,0.020289422061145704,1.0072165585127413,0.03639684589893109,0.05151502443406162
0.25,0.0156,-0.179,0.02028625641524212,1.007216558512741,0.03638896747723871,0.051515024434061585
0.251,0.0091,-0.179,0.020287771866012383,1.007216558512741,0.03639273901726112,0.051515024434061585
0.252,0.0153,-1.179,0.02028900242005459,1.010677890735537,0.036395801527710825,0.05211933710712373
0.253,0.0143,-0.179,0.02030950364576037,1.0042183039065848,0.0364468234380066,0.05099156030552913
0.254,0.0191,-1.179,0.020311322135780338,1.0042183039065848,0.03645134915934659,0.05099156030552913
0.255,0.0275,-1.179,0.020289061075982596,1.0205242764489408,0.036395947506177674,0.053838413834656595
0.256,0.0109,-1.179,0.020194568385245762,1.0170964535098184,0.03616078119663246,0.05323995153465478
0.257,-0.0112,-1.179,0.02007393049274943,1.0234747640576518,0.035860546673216406,0.0543535383413174
0.258,0.0095,-0.179,0.01973886564424199,1.026416770373564,0.035026662451406405,0.05486718210230217
0.259,0.0016,0.821,0.019548149572644422,1.0298135703045876,0.03455202262076099,0.05546022810714827
0.26,-0.0303,0.821,0.0195519297986938,1.0234747640576518,0.03456143056334732,0.0543535383413174
0.261,-0.0259,-0.179,0.019721019292228185,1.033660680252963,0.03498224779129666,0.056131893566232355
0.262,-0.0219,0.821,0.019730135691726464,1.0399374013956966,0.03500493600146014,0.057227743917391966
0.263,-0.0182,-0.179,0.019671968668502963,1.0428329648907662,0.03486017428410364,0.057733279243993255
0.264,-0.0085,1.821,0.01964532508270861,1.0365737772789017,0.03479386572949004,0.05664049006530297
0.265,-0.0114,0.821,0.019598899048569995,1.0394787105003553,0.034678324103676834,0.057147661248861226
0.266,-0.0034,-1.179,0.019437290277560665,1.0394787105003556,0.03427612433592712,0.05714766124886127
0.267,0.0133,-0.179,0.019337157003464233,1.0394787105003553,0.03402692016628908,0.057147661248861226
0.268,0.0198,0.821,0.01928589208095258,1.058093653863083,0.03389933587863489,0.060397637113166966
0.269,0.0017,-0.179,0.019287216475711185,1.0552399663129224,0.03390263193280938,0.059899412891821144
0.27,0.0086,-0.179,0.01935112652031659,1.0552399663129224,0.03406168645031255,0.059899412891821144
0.271,0.0423,-0.17899999999977795,0.019486642808222102,1.0735816584060782,0.03439894920642097,0.06310168192115594
0.272,0.0564,0.821,0.01947963768523305,1.0707692484493163,0.03438151538261512,0.0626106643391035
0.273,0.0347,0.8209999999995559,0.019433241540964367,1.0735816584060782,0.03426604814446461,0.06310168192115594
0.274,0.0227,-1.179,0.01930744157066959,1.0916152106066463,0.03395296662964658,0.06625015292412954
0.275,-0.0099,-1.178999999999778,0.019372474251192037,1.0759435681619296,0.034114815079077335,0.06351404684489538
0.276,-0.0231,-0.179,0.019637367214741283,1.0884113032068388,0.034774060785561244,0.06569078395276355
0.277,-0.0431,-0.179,0.019407057334638426,1.0911782433634023,0.03420088285895918,0.06617386297973579
0.278,-0.054,-0.179,0.019403663534320277,1.0879730491653992,0.03419243662370089,0.06561426934676347
0.279,-0.0639,1.821000000000222,0.01936772490591538,1.0939381850136105,0.03410299526536732,0.06665572014015181
0.28,-0.0433,2.821,0.019457994685305742,1.0998709695011903,0.034327651910417395,0.06769152272182223
0.281,-0.0408,1.821,0.020269529340388864,1.0787424881361893,0.03634733839003574,0.06400270921604613
0.28200000000000003,-0.028799999999998868,1.821,0.021202965879621716,1.0787424881361893,0.03867040512053443,0.06400270921604613
0.28300000000000003,-0.008399999999998351,0.8209999999997779,0.021568146024177347,1.0787424881361893,0.039579238028610964,0.06400270921604613
0.28400000000000003,0.02129999999999934,-0.179,0.02162089969321611,1.0787424881361893,0.03971052739677348,0.06400270921604613
0.28500000000000003,0.009400000000000606,-0.17900000000022204,0.021610178791933617,1.0787424881361893,0.03968384602311439,0.06400270921604613
0.28600000000000003,0.020300000000000182,-1.179,0.02155543782494006,1.0381014217642826,0.039547610817106095,0.056907200933554586
0.28700000000000003,0.02359999999999984,-2.1789999999993337,0.021583196162142135,1.0543356998735236,0.039616693681272845,0.05974153735893974
0.28800000000000003,0.020699999999999257,0.821,0.021567902078431473,1.048145205163472,0.03957863091476608,0.05866074124778618
0.289,0.0073,0.8209999999995559,0.02154122118086227,1.0419179306387625,0.03951222950141044,0.057573523762814646
0.29,0.0095,-1.179,0.021546955981354053,1.0452643575985672,0.039526501842023394,0.05815777516982155
0.291,0.016,-0.17900000000022204,0.02154589657203903,1.048145205163472,0.03952386526371274,0.05866074124778618
0.292,0.0102,-1.179,0.021529729908915055,1.0510181563362304,0.03948363088711832,0.059162328697656634
0.293,-0.0101,-0.17899999999977795,0.021550461348842444,1.0476901077460954,0.039535225737273035,0.05858128596320317
0.294,0.0033,0.821,0.021569836327079216,1.0538832756950083,0.03958344472748202,0.0596625487941103
0.295,0.0153,-0.17899999999977795,0.021623464619260103,1.0538832756950083,0.039716910792010916,0.0596625487941103
0.296,-0.0094,0.821,0.021643824465591148,1.0538832756950083,0.039767580847940576,0.0596625487941103
0.297,-0.0127,0.821,0.021648260188084106,1.053883275695008,0.03977862014082875,0.05966254879411026
0.298,-0.004,1.821,0.02161264851353641,1.053883275695008,0.0396899924806912,0.05966254879411026
0.299,-0.0015,0.821,0.021617371240670084,1.0538832756950083,0.03970174604916676,0.0596625487941103
0.3,0.0054,-0.179,0.021614915301062992,1.069878107518987,0.03969563389118542,0.06245508038384612
0.301,0.0032,0.821,0.02155875119514585,1.0731373481655517,0.03955585688394339,0.06302410996566633
0.302,0.0091,-0.179,0.021560925143560335,1.0731373481655517,0.039561267243430356,0.06302410996566633
0.303,-0.0036,-0.179,0.021665692326810645,1.0703237707285402,0.039822003938028656,0.06253288855368226
0.304,0.0075,-2.179,0.021670432850610873,1.0703237707285402,0.039833801797510886,0.06253288855368226
0.305,0.0151,-0.179,0.021651347675227767,1.0642262810445648,0.039786304046871446,0.06146833015457094
0.306,0.014,-1.179,0.02148957314731986,1.0580936538630827,0.03938369175580573,0.06039763711316693
0.307,0.0001,-1.179,0.02146476870235811,1.0519252746391796,0.03932196031672313,0.05932070213630796
0.308,-0.0017,0.821,0.021482477876950668,1.0457205107025958,0.0393660335799729,0.0582374147663346
0.309,-0.0166,-0.179,0.02158828772486237,1.0490548077119144,0.03962936518004591,0.05881954840991097
0.31,-0.0264,1.821,0.021759310597196973,1.0457205107025955,0.04005499405590003,0.05823741476633456
0.311,-0.0061,-1.179,0.021601731324724333,1.064226281044565,0.03966282260137541,0.061468330154570976
0.312,0.0127,-1.179,0.021454097724746782,1.064226281044565,0.03929540318934611,0.061468330154570976
0.313,0.0058,-0.179,0.021440733595504583,1.064226281044565,0.03926214354852451,0.061468330154570976
0.314,0.0036,-1.179,0.021399648178799257,1.0703237707285405,0.03915989325014294,0.0625328885536823
0.315,0.0017,-0.179,0.021390250321654883,1.0576428372126276,0.039136504569335546,0.060318929206048616
0.316,0.0184,-0.179,0.021360119283507298,1.0576428372126279,0.03906151670531475,0.06031892920604866
0.317,0.0162,-2.179,0.021363596958139414,1.051471813310543,0.03907017168066423,0.059241532495834276
0.318,0.0104,0.821,0.021374536105049868,1.0547879299963312,0.03909739620764557,0.05982049204365716
0.319,0.0159,-0.179,0.021282919718649308,1.0547879299963312,0.038869388228238023,0.05982049204365716
0.32,0.0238,-2.179,0.02129830680383489,1.0547879299963312,0.038907682449828444,0.05982049204365716
0.321,0.001,0.821,0.021281499705116693,1.0580936538630827,0.038865854205242543,0.06039763711316693
0.322,0.0173,-1.179,0.02085912265856847,1.0580936538630832,0.03781467394464456,0.06039763711316701
0.323,-0.0095,-2.179,0.02012564568459798,1.0707692484493165,0.035989251557367895,0.06261066433910355
0.324,0.0159,-0.179,0.019835567168594945,1.0675027776757011,0.0352673259401075,0.062040372452158224
0.325,0.0456,1.821,0.019711633077680396,1.0675027776757013,0.03495888808570895,0.062040372452158266
0.326,-0.0038,-1.179,0.019686896293415277,1.0613890820169232,0.03489732503548483,0.06097298465808504
0.327,0.003,-0.179,0.0195572651442076,1.0613890820169232,0.0345747087704218,0.06097298465808504
0.328,-0.0032,-1.179,0.019079967822572437,1.064674310061115,0.033386847055303974,0.061546551369748626
0.329,-0.0207,-1.179,0.01830341559983539,1.0646743100611147,0.03145422222510625,0.061546551369748584
0.33,-0.0577,-0.179,0.01715810455949044,1.064674310061111,0.02860385815420236,0.061546551369747925
0.331,-0.0624,0.821,0.016603766434543067,1.0259520345834645,0.027224263075815325,0.054786044057900336
0.332,-0.0407,-0.179,0.016113332590354735,1.0092612997173638,0.026003708170303657,0.05187201502137012
0.333,-0.0208,-1.179,0.015998399243335324,0.9958030769322811,0.025717670691092605,0.049522349036592216
0.334,-0.0172,0.821,0.01598329922118783,0.9958030769322829,0.025680090890424567,0.04952234903659253
0.335,-0.0204,-1.179,0.01586201906552428,0.9958030769322829,0.025378257950690652,0.04952234903659253
0.336,-0.0116,1.821,0.015854826550922296,1.0127156433010056,0.025360357760717135,0.052475107550586944
0.337,-0.0036,-0.179,0.015733032968869753,1.0062691375899162,0.02505724704395962,0.05134961457637251
0.338,0.0083,-0.179,0.015575609568878329,0.9866769413055799,0.024665463513155666,0.04792902049708418
0.339,0.0105,0.821,0.015507677996703861,0.9831311120215608,0.024496400519972785,0.047309955514319595
0.34,0.0048,-1.179,0.015540533283960142,0.9831311120215647,0.02457816829050465,0.047309955514320275
0.341,0.003,-1.179,0.01557687879628702,0.9937306439186177,0.024668622270974373,0.04916052374690143
0.342,0.011,-0.179,0.015576385848636451,1.00025796151969,0.024667395459896407,0.05030012563817653
0.343,0.0095,-1.179,0.015582924185132619,0.9937306439186173,0.024683667580548053,0.049160523746901365
0.34400000000000003,0.016099999999999656,-0.179,0.015565070184321508,0.9972387857189945,0.024639233884686224,0.04977300888626616
0.34500000000000003,0.0098999999999997,-1.179,0.015571507271201577,0.993730643918618,0.02465525402290013,0.04916052374690148
0.34600000000000003,0.004499999999999861,0.821,0.015497057280269485,1.0002579615196912,0.024469968478836878,0.05030012563817672
0.34700000000000003,0.002000000000000139,-1.179,0.015490514215438147,1.000257961519691,0.024453684590659903,0.05030012563817668
0.34800000000000003,0.004499999999999961,-0.179,0.015466692876860056,1.000257961519691,0.024394399832884946,0.05030012563817668
0.34900000000000003,0.003799999999999717,1.821,0.01546271956499095,1.000257961519687,0.024384511352816877,0.050300125638175985
0.35000000000000003,-0.001299999999999395,0.821,0.015472979662782927,1.000257961519687,0.02441004591336857,0.050300125638175985
0.35100000000000003,0.00960000000000092,-0.179,0.015465069154453613,1.0067429595006565,0.024390358834548764,0.05143233896311271
0.352,0.0262,0.821,0.01546241276137532,1.025952034583483,0.024383747803028207,0.054786044057903556
0.353,0.015,-0.179,0.015440457017272598,1.0322756289802661,0.024329105996622927,0.05589007799261616
0.354,0.0168,-0.179,0.015549460272365425,1.0385607209533874,0.02460038510857018,0.05698738980386158
0.355,0.0077,-0.179,0.016014004238118437,1.0195892213756341,0.025756507229717982,0.05367516292592012
0.356,-0.0036,-0.179,0.01695528164465849,1.0230086917640318,0.02809908772169271,0.0542721669572755
0.357,-0.0142,-0.179,0.01827538941618373,1.0230086917640369,0.031384472764818865,0.05427216695727639
0.358,-0.0234,0.821,0.0203635263572812,1.0642262810445897,0.03658127110375634,0.06146833015457528
0.359,-0.0273,-0.179,0.02417619806822847,1.0824157094332225,0.04606996201497174,0.06464401552179158
0.36,-0.0153,-2.179,0.025720199743972442,1.0824157094332227,0.049912557385946694,0.06464401552179162
0.361,0.0058,-0.179,0.025662839718478717,1.0726928538913942,0.04976980406391096,0.06294650587981526
0.362,0.0205,0.821,0.02647057385265379,1.0698781075189978,0.05178003209262346,0.06245508038384802
0.363,0.0124,-1.179,0.029117928103101997,1.0796263122889218,0.05836856845752182,0.06415701573789256
0.364,0.0056,0.821,0.0328773421103344,1.0828562126459638,0.06772471559694053,0.06472092280975168
0.365,-0.0008,0.821,0.03514942668843277,1.0768296895727492,0.07337930899500633,0.06366875444415536
0.366,0.0051,-0.179,0.03701292763106487,1.0924886207664186,0.07801705013768691,0.06640264127091565
0.367,-0.015,0.821,0.03776405345031444,1.107926257772987,0.07988639564515045,0.06909789242992366
0.368,-0.0015,0.821,0.037832765180998304,1.0929250641019443,0.08005740023821883,0.06647883974646061
0.369,-0.0083,-0.179,0.03788104365419648,1.0897250078175018,0.08017755207519119,0.06592014313985788
0.37,-0.0017,0.821,0.03785020578925758,1.0929250641019441,0.0801008051137555,0.06647883974646059
0.371,-0.0034,-0.179,0.037775205419903445,1.0716596483497016,0.07991414982922497,0.06276611891822549
0.372,0.0133,1.821,0.03779945420131384,1.0716596483497016,0.0799744983746075,0.06276611891822549
0.373,0.0068,-0.179,0.03775977817248505,1.0716596483496967,0.07987575565488687,0.06276611891822464
0.374,0.0051,-1.179,0.03775065958582674,1.0532844872773681,0.07985306200148384,0.059558006552576925
0.375,-0.0003,-0.179,0.03772236063777542,1.0532844872773681,0.07978263370565114,0.059558006552576925
0.376,-0.0049,-0.179,0.03744666137555083,1.0370337530574307,0.07909649409489267,0.05672079706109959
0.377,-0.0034,0.821,0.03749666953103464,1.030739350204388,0.07922095063518787,0.05562185966687866
0.378,0.0032,-0.179,0.03760227742426391,1.034121951773169,0.07948377962561994,0.05621242678507429
0.379,0.0043,1.821,0.037630146236277806,1.034121951773169,0.07955313743119845,0.05621242678507429
0.38,0.0011,-0.179,0.03770447730393637,1.034121951773169,0.07973812700795316,0.05621242678507429
0.381,0.0076,-0.179,0.03731503913029901,1.034121951773169,0.07876892253958442,0.05621242678507429
0.382,0.0214,0.821,0.036855272366441205,1.0370337530574307,0.07762468955960605,0.05672079706109959
0.383,-0.0047,0.821,0.03670622098545421,1.058994711422872,0.0772537416807172,0.060554952408980754
0.384,-0.0083,-0.179,0.036732713466841496,1.0561434585227427,0.07731967417803484,0.060057153252255635
0.385,0.0081,1.821,0.03672048278023701,1.0528316113704965,0.07728923536409536,0.059478939120666
0.386,0.0053,-0.179,0.03668774700616989,1.04996362225544,0.07720776502900975,0.05897821799455781
0.387,-0.0081,0.821,0.03667387233198099,1.0499636222554398,0.07717323478228164,0.05897821799455777
0.388,-0.0148,-0.179,0.03667359207650168,1.0499636222554398,0.0771725373035001,0.05897821799455777
0.389,-0.0125,0.821,0.03667428526590331,1.0561434585227425,0.0771742624612041,0.06005715325225559
0.39,-0.0143,1.821,0.03669036668286842,1.0561434585227425,0.07721428468356281,0.06005715325225559
0.391,-0.016,-1.179,0.036725750723049504,1.0660172673172477,0.07730234582439073,0.06178101776506223
0.392,-0.0112,-0.179,0.036740312240046445,1.0660172673172477,0.07733858543389754,0.06178101776506223
0.393,-0.0068,0.821,0.03673020627786023,1.0721045709906978,0.07731343447446139,0.0628437977924796
0.394,-0.0056,-0.17900000000022204,0.03676455320482401,1.0721045709906978,0.07739891452583156,0.0628437977924796
0.395,-0.0019,-1.179,0.03696091538276101,1.078157506146372,0.07788760596174706,0.0639005774334823
0.396,0.0082,0.821,0.03695765336241459,1.078157506146372,0.0778794876905819,0.0639005774334823
0.397,0.0093,0.821,0.03695729830608819,1.080950693556832,0.07787860405307184,0.06438823895850494
0.398,-0.0019,1.820999999999778,0.03698997572024141,1.0749134872074033,0.07795992914638826,0.06333420540378766
0.399,0.0058,0.821,0.03702590788345218,1.0749134872074033,0.07804935441463243,0.06333420540378766
0.4,0.0022,-1.179000000000222,0.03732515546409314,1.058994711422872,0.07879409931109915,0.060554952408980754
0.401,-0.0015,-2.179,0.03737492630683728,1.061838308153762,0.07891796524527699,0.061051414878037495
0.402,0.0039,-1.179,0.037362733910244784,1.061838308153762,0.07888762172464263,0.061051414878037495
0.403,0.0187,-1.179,0.03728659601943119,1.0585442785181258,0.07869813546216488,0.06047631149987946
0.404,0.039,0.821,0.03738944585217303,1.080067953151417,0.0789541003988667,0.06423412164768945
0.405,0.0577,0.821,0.03742620905835788,1.0860765075929537,0.07904559390442917,0.0652831528767321
0.406,0.0696,-1.1790000000004441,0.03745559295507258,1.0920520030044005,0.07911872233898393,0.06632641234231589
0.40700000000000003,0.08980000000000225,-3.179,0.03749279217278734,1.0920520030044005,0.0792113009572848,0.06632641234231589
0.40800000000000003,0.13029999999999772,-2.1789999999995557,0.03759546922893099,1.095245260361946,0.07946683590056966,0.06688392192686393
0.40900000000000003,0.08929999999999616,-0.179,0.037690999611504905,1.0920520030044005,0.07970458473959803,0.06632641234231589
0.41000000000000003,0.01999999999999527,-1.178999999999556,0.03812431873737507,1.095245260361946,0.08078299682514276,0.06688392192686393
0.41100000000000003,-0.06520000000000314,0.821,0.038681471949376114,1.0740257848413488,0.08216959788069371,0.06317922178615598
0.41200000000000003,-0.1220000000000017,1.820999999999778,0.03920263224414697,1.0740257848413488,0.0834666224679614,0.06317922178615598
0.41300000000000003,-0.1527999999999984,0.821,0.039457765744771854,1.0707692484493059,0.08410157955633983,0.06261066433910169
0.41400000000000003,-0.12439999999999952,-0.1789999999995559,0.03955654992155491,1.064674310061098,0.08434742619394095,0.061546551369745676
0.41500000000000004,-0.11599999999999785,1.821,0.03955271143838788,1.0613890820169063,0.08433787326541703,0.0609729846580821
0.41600000000000004,-0.07719999999999727,1.8209999999993338,0.03955635419920924,1.0613890820169063,0.08434693909487151,0.0609729846580821
0.417,-0.028,-1.179,0.03959095619408974,1.064674310061098,0.08443305394010978,0.061546551369745676
0.418,-0.0218,-0.17899999999977795,0.03956800007959394,1.0613890820169063,0.08437592248702723,0.0609729846580821
0.419,-0.0045,0.821,0.03957991855997386,1.0613890820169063,0.08440558430557082,0.0609729846580821
0.42,0.0006,-0.17899999999977795,0.039592039341122195,1.064674310061098,0.08443574959506817,0.061546551369745676
0.421,-0.0136,0.821,0.03959487207386705,1.0613890820169063,0.0844427994875026,0.0609729846580821
0.422,-0.0006,-1.178999999999556,0.03960020618025747,1.0613890820169063,0.08445607461073991,0.0609729846580821
0.423,-0.0046,0.821,0.039581365442424396,1.0452643575985565,0.0844091851979106,0.05815777516981968
0.424,0.0063,-0.179,0.039575500438753894,1.0514718133105323,0.08439458881740851,0.059241532495832416
0.425,0.003,-0.179,0.0395727277259083,1.0514718133105323,0.08438768829799011,0.059241532495832416
0.426,0.0197,-0.179,0.039583466734952034,1.0576428372126174,0.08441441473688495,0.06031892920604683
0.427,0.0283,0.821,0.03963057835026799,1.06093966566744,0.08453166258562514,0.0608945212289795
0.428,0.0148,-1.179,0.03968540031327894,1.0576428372126172,0.08466809936843638,0.0603189292060468
0.429,0.0314,-1.179,0.03971252020323851,1.0576428372126172,0.08473559331307201,0.0603189292060468
0.43,0.0201,-0.179,0.03976316933215633,1.041460112029446,0.08486164505989395,0.05749359338636839
0.431,0.0219,-1.179,0.039820147279975314,1.0476901077460847,0.08500344749571798,0.05858128596320131
0.432,0.0236,-2.179,0.039849228856989265,1.0538832756949976,0.08507582353971457,0.05966254879410844
0.433,0.025,0.821,0.039802992722141856,1.0505643034627792,0.08496075452099033,0.05908309069752306
0.434,0.0143,-0.179,0.03980176384940372,1.0472348125567876,0.08495769619484389,0.05850179614969412
0.435,0.0132,0.821,0.0398030566361591,1.0689862237054706,0.08496091358539465,0.06229936672889636
0.436,-0.0057,1.821,0.03980803043793219,1.0529778441701962,0.08497329200956975,0.05950446984941082
0.437,-0.0033,-0.179,0.03980448326290947,1.0591400932992434,0.08496446406686962,0.06058033457534613
0.438,0.0086,-1.179,0.03979763801240637,1.0591400932992432,0.08494742812169574,0.06058033457534609
0.439,0.0151,0.821,0.039787926348179896,1.0652666962571136,0.08492325846139849,0.061649975849846606
0.44,0.0168,1.821,0.03977055401036736,1.0680935951478117,0.08488002349222055,0.062143523049350696
0.441,-0.0108,-1.179,0.03974527661348187,1.0553858654143484,0.08481711500592266,0.05992488536031159
0.442,-0.0069,-1.179,0.03972076721684951,1.0492015669049382,0.0847561178609555,0.058845171041465534
0.443,0.0185,-1.179,0.03970761869954238,1.0492015669049382,0.08472339481891915,0.058845171041465534
0.444,0.0413,-1.179,0.03970195670532574,1.0492015669049382,0.08470930367309389,0.058845171041465534
0.445,0.0086,-1.179,0.03969806350007106,1.0553858654143482,0.08469961455634946,0.05992488536031155
0.446,0.0042,-1.179,0.03970410560841753,1.0553858654143482,0.08471465170166335,0.05992488536031155
0.447,-0.0157,-0.179,0.03969605369264118,1.058239159527573,0.08469461269861321,0.060423040891652784
0.448,0.0169,-0.179,0.03968549926401882,1.0549338916151287,0.0846683456296037,0.059845975427031656
0.449,0.0473,-0.179,0.03971310758706703,1.0449553609796431,0.08473705514981475,0.05810382756793596
0.45,0.0193,-1.179,0.039709190560143846,1.0577884048898818,0.08472730674749145,0.060344343811319257
0.451,0.0012,-0.179,0.039716779475813736,1.05493389161513,0.08474619347066147,0.05984597542703189
0.452,0.0109,-0.179,0.039777523171696735,1.0391679935205989,0.08489736781734956,0.05709341328983383
0.453,0.0315,-2.179,0.039784405825089734,1.0362621892727706,0.0849144968480258,0.05658609003411294
0.454,0.0236,-1.179,0.03974188284812815,1.0362621892727706,0.08480866885768121,0.05658609003411294
0.455,0.0167,-1.179,0.03955623899432465,1.0328865967941552,0.08434665238161,0.05599674663029693
0.456,-0.0171,-0.179,0.03913377708812387,1.0358018708605634,0.08329526092868417,0.056505723218033106
0.457,-0.0312,0.821,0.038513850642418815,1.0294999362591613,0.08175243456519372,0.05540547085873777
0.458,-0.0356,-0.179,0.03747456482980109,0.9868329772136649,0.0791659381154664,0.047956262746784314
0.459,-0.0635,0.821,0.035135642897269524,0.9632281822471626,0.0733450049311245,0.043835110593475946
0.46,-0.0672,-0.179,0.03398283335291918,0.9632281822471626,0.07047597914680861,0.043835110593475946
0.461,-0.064,-0.179,0.033966737527368826,0.9564481868635474,0.07043592106544545,0.04265139378448615
0.462,-0.0493,-0.179,0.03337009519695923,0.9564481868635475,0.06895104245878532,0.04265139378448617
0.463,-0.0306,-0.179,0.03109102968798872,0.9454307615666117,0.06327907544443673,0.04072786570255134
0.464,0.0011,-0.179,0.027094240559766766,0.9417296437072793,0.05333216693770307,0.040081688946630306
0.465,0.0054,0.821,0.024070858555907182,0.94172964370728,0.04580780095078021,0.040081688946630424
0.466,0.0173,0.821,0.021095241567743624,0.930537969455781,0.03840230894637402,0.03812773880615501
0.467,0.0065,-0.179,0.01966461010207753,0.9159237465638331,0.034841860836827256,0.035576247203472224
0.468,0.0098,0.821,0.01946928771660598,0.915923746563833,0.03435575715828098,0.0355762472034722
0.46900000000000003,0.012799999999999567,0.821,0.019408922885809646,0.9159237465638335,0.03420552570255674,0.035576247203472286
0.47000000000000003,0.005000000000000128,-0.179,0.019404401029378904,0.9159237465638292,0.03419427204599538,0.035576247203471544
0.47100000000000003,0.007299999999999889,-0.179,0.019404327747638034,0.9230014661094198,0.034194089667904305,0.036811943560386154
0.47200000000000003,0.0052999999999996834,-0.179,0.01936329676352951,0.9230014661094198,0.03409197483728017,0.036811943560386154
0.47300000000000003,-0.0004000000000000944,-1.179,0.01938613062456519,0.9197287168502007,0.034148802035135976,0.03624055551503312
0.47400000000000003,-0.0020999999999993728,-1.179,0.019389477857706842,0.9159237465638349,0.03415713237750396,0.035576247203472536
0.47500000000000003,0.009200000000000593,-1.179,0.019422556202697252,0.9197287168502004,0.03423945527736637,0.03624055551503306
0.47600000000000003,0.019900000000000067,0.821,0.01961568492522771,0.938013922475395,0.034720099532393016,0.03943296259346331
0.47700000000000004,0.02109999999999966,-0.179,0.019637912386102706,0.9417296437072905,0.03477541756708726,0.04008168894663226
0.47800000000000004,0.015000000000000305,-0.179,0.019568499160460523,0.9449261958895505,0.034602667146069375,0.04063977377337098
0.47900000000000004,0.020500000000000046,-0.179,0.01952638748215353,0.9622374512556208,0.034497862764915795,0.04366213924740258
0.48,0.0213,-1.179,0.019309972707273092,1.0059481628991143,0.033959265932263095,0.05129357572748468
0.481,0.017,-1.179,0.019398962614395644,1.005948162899114,0.03418073732736883,0.05129357572748464
0.482,0.0095,-0.179,0.019404123035238405,1.0222265420936298,0.03419358019506399,0.05413561174453332
0.483,-0.0035,-0.179,0.019290733422698728,0.9994580078820059,0.03391138464624655,0.05016046203757473
0.484,-0.0089,-2.179,0.01915806919868854,0.9959576830569076,0.03358121989248753,0.04954934166094346
0.485,-0.0103,-0.179,0.019162275497037872,0.9959576830569077,0.0335916882118035,0.049549341660943484
0.486,0.0003,-1.179,0.019149818395376696,0.9959576830569077,0.03356068591308129,0.049549341660943484
0.487,-0.0033,0.821,0.01919682196172421,0.9823172111699456,0.03367766485766647,0.0471678568749553
0.488,-0.0119,-1.179,0.019194039519970885,0.9889198654498302,0.03367074012567343,0.04832061176826031
0.489,-0.0042,-1.179,0.01919143728728499,0.9823172111699431,0.033664263884468436,0.04716785687495485
0.49,-0.0017,0.821,0.019158519400822617,0.982317211169945,0.03358234032173549,0.04716785687495518
0.491,-0.0078,-0.179,0.01920326860718724,0.982317211169945,0.033693708784563514,0.04716785687495518
0.492,0.0045,-0.179,0.0194223887611124,0.975669875746957,0.034239038561329746,0.0460073011179115
0.493,-0.001,0.821,0.01962601115209289,0.9689769396221287,0.034745798670013865,0.04483878395171989
0.494,0.0004,-1.179,0.0196186220163104,0.9622374512555887,0.03472740914401829,0.043662139247396974
0.495,-0.0072,-1.179,0.01918268827351743,0.9622374512555887,0.03364248999631018,0.043662139247396974
0.496,0.0019,-1.179,0.019266093328290407,0.9590985969949176,0.0338500622304738,0.04311412787878976
0.497,-0.0018,-0.179,0.019400391819864624,0.9559494363806005,0.03418429422656496,0.042564317127829016
0.498,0.0149,-1.179,0.020125294000662458,0.9735545855652655,0.0359883763128109,0.045637993411595024
0.499,-0.0017,1.821,0.020505148337506714,0.9908469797269022,0.03693372924819498,0.048657065915135835
0.5,-0.0081,0.821,0.020006960246703155,0.9943652952076035,0.03569387615627771,0.049271327273469466
0.501,0.022,-1.179,0.019945319582553023,0.9877990399836845,0.035540469502354885,0.048124927277467464
0.502,-0.0084,0.821,0.02030229262245221,0.9913281729437899,0.0364288771849557,0.048741077255405836
0.503,0.0035,-1.179,0.02111184788502889,0.9978712058140011,0.03844363750121419,0.049883422869528064
0.504,0.0071,-0.179,0.021530691932351034,0.9781108079511447,0.03948602509876973,0.046433462540776786
0.505,-0.0028,-1.179,0.02168863900691854,0.9714346893694011,0.03987911191151538,0.04526788154302024
0.506,0.0058,-0.179,0.021624793264863214,0.9683256486683564,0.039720217425367854,0.04472507531242104
0.507,-0.0131,-1.179,0.02203171474202424,0.9857097788029504,0.040732933026039614,0.04776016396450396
0.508,-0.0012,-0.179,0.02240696232006339,0.9857097788029504,0.04166682100621166,0.04776016396450396
0.509,-0.0033,-0.179,0.022834707846353924,0.9857097788029504,0.0427313619358627,0.04776016396450396
0.51,-0.0171,-0.179,0.023051375905541852,0.9857097788029504,0.04327058912347083,0.04776016396450396
0.511,-0.0152,0.821,0.02209572614878304,0.9892463652231155,0.040892239806054886,0.048377615239192324
0.512,-0.0137,-1.179,0.021168517828025087,0.9892463652231155,0.03858467339777543,0.048377615239192324
0.513,0.0092,-0.179,0.020648502046818493,0.9927703531968155,0.03729049718988008,0.04899286695591582
0.514,-0.0005,-0.179,0.020541440448753362,0.9993039433061122,0.037024050328068214,0.050133563962010255
0.515,-0.0033,-1.179,0.02060668867725173,0.9993039433061122,0.03718643521710749,0.050133563962010255
0.516,-0.0112,0.821,0.02071169342897591,1.0023168984649402,0.03744776315427523,0.05065959465442874
0.517,-0.0043,-1.179,0.02080631067325619,1.0216091991119818,0.037683239443321755,0.054027830068744176
0.518,-0.0155,-0.179,0.020837778425803352,1.0216091991119818,0.037761554021713946,0.054027830068744176
0.519,-0.0016,0.8209999999995559,0.020815905227559328,1.0245565623973412,0.03770711764924019,0.05454240910098224
0.52,0.0003,-1.179,0.02077772403083745,1.02114227533291,0.037612095155361694,0.053946310024181904
0.521,0.005,0.821,0.020772540244254685,1.0376419192721738,0.03759919413676826,0.05682697656865364
0.522,0.0094,0.821,0.02076807541236197,1.0376419192721738,0.03758808239859294,0.05682697656865364
0.523,0.0058,-0.17899999999977795,0.02082930568285401,1.0376419192721738,0.03774046769561205,0.05682697656865364
0.524,-0.013,0.821,0.02084111145115625,1.031351228103319,0.03776984900480469,0.05572868719595993
0.525,0.0276,1.820999999999778,0.020840751389552246,1.025021930882266,0.03776895291053579,0.05462365760733238
0.526,0.0218,0.821,0.02084233903105798,1.018653307985103,0.03777290411343702,0.05351176216390668
0.527,0.023,-1.179000000000222,0.020759997468830255,1.0216091991119816,0.03756797861962067,0.054027830068744134
0.528,0.0074,-2.179,0.0206932720390779,1.0438947023294334,0.03740191738308142,0.05791864757859734
0.529,0.0121,-3.1789999999993337,0.02080840038492877,1.0501102544362055,0.0376884401607341,0.05900381845109063
0.53,-0.0274,-0.179,0.020799716215994066,1.0534306572107424,0.03766682765352411,0.059583526305513945
0.531,-0.0224,-2.1789999999995557,0.02069023046699732,1.047234812556783,0.037394347746998166,0.05850179614969331
0.532,0.0109,-0.179,0.02066806260302274,1.0443514536733354,0.0373391780325922,0.0579983916215818
0.533,-0.0108,-0.179,0.02064765004629662,1.0443514536733354,0.03728837679499137,0.0579983916215818
0.534,-0.0149,-0.179,0.020664875978940078,1.04769010774608,0.0373312474019838,0.058581285963200495
0.535,-0.0113,0.821,0.020645915684171824,1.0288869573996675,0.037284060444836425,0.05529845111337162
0.536,-0.0146,0.821,0.020681721589926573,1.0288869573996675,0.03737317149300965,0.05529845111337162
0.537,0.0002,-1.178999999999778,0.02086010588039647,1.0225424070357811,0.03781712091326141,0.05419075848435244
0.538,0.008,-0.179,0.020900687350861744,1.0191213721177401,0.037918117028101814,0.05359348130236313
0.539,0.0101,0.821000000000222,0.02088234138760436,1.0127156433009856,0.03787245897306445,0.052475107550583454
0.54,0.0213,1.821,0.02096740230865295,1.0288869573996675,0.0380841522028109,0.05529845111337162
0.541,0.031,-0.179,0.021000046149405583,1.025487088181885,0.03816539374117029,0.054704869242920506
0.542,0.029,-0.179,0.021002353447524703,1.0419179306387472,0.038171135971383684,0.057573523762811975
0.543,0.0177,-0.17900000000022204,0.021653011426682682,1.0419179306387472,0.039790444666496116,0.057573523762811975
0.544,0.004,-1.179,0.022148061319690618,1.0419179306387472,0.04102248764750994,0.057573523762811975
0.545,-0.0199,0.821,0.022338060861502935,1.0519252746391645,0.041495344232658125,0.059320702136305324
0.546,-0.0232,0.821,0.02258357149842546,1.049054807711899,0.04210635266081222,0.058819548409908294
0.547,-0.0558,1.821,0.02260477583977922,1.049054807711899,0.04215912443250817,0.058819548409908294
0.548,-0.0428,1.821,0.022610954582489292,1.0651221506203963,0.04217450162316098,0.06162473968224362
0.549,-0.0149,0.8209999999997779,0.022607709463353068,1.0622873443193166,0.04216642541445796,0.0611298119309759
0.55,-0.0113,-0.179,0.02267962145360817,1.0622873443193166,0.04234539457311428,0.0611298119309759
0.551,0.0379,0.821,0.02268088727751365,1.0749134872073987,0.042348544860549904,0.06333420540378684
0.552,0.0589,-1.179,0.02260208868052409,1.0688421810818258,0.04215243683243814,0.06227421838215392
0.553,0.0527,0.821,0.022603793200952033,1.0688421810818258,0.042156678914819945,0.06227421838215392
0.554,0.0352,-0.179,0.022812982366011095,1.062736190754384,0.042677293192603515,0.06120817585894086
0.555,-0.0018,0.821,0.024026358147826943,1.0841766484205286,0.045697051678430335,0.06495145718818521
0.556,-0.0455,1.821,0.024226807519446364,1.0841766484205286,0.04619591501491505,0.06495145718818521
0.557,-0.0514,0.821,0.024353926925518212,1.10520124810896,0.046512280242366894,0.06862213403165637
0.558,-0.0566,-0.179,0.02451085939944007,1.0992972309166373,0.046902841993251794,0.06759135392109669
0.559,-0.0709,0.821,0.024512038035281583,1.0992972309166371,0.046905775293584175,0.06759135392109665
0.56,-0.0141,0.821,0.024733361265968624,1.1024695029706584,0.04745658792227997,0.06814519968950355
0.561,0.009,-0.179,0.025419009495573828,1.1177693013941377,0.04916297772391579,0.07081638566284432
0.562,0.0159,0.821,0.026580280846500548,1.1146405734853522,0.052053062616710166,0.07027014225015188
0.5630000000000001,0.022199999999999356,-1.179,0.02700038698436299,1.1119320187037167,0.05309859121038255,0.06979725670352752
0.5640000000000001,0.016400000000000567,-0.179,0.02724087153100036,1.1477572145086588,0.05369709108264111,0.07605196397989863
0.5650000000000001,0.021500000000000533,-1.179,0.027367263294760965,1.1507959100275162,0.05401164540857591,0.07658248867196055
0.5660000000000001,0.026299999999995615,-2.179,0.02738365539821567,1.1451269927896395,0.0540524408441283,0.07559275457281008
0.5670000000000001,-0.013199999999998279,-0.179,0.027400429056537112,1.1451269927896395,0.054094185864767115,0.07559275457281008
0.5680000000000001,0.0022999999999994782,-1.179,0.027463756884963362,1.1451269927896395,0.05425179140638503,0.07559275457281008
0.5690000000000001,-0.0023999999999995223,-0.179,0.027516611683510588,1.1507959100275162,0.054383332458070435,0.07658248867196055
0.5700000000000001,0.001900000000000444,1.821,0.027584633340421882,1.1624611088614754,0.054552619647378335,0.0786191112887451
0.5710000000000001,0.00590000000000121,-0.179,0.02763169880787314,1.1624611088614754,0.05466975264677993,0.0786191112887451
0.5720000000000001,0.01679999999999891,-0.179,0.027637104240109237,1.1624611088614754,0.05468320528042331,0.0786191112887451
0.5730000000000001,0.006999999999999034,-0.179,0.027627496090973723,1.1624611088614754,0.05465929324070743,0.0786191112887451
0.5740000000000001,-0.001700000000000877,-0.179,0.027713464434866733,1.1769813234602406,0.054873244796255126,0.08115419001936404
0.5750000000000001,-0.009599999999999755,-0.179,0.027792829940572777,1.1740104057012593,0.05507076370418907,0.08063549862055701
0.5760000000000001,-0.007399999999997736,-1.179,0.027749660555628948,1.1624611088614791,0.054963326982222394,0.07861911128874575
0.577,0.013,-2.179,0.027667742130392584,1.1594529859101987,0.054759454559960195,0.07809392424960061
0.578,0.0265,-1.179,0.02758557579544836,1.1568493560938862,0.05455496515864234,0.07763935751266682
0.579,0.0196,0.821,0.027651856695511026,1.142490715837211,0.05471992008308705,0.07513248798482931
0.58,-0.0007,-0.179,0.027676447283890473,1.0982890534883871,0.05478111929197449,0.06741533660829027
0.581,-0.0141,0.821,0.027668149578253382,1.0982890534883871,0.054760468585584914,0.06741533660829027
0.582,0.0025,-0.179,0.02760483015914419,1.0831543971622053,0.054602883972443506,0.0647729827307523
0.583,0.0091,0.821,0.02780974479860732,1.0891459245722936,0.05511286013206562,0.06581904121686634
0.584,-0.0007,0.821,0.027791093328459415,1.104630278043837,0.05506644175443162,0.06852244858568259
0.585,0.0159,-0.179,0.02782927057909759,1.119900556893322,0.05516145442759346,0.07118848074785472
0.586,0.0272,-0.179,0.02792700043674832,1.1167777998557227,0.0554046771549482,0.07064327978728614
0.587,0.0134,-0.179,0.027898688297177683,1.1136462863814545,0.05533421602905331,0.07009655004377814
0.588,0.008,-0.179,0.028289749119138098,1.1109353074459276,0.05630745882266018,0.06962324126505014
0.589,0.0193,-2.179,0.02845079867061416,1.114074441143572,0.05670826684684922,0.07017130142045197
0.59,0.0118,-0.179,0.028484612400664616,1.1467916404334861,0.05679241991780017,0.07588338477026249
0.591,-0.0084,1.821,0.02856558034713641,1.1349654018906226,0.05699392685992182,0.07381864629210055
0.592,-0.0529,-0.179,0.02860152951900745,1.1380382535609803,0.0570833944580418,0.07435513429363004
0.593,-0.0466,0.821,0.028549745075149947,1.1380382535609803,0.05695451722469329,0.07435513429363004
0.594,-0.0291,1.821,0.02862020419436581,1.1411028304440882,0.057129870587060205,0.07489017760320853
0.595,-0.034,0.821,0.028716803422474773,1.1353855172261507,0.057370279488554686,0.07389199406835137
0.596,-0.01,-1.179,0.02864795442725792,1.1323054665802466,0.05719893328182918,0.07335424920042603
0.597,-0.0056,1.821,0.02864753414209215,1.1349654018906223,0.0571978873076843,0.07381864629210051
0.598,0.0144,0.821,0.028111348709721557,1.125696519604902,0.05586346928678502,0.07220039566781991
0.599,0.0181,1.821,0.02812128186989381,1.1163506819151598,0.05588819018955131,0.07056870942889222
0.6,0.0084,1.821,0.028491274593447514,1.1337041217947008,0.056809000282673015,0.0735984398810468
0.601,0.0113,-0.179,0.029117738116313525,1.176576060667599,0.05836809563267623,0.08108343534291287
0.602,0.0088,0.821,0.028921645647981758,1.176576060667599,0.05788007542976315,0.08108343534291287
0.603,0.031,-0.179,0.028340774756559838,1.1740104057012686,0.05643444759555989,0.08063549862055863
0.604,0.0757,-2.179,0.027983225859770276,1.1854471881000188,0.05554460676359398,0.08263224209900931
0.605,0.0312,-1.179,0.02794880476884867,1.1854471881000181,0.05545894213853744,0.0826322420990092
0.606,0.0255,-2.179,0.028087910469130936,1.1967746817398939,0.055805137954499436,0.08460990489471693
0.607,0.0306,-0.179,0.027899421339923864,1.1879881437183923,0.05533604037076709,0.08307586657162097
0.608,-0.0027,-0.179,0.027522165756408687,1.1905236761428577,0.054397155017426146,0.08351854421087593
0.609,-0.0332,0.821,0.026980829360385213,1.1905236761428573,0.053049917665175375,0.08351854421087586
0.61,-0.0611,1.821,0.026048218774506533,1.1905236761428573,0.05072890650533133,0.08351854421087586
0.611,-0.0792,-0.179,0.026052938769764753,1.187586636998463,0.0507406532749205,0.08300576766647254
0.612,-0.0494,0.821,0.02603858006217867,1.1875866369984627,0.05070491840223853,0.08300576766647251
0.613,-0.0373,2.821,0.02605402155017594,1.1901230248249781,0.05074334801745944,0.08344859465004524
0.614,-0.0263,0.821,0.02596515496834775,1.2039137058523637,0.05052218354508098,0.08585630439258915
0.615,0.01,-0.179,0.025932539427225225,1.2039137058523637,0.05044101243671487,0.08585630439258915
0.616,0.0147,0.821,0.025936737287033624,1.1984960634973132,0.05045145975482415,0.08491044027942675
0.617,0.0191,-1.179,0.02592972628401212,1.1984960634973092,0.05043401129723531,0.08491044027942606
0.618,0.023,-1.179,0.026057256362153662,1.2039137058523597,0.050751398574480744,0.08585630439258844
0.619,0.0194,1.821,0.026185856542191865,1.201406433018373,0.05107144904093068,0.0854185605844605
0.62,0.0161,-1.179,0.026224762649252335,1.204309769277537,0.051168275637197926,0.0859254529549815
0.621,0.0074,0.821,0.02680442182773056,1.2043097692775302,0.05261088785126195,0.0859254529549803
0.622,-0.006,0.821,0.027092933578976627,1.2043097692775302,0.05332891422210499,0.0859254529549803
0.623,-0.0226,1.821,0.027163221568945423,1.2072061230198767,0.05350384169085861,0.08643112625055237
0.624,-0.0247,-0.179,0.027184177454983662,1.210095544383197,0.05355599512563154,0.0869355892247134
0.625,-0.0229,0.821,0.027380541975809115,1.215461485797344,0.054044692392351816,0.08787242689031566
0.626,0.0047,-0.179,0.027363797068148732,1.2342517641461643,0.05400301892419824,0.09115301442299266
0.627,0.0087,0.821,0.028125368033137328,1.228967867918972,0.05589835952564158,0.0902305009952991
0.628,0.0205,-1.179,0.028648332636861232,1.2154614857973443,0.05719987454147532,0.0878724268903157
0.629,0.0168,-0.179,0.02868919710411442,1.2154614857973403,0.05730157495746017,0.087872426890315
0.63,0.0265,-0.179,0.02863162893811131,1.21546148579734,0.057158303630962096,0.08787242689031496
0.631,-0.0123,-1.179,0.028663717220344005,1.2208038418916012,0.05723816253701573,0.08880514680391084
0.632,0.0354,-1.179,0.028638634748269234,1.2232713575566647,0.0571757391649422,0.08923594942307485
0.633,0.0035,1.821,0.028637956153299338,1.2285797536746002,0.05717405032876342,0.09016274027735208
0.634,0.0208,1.821,0.029046169424782543,1.225733905894651,0.058189980850092735,0.08966588479849837
0.635,0.0259,-0.179,0.02983775321202109,1.2281915167843283,0.06016001510871232,0.09009495814670411
0.636,-0.0074,-0.179,0.02991981926562802,1.231031683174878,0.06036425493737198,0.09059082171394875
0.637,-0.0469,0.821,0.029818575026675887,1.233865311960652,0.06011228588186698,0.0910855438832682
0.638,-0.0313,0.821,0.029796510308751044,1.2475547339570017,0.06005737286960031,0.09347557485019098
0.639,-0.0172,2.821,0.029807803817979164,1.2503509176618817,0.0600854793068949,0.093963759497114
0.64,-0.0303,0.821,0.029837597566813423,1.2503509176618817,0.06015962775061298,0.093963759497114
0.641,-0.0342,0.821,0.029814781191706243,1.2503509176618817,0.06010284407042232,0.093963759497114
0.642,-0.0234,-0.179,0.029858679524657993,1.2395131359604565,0.06021209494342584,0.09207159532202595
0.643,-0.0268,0.821,0.02940219530863348,1.253140862144912,0.059076031321879746,0.09445085484067313
0.644,-0.0239,-0.179,0.02908318763176171,1.253140862144912,0.058282108982474067,0.09445085484067313
0.645,0.0003,-0.179,0.02900394238978542,1.253140862144912,0.05808488937787542,0.09445085484067313
0.646,0.0231,-1.179,0.028834592516969907,1.253140862144912,0.05766342413753329,0.09445085484067313
0.647,0.0082,-1.179,0.02883099640168751,1.2614736737702636,0.05765447439599174,0.09590567724525931
0.648,0.0434,-1.179000000000222,0.028831797750964307,1.2507322761230966,0.057656468733867094,0.09403034072545545
0.649,0.0481,-2.179,0.028805263446536573,1.2799611059305005,0.05759043215050851,0.09913339097733889
0.65,0.0611,-3.1789999999991116,0.02876463055612943,1.2799611059305005,0.057489308065579926,0.09913339097733889
0.651,0.0173,0.821,0.028863599592021404,1.2799611059305005,0.057735614766643,0.09913339097733889
0.652,-0.0121,0.821000000000222,0.028843179335606928,1.2931626498061248,0.057684794366636254,0.10143824348917943
0.653,-0.0277,1.821,0.028882598094878465,1.2931626498061248,0.057782896813211256,0.10143824348917943
0.654,-0.0324,-0.1789999999995559,0.028718386585586654,1.2981852856099603,0.057374219545965756,0.1023151435591709
0.655,-0.028,1.821,0.02770277133315207,1.2830583950126224,0.05484663260807189,0.09967414549727092
0.656,0.0318,-1.179,0.02752624773778502,1.2807060752456572,0.054407313945999555,0.0992634548860347
0.657,0.0234,-1.179,0.02740816778138577,1.2677510221847659,0.054113445421766215,0.09700163711155786
0.658,0.0158,-0.17899999999977795,0.027245734872656108,1.2728739337307267,0.053709194601974944,0.09789604428513447
0.659,0.0088,0.821,0.02728204954030022,1.2728739337307267,0.053799571818515544,0.09789604428513447
0.66,0.0149,-0.179,0.02707964312893398,1.2752407008139155,0.05329583794853978,0.09830925724780179
0.661,-0.0026,-0.179,0.026382594753807494,1.2669984355847541,0.051561076321214455,0.09687024330400347
0.662,-0.0183,-1.179000000000222,0.025181620073119162,1.2669984355847541,0.048572180764188934,0.09687024330400347
0.663,0.0056,-2.179,0.024694035656518724,1.277603083454951,0.04735871729998279,0.09872170473238523
0.664,0.01,-0.179,0.024498476756976893,1.2455182975835586,0.046872025002987504,0.09312003420019169
0.665,0.022,-0.179,0.024409154335243714,1.247936946907446,0.0466497260705004,0.0935423052634812
0.666,0.0256,-2.178999999999778,0.024388573396210752,1.2507322761230966,0.04659850577566473,0.09403034072545545
0.667,0.0289,-1.179,0.024349065880295503,1.247936946907446,0.04650018243822308,0.0935423052634812
0.668,0.026,0.821,0.024291367976982697,1.2455182975835584,0.046356588231255706,0.09312003420019165
0.669,-0.0145,0.821,0.02427322801740927,1.243094942381399,0.04631144286271008,0.09269694153940884
0.67,-0.0555,1.8209999999995559,0.024256614409193626,1.229355859633591,0.04627009616275014,0.0902982403208233
0.671,-0.0399,-0.179,0.024213743441494733,1.224050829293796,0.04616340211920281,0.08937203709646832
0.672,-0.0258,0.821,0.024253384395871196,1.221194427442021,0.046262057548261605,0.08887333898623853
0.673,-0.0128,0.821,0.024258004479935064,1.2183313287181208,0.046273555666376524,0.08837347167165774
0.674,-0.0328,-1.179000000000222,0.024275417968004486,1.2043097692775282,0.04631689304722221,0.08592545295497996
0.675,-0.0002,-2.179,0.024151050151083268,1.2097013752566825,0.04600737576812375,0.08686677138720163
0.676,0.0654,-0.17900000000022204,0.024104798599899373,1.2068110101496943,0.04589226838237949,0.08636214364519346
0.677,0.056,-1.179,0.02410029410753332,1.2068110101496943,0.045881057940197784,0.08636214364519346
0.678,0.0306,-1.178999999999556,0.024087780746439913,1.203913705852351,0.045849915627227365,0.08585630439258693
0.679,0.0074,0.821,0.024033110420116785,1.1984960634973003,0.045713856226412455,0.0849104402794245
0.68,-0.0136,-1.179,0.024323492965090655,1.2014064330183643,0.04643653848813401,0.08541856058445899
0.681,-0.0074,-1.179,0.02433518948386012,1.2014064330183643,0.04646564790529731,0.08541856058445899
0.682,-0.0016,-1.179,0.024304300321177707,1.2014064330183643,0.046388773277891523,0.08541856058445899
0.683,-0.0494,-0.179,0.024072129249476427,1.198893916681821,0.04581096335746915,0.08497990131521893
0.684,-0.0683,-1.179,0.02407013317583845,1.1846423161857378,0.04580599567936237,0.08249171981837168
0.685,-0.0273,0.821,0.023984251531797094,1.1731976876121626,0.04559225989589179,0.08049360647924986
0.686,-0.0117,0.821,0.023886723397190508,1.1926540185903693,0.045349539201694024,0.08389047988654293
0.687,-0.007,1.821,0.02393244501424682,1.2117980037535088,0.04546332772719508,0.0872328209570727
0.6880000000000001,-0.011500000000001332,0.821,0.02347491800517628,1.2089126514441002,0.04432466888066026,0.08672906839748272
0.6890000000000001,-0.02349999999999718,-2.179,0.023277162620149616,1.2089126514441002,0.04383251013561053,0.08672906839748272
0.6900000000000001,0.0019000000000018097,-0.179,0.023219930286551616,1.1749536116730108,0.04369007460357148,0.08080017259154526
0.6910000000000001,0.018199999999999036,0.821,0.023031672545795884,1.1719775537543662,0.0432215528820328,0.08028058377422242
0.6920000000000001,0.009500000000000878,1.821,0.022782577937391645,1.1834339819286297,0.04260162493491594,0.08228075720112954
0.6930000000000001,0.01740000000000024,0.821,0.022670750138062364,1.1863813015480462,0.042323316309478755,0.0827953286097473
0.6940000000000001,0.019599999999999288,1.821,0.02256116846886001,1.1889202607845777,0.0420505976839515,0.08323860453481433
0.6950000000000001,0.013199999999997547,0.821,0.02243530040369369,1.2081234127129976,0.04173734669973309,0.08659127550833569
0.6960000000000001,-0.008899999999999677,1.821,0.022453018313325794,1.2081234127129976,0.041781441702093025,0.08659127550833569
0.6970000000000001,-0.005999999999998513,0.821,0.022361311959058064,1.2027247330227662,0.041553209817416885,0.08564872207959408
0.6980000000000001,0.007400000000000255,2.821,0.02234766854879734,1.2114043885766785,0.04151925512297854,0.08716409983342513
0.6990000000000001,0.009700000000001732,1.821,0.02192367107612519,1.2060203960722287,0.04046404206758466,0.08622411063484928
0.7000000000000001,0.025299999999997547,1.821,0.021393547663921698,1.186783216051265,0.0391447107470425,0.08286549870962474
0.7010000000000001,0.003199999999997702,1.821,0.020503997152384074,1.1442937608582824,0.036930864265149375,0.07544728092760407
0.7020000000000001,-0.017499999999998513,0.821,0.020431682669165566,1.1412377526439474,0.0367508934122447,0.07491373361863964
0.7030000000000001,-0.004099999999999767,-1.179,0.020412137339207482,1.141237752643946,0.0367022504634701,0.07491373361863936
0.704,-0.002,0.821,0.020233378875034173,1.13202022898076,0.03625736982781667,0.07330444967668533
0.705,0.0001,0.821,0.019977685301926614,1.1320202289807604,0.03562101887312115,0.0733044496766854
0.706,-0.0017,-1.179,0.019797921167342535,1.1320202289807604,0.0351736354005046,0.0733044496766854
0.707,-0.0071,-1.179,0.019542737318207024,1.1262568099243784,0.03453855300853556,0.07229821654107318
0.708,0.0143,-0.179,0.01940248912608796,1.1204637455002378,0.034189513844724656,0.071286807632007
0.709,-0.0006,-1.179,0.019344379062780855,1.123576258230747,0.03404489388492872,0.07183022004290658
0.71,0.0019,-1.179,0.019356234269707485,1.120463745500238,0.03407439823325546,0.07128680763200704
0.711,0.0087,-0.179,0.019307102060817462,1.1262568099243786,0.03395212168303371,0.07229821654107323
0.712,-0.0025,1.821,0.019305582245134557,1.1262568099243786,0.03394833927994464,0.07229821654107323
0.713,-0.0207,-0.179,0.01921888893995701,1.1204637455002355,0.03373258349521776,0.07128680763200661
0.714,0.0159,-1.179,0.01924887818711851,1.099730972165095,0.03380721848048503,0.06766708064029067
0.715,0.0002,0.821,0.019437662762227553,1.105632673205618,0.03427705134778159,0.06869745637479077
0.716,0.0049,-0.179,0.019495141477213648,1.1115030386734968,0.03442010005530889,0.06972236124361032
0.717,0.0092,0.821,0.019928310992380096,1.1115030386735012,0.03549813980097434,0.06972236124361109
0.718,0.021,0.821,0.02111422133388565,1.1056326732056223,0.038449544362413574,0.06869745637479151
0.719,0.0172,-0.179,0.02114514351585153,1.1231517256460315,0.03852650116573134,0.07175610106080434
0.72,0.0072,-0.179,0.021212274908256834,1.125833288130565,0.0386935727316216,0.07222427403256913
0.721,0.0157,-0.179,0.020486573313943688,1.1137845346311432,0.03688750112507805,0.07012068675298086
0.722,0.0076,-0.179,0.020223407044964455,1.1137845346311426,0.036232552686314805,0.07012068675298073
0.723,-0.0244,-0.179,0.02143853412189742,1.1258332881305717,0.03925666966385571,0.0722242740325703
0.724,-0.0026,-1.179,0.022090327958791237,1.1285084787028037,0.040878805196365,0.07269133453459582
0.725,0.0173,-0.179,0.022140068961818804,1.1258332881305648,0.041002596867698055,0.0722242740325691
0.726,-0.0008,-0.179,0.02253074986827766,1.108356622166815,0.04197489415614739,0.0691730295853554
0.727,-0.004,-0.179,0.022312924716919893,1.111503038673496,0.04143278728447838,0.0697223612436102
0.728,-0.0126,-0.179,0.02247528163934472,1.108786819519056,0.041836848995262965,0.0692481375770601
0.729,-0.0411,0.821,0.023005571352656448,1.1060639300230173,0.04315659419350923,0.06877274933811352
0.73,-0.0276,-0.179,0.02330671529043279,1.1060639300230155,0.0439060586011427,0.0687727493381132
0.731,-0.0007,-1.179,0.023302192204865808,1.1001645424105169,0.04389480188559941,0.06774277750412985
0.732,-0.0115,0.821,0.023292546557639234,1.1001645424105193,0.043870796523451716,0.06774277750413027
0.733,-0.0017,-0.179,0.02335859454883705,1.1150683464693827,0.04403517180181184,0.07034482697233507
0.734,-0.0046,0.821,0.02297300119940792,1.1181958774639387,0.04307553604307398,0.07089086141622852
0.735,0.0143,-2.179,0.022013042492505755,1.1154959554100212,0.040686462934269245,0.07041948305424502
0.736,0.0165,-2.179,0.021844124549392073,1.1154959554100177,0.04026607264811849,0.07041948305424439
0.737,0.0053,-0.179,0.021817286280119568,1.1181958774639351,0.04019927957989088,0.07089086141622791
0.738,0.0073,0.821,0.021878042285770626,1.106063930023011,0.04035048456220491,0.06877274933811242
0.739,-0.0054,-0.179,0.021945050448266997,1.1087868195190544,0.040517249442755976,0.06924813757705982
0.74,-0.0068,-0.179,0.021893438633384693,1.0937974283287326,0.040388801835431455,0.06663114548420583
0.741,-0.0052,1.821,0.021984890025809334,1.1092168500240687,0.040616399190227595,0.06932321643897082
0.742,-0.0062,0.821,0.02195092785961543,1.1092168500240702,0.04053187670255472,0.0693232164389711
0.743,-0.0149,-1.179,0.02193341857656324,1.1092168500240702,0.040488300914352925,0.0693232164389711
0.744,0.0019,-2.179,0.02187107769628422,1.1092168500240684,0.040333151615135204,0.0693232164389708
0.745,0.0089,-0.179,0.021782981187407256,1.0937974283287326,0.040113903642462784,0.06663114548420583
0.746,0.0111,-0.179,0.02175835172734468,1.0937974283287324,0.040052607692650774,0.06663114548420579
0.747,-0.0026,1.821,0.021751583858761834,1.0813917935416213,0.040035764329786366,0.06446525043666937
0.748,0.0029,-0.179,0.02174591371895251,1.0841766484205406,0.04002165291182201,0.06495145718818729
0.749,0.0044,-0.179,0.021774041767798652,1.0523785405750443,0.04009165588655237,0.059399837663232084
0.75,0.003,-0.179,0.021762707901219053,1.0394787105003527,0.04006344901091344,0.05714766124886076
0.751,0.002,-0.179,0.02165287409083477,1.0264167703735612,0.03979010287535576,0.05486718210230166
0.752,0.0081,0.821,0.02165112248507799,1.0264167703735612,0.03978574361054504,0.05486718210230166
0.753,-0.0063,-1.179,0.021614506934529373,1.0394787105003527,0.0396946175792368,0.05714766124886076
0.754,-0.0045,-0.179,0.021621434757587845,1.0365737772789008,0.03971185902478289,0.05664049006530282
0.755,0.0082,1.821,0.021695530393539855,1.0495093133563094,0.039896262676794116,0.05889890037707473
0.756,-0.003,-0.179,0.021695994167869714,1.0523785405750412,0.039897416883503276,0.05939983766323154
0.757,-0.0016,-0.179,0.021710180054555578,1.0495093133563045,0.03993272165251268,0.058898900377073876
0.758,0.005,0.821,0.02169978527793769,1.0466322204959975,0.03990685191341737,0.058396589831553415
0.759,0.0111,-0.179,0.02165619629799295,1.0528316113704974,0.03979837093493626,0.05947893912066615
0.76,0.0057,-1.179,0.021710268735580147,1.0929250641019401,0.03993294235518409,0.06647883974645988
0.761,-0.0009,-0.179,0.021830113296900495,1.0929250641019403,0.040231202495571695,0.06647883974645992
0.762,-0.0002,-0.179,0.021838531506792033,1.1083566221668,0.04025215310389635,0.06917302958535276
0.763,0.0121,-0.179,0.0218818061292236,1.0961157780187338,0.04035985173301611,0.06703590527265682
0.764,0.0288,-1.179,0.021787807165857778,1.0961157780187338,0.04012591417505853,0.06703590527265682
0.765,0.0266,-1.179,0.021742559874652335,1.0933613332198933,0.040013306116099386,0.06655500780542527
0.766,0.0486,-2.179,0.021886673304345648,1.1056326732056023,0.04037196479279286,0.06869745637478802
0.767,0.0755,-0.179,0.022077443412299756,1.1087868195190411,0.04084673910506272,0.0692481375770575
0.768,0.0284,-2.179,0.022203650667046458,1.1056326732056025,0.041160834238825744,0.06869745637478807
0.769,0.0222,-1.178999999999556,0.022115863574829933,1.1083566221668,0.0409423563190916,0.06917302958535276
0.77,-0.0072,0.821,0.02205227534054666,1.1142126362690445,0.04078410269894081,0.07019542885471804
0.771,-0.0228,-0.1789999999995559,0.022045289745086873,1.1173425624673028,0.040766717473782715,0.07074188147631265
0.772,-0.0757,1.821,0.022000678916121365,1.1324414369227958,0.04065569339422943,0.07337798821068975
0.773,-0.0548,-1.178999999999556,0.02199287098061613,1.1473416292537,0.04063626159094798,0.07597940710868721
0.774,-0.036,0.821,0.02186881744195509,1.1529996579093813,0.04032752646397197,0.07696724017442372
0.775,-0.0418,0.821,0.021868996771705392,1.1473416292537,0.04032797276638162,0.07597940710868721
0.776,-0.0575,0.821,0.02180179280955763,1.1473416292537,0.04016072059436844,0.07597940710868721
0.777,-0.0622,0.821,0.021802689316516313,1.1503814225281626,0.040162951753533356,0.07651012345748166
0.778,-0.0579,0.821,0.021809125347320508,1.1503814225281626,0.04017896926346497,0.07651012345748166
0.779,-0.0381,0.8209999999997779,0.021772839575861062,1.1503814225281626,0.04008866396157782,0.07651012345748166
0.78,-0.0128,-0.179,0.021391513238597535,1.1529996579093813,0.03913964762214048,0.07696724017442372
0.781,-0.0031,-1.179000000000222,0.02123095756561607,1.1529996579093815,0.03874006872564409,0.07696724017442376
0.782,0.0176,-2.179,0.021244895630403823,1.1529996579093815,0.03877475673413214,0.07696724017442376
0.783,0.0255,0.821,0.02121435554308919,1.1529996579093815,0.038698750859275925,0.07696724017442376
0.784,0.0185,0.821,0.021239544673867895,1.1676375367801082,0.03876143967551863,0.07952286186542211
0.785,-0.0018,0.8209999999995559,0.02123594390984475,1.1702171640935501,0.038752478364540356,0.07997323801453127
0.786,-0.0044,-1.179,0.021187722085948324,1.1503814225281626,0.03863246751209417,0.07651012345748166
0.787,0.0177,0.8209999999995559,0.021145799718045134,1.135941028564997,0.03852813427245083,0.07398898058119853
0.788,0.0206,-1.179,0.021158777595857246,1.135941028564997,0.03856043263973199,0.07398898058119853
0.789,0.018,-1.178999999999334,0.021156470249503748,1.138592470648974,0.0385546902894765,0.07445189484371433
0.79,0.0201,1.821,0.0211544767004038,1.153413204527026,0.038549728894250304,0.07703944112072375
0.791,0.0135,0.821000000000222,0.021172091745291645,1.159041594291559,0.03859356789456288,0.07802209954375522
0.792,0.0037,1.821,0.021166037335257758,1.1473416292537,0.03857850013373355,0.07597940710868721
0.793,0.0055,0.8209999999997779,0.021161649828407254,1.1590415942915588,0.038567580836313904,0.07802209954375518
0.794,0.0007,-0.179,0.0211677799620819,1.153413204527026,0.03858283705245131,0.07703944112072375
0.795,0.0082,0.821,0.02151641282836478,1.153413204527026,0.03945048833754646,0.07703944112072375
0.796,0.007,0.821,0.021900961390835152,1.159041594291559,0.04040752390899538,0.07802209954375522
0.797,0.0033,-1.179,0.022123585055810382,1.1646427839550353,0.04096157296084702,0.07900000911151386
0.798,0.0133,-1.179,0.022124734916960962,1.155611961248404,0.040964434648890435,0.07742332121838048
0.799,0.0067,0.821,0.022184070523865073,1.1612296938594873,0.04111210464951648,0.07840411901305445
0.8,0.0128,0.821,0.022718275950265026,1.1668203798449932,0.04244159498031231,0.07938019474768104
0.801,-0.0017,1.821,0.02407304039979169,1.1668203798449932,0.04581323095991978,0.07938019474768104
0.802,0.0121,1.821,0.025005413909389002,1.1698095579627474,0.048133652102126105,0.07990207421556401
0.803,0.0068,0.821000000000222,0.02514719563361239,1.1812870121102588,0.04848650780542521,0.08190591855912381
0.804,0.018,1.821,0.02551423617934227,1.17873161115631,0.04939997074017376,0.08145977208088169
0.805,0.0014,-1.178999999999556,0.02558531026320705,1.17873161115631,0.049576854580357085,0.08145977208088169
0.806,0.008,0.821,0.025572971549079917,1.1642332261967026,0.04954614691563525,0.07892850457864024
0.807,0.0022,0.8209999999995559,0.025665908740010176,1.1642332261967026,0.04977744201412531,0.07892850457864024
0.808,0.004,-1.179,0.025793020855259523,1.1642332261967026,0.05009378909672587,0.07892850457864024
0.809,0.0153,-3.179,0.025836631123334564,1.1642332261967026,0.05020232305550631,0.07892850457864024
0.81,0.0229,-1.179,0.025844508578034383,1.1642332261967026,0.05022192787293632,0.07892850457864024
0.811,0.0106,1.821,0.025845312162414796,1.1642332261967026,0.050223927773369634,0.07892850457864024
0.812,-0.014,0.821,0.025877717324641177,1.1698095579627474,0.05030457530654461,0.07990207421556401
0.8130000000000001,0.004100000000000378,-0.179,0.025886065412656117,1.1727911173693217,0.05032535140081099,0.08042262353556691
0.8140000000000001,0.00749999999999638,0.821,0.025904216147607642,1.1727911173693217,0.05037052358630808,0.08042262353556691
0.8150000000000001,-0.02510000000000048,1.821,0.025773798551755298,1.1672290298222394,0.05004595007192091,0.07945154079140086
0.8160000000000001,-0.029399999999999555,0.821,0.025717148294115828,1.1616403105691324,0.04990496316679655,0.07847580842783394
0.8170000000000001,-0.02539999999999799,-0.179,0.02539961114732928,1.1473416292537,0.04911470057218722,0.07597940710868721
0.8180000000000001,-0.007299999999999634,-1.179,0.024303029526295476,1.1529996579093815,0.046385610619062434,0.07696724017442376
0.8190000000000001,-0.003999999999999045,-1.179,0.024271874678828086,1.138592470648974,0.046308074775324476,0.07445189484371433
0.8200000000000001,0.0046000000000002775,0.821,0.024204444577749715,1.132862488256156,0.04614025980573044,0.0734514994024452
0.8210000000000001,0.007099999999998668,1.821,0.02419469538613486,1.1297755592233996,0.04611599675008839,0.07291255363958186
0.8220000000000001,-0.0049000000000002444,1.821,0.024139517314262685,1.1297755592234,0.04597867371029753,0.07291255363958195
0.8230000000000001,-0.007099999999998913,-1.179,0.02315296266201834,1.1146405734853626,0.04352341061085738,0.0702701422501537
0.8240000000000001,0.0026999999999994116,-0.179,0.02276442246398527,1.111932018703732,0.042556440956708415,0.06979725670353018
0.8250000000000001,-0.002599999999999478,-0.179,0.0225146277760047,1.111932018703732,0.041934770704138404,0.06979725670353018
0.8260000000000001,0.0021000000000004995,0.821,0.02217983186132261,1.1240006304704373,0.041101555784628145,0.07190431103043204
0.8270000000000001,0.006599999999999278,-0.179,0.021463283839016575,1.1266801725153295,0.03931826490039531,0.07237213125441021
0.8280000000000001,0.00010000000000069945,-0.179,0.020543440104290156,1.1385924706489836,0.037029026920535654,0.07445189484371599
0.8290000000000001,0.006400000000000255,-1.179,0.019761869456302438,1.141237752643939,0.03508391261060436,0.07491373361863816
0.8300000000000001,0.008699999999999888,-0.179,0.01939640771736749,1.1438769172865688,0.03417437889159254,0.07537450436735019
0.8310000000000001,0.007699999999999301,-1.179,0.019363658087611285,1.1495519991812637,0.03409287407350891,0.0763653147515841
0.8320000000000001,0.0013999999999986788,0.821,0.019472879197488302,1.1495519991812615,0.0343646953660758,0.07636531475158372
0.833,-0.0105,1.821,0.019524482675862855,1.1351010536075714,0.03449312222612614,0.07384232967364218
0.834,-0.0024,-1.179,0.019467550442230183,1.137754453184979,0.034351433560334536,0.07430558569418966
0.835,-0.0008,-0.179,0.0195050979970685,1.140401679051501,0.034444879093898234,0.07476776384890749
0.836,-0.0098,-1.179,0.01961302622557966,1.143042774101093,0.03471348276045493,0.07522887162663501
0.837,0.0091,-0.179,0.01965823053988402,1.143042774101093,0.03482598386173148,0.07522887162663501
0.838,0.0066,-1.179,0.019578179936830004,1.1399834123114885,0.03462675993498872,0.0746947388182429
0.839,0.0045,1.821,0.019509823085447384,1.1373352129008023,0.03445663853886347,0.07423239069282064
0.84,-0.011,-1.179,0.01945793749652046,1.1315988642551356,0.03432750958326514,0.07323088376989395
0.841,-0.0011,0.821,0.019365804248984306,1.1223021787136298,0.03409821527869469,0.07160777898578644
0.842,0.0044,1.821,0.019347452248890968,1.139564992050565,0.034052542199633544,0.07462168698442102
0.843,0.0157,-0.179,0.019567155534458217,1.1245617657329616,0.034599323230620385,0.07200227942196992
0.844,0.0386,-2.179,0.019590398545761757,1.1214519882139653,0.0346571686909237,0.07145934455060549
0.845,0.0418,-1.179,0.019597228751787096,1.1245617657329647,0.034674167194531626,0.07200227942197046
0.846,0.0332,-1.179,0.01969144914755932,1.1364962683739122,0.03490865583682621,0.07408591968773857
0.847,0.0034,-1.179,0.01969074588607833,1.1391464180995587,0.034906905612487805,0.07454860831790618
0.848,-0.0165,-1.179,0.01978749332195535,1.1334192361824633,0.0351476833623407,0.07354870181062573
0.849,-0.0492,-1.179,0.019758479204754698,1.130755663751988,0.03507547520725924,0.0730836697155398
0.85,-0.0797,-0.179,0.01978121715199593,1.13341923618246,0.035132063702069345,0.07354870181062514
0.851,-0.0677,0.821,0.0197575717241956,1.1360765637885757,0.03507321673782205,0.0740126436242071
0.852,-0.0279,1.821,0.019756896626544323,1.1210266511688691,0.0350715366055071,0.07138508511807208
0.853,-0.0436,0.821,0.020038003216145135,1.1116415534661912,0.03577113356639133,0.06974654448845476
0.854,-0.0196,-0.179,0.020261478931685145,1.1116415534661896,0.03632730313767472,0.06974654448845449
0.855,0.0021,-0.179,0.020259287942453304,1.1021765440048934,0.03632185036828179,0.06809405209536826
0.856,0.022,-0.179,0.020266737295793258,1.102176544004898,0.03634038975921028,0.06809405209536908
0.857,0.0256,-0.179,0.020289536716859354,1.1021765440048998,0.03639713124545723,0.06809405209536938
0.858,0.0158,0.821,0.020290283096280233,1.1143508142564336,0.03639898877848502,0.07021955329685263
0.859,0.0128,-0.179,0.020294513669162097,1.1143508142564336,0.03640951751043383,0.07021955329685263
0.86,-0.0061,-1.179,0.02025308636537543,1.0750567163609297,0.03630641634916993,0.06335921172709229
0.861,-0.013,-1.179,0.020123276115893592,1.068986223705492,0.03598335435280022,0.06229936672890008
0.862,-0.0066,0.821,0.020109487994062508,1.056289232830073,0.035949039511077634,0.06008260393299249
0.863,0.0155,-0.179,0.020061649040205503,1.0746130159990448,0.03582998151682084,0.06328174625008219
0.864,0.0125,-0.179,0.02008633644153389,1.0778579392637728,0.03589142166650212,0.06384827616566636
0.865,0.0204,-0.179,0.020072336692691272,1.0778579392637693,0.0358565801433726,0.06384827616566574
0.866,0.0272,-1.179,0.01991523692985917,1.0680935951478163,0.03546560205641617,0.062143523049351515
0.867,0.0159,-1.179,0.019714970310754986,1.0709130318737459,0.03496719354066132,0.06263576743235379
0.868,0.0256,-1.179,0.01958791471199192,1.0769726638859665,0.03465098711204579,0.06369371627498759
0.869,0.0129,-0.179,0.019618343273739024,1.086657226541913,0.03472671543044836,0.0653845403766179
0.87,-0.0021,-0.179,0.0196150298645071,1.086657226541913,0.034718469266485745,0.0653845403766179
0.871,-0.0159,-0.179,0.01961576000456549,1.0990034263254698,0.034720286384208224,0.06754005868954478
0.872,-0.0326,-0.179,0.01960530848879034,1.0894286217265312,0.03469427543696109,0.06586839720523961
0.873,-0.0349,0.821,0.019605682135300076,1.079768916295893,0.034695205340322756,0.06418191291709847
0.874,-0.0128,0.821,0.019592935545246066,1.076972663885939,0.0346634825846375,0.06369371627498278
0.875,-0.0158,1.821,0.019607060431922646,1.0769726638859387,0.03469863554140668,0.06369371627498274
0.876,-0.0133,-1.179,0.019605885300009878,1.076972663885939,0.03469571096138891,0.06369371627498278
0.877,-0.0014,1.821,0.01960583389708948,1.0797689162958883,0.03469558303366248,0.06418191291709767
0.878,0.0141,-1.179,0.019602710090603385,1.0829983913553063,0.034687808738768984,0.06474574573640675
0.879,0.0043,-1.179,0.019602923935460724,1.0829983913553056,0.034688340939783936,0.06474574573640664
0.88,0.006,-1.179,0.01960534270938084,1.0926295460568198,0.03469436060259576,0.06642724536363566
0.881,0.0208,-1.179,0.019588576346436383,1.0958211204369608,0.0346526337381431,0.06698446111780032
0.882,0.0226,-1.179,0.019574551648259456,1.0930659331231964,0.03461773012298477,0.06650343401517134
0.883,0.0207,-1.179,0.01961968321994249,1.0958211204369586,0.03473005018789045,0.06698446111779993
0.884,0.0221,-1.179,0.01959236781222538,1.0802104988551735,0.03466206965334895,0.06425900864775934
0.885,0.0206,-1.179,0.01965155003507527,1.0774153924998953,0.034809357923264464,0.06377101209489253
0.886,0.014,-1.179,0.019661893959891173,1.083438657661946,0.03483510110621545,0.06482261166302089
0.887,0.0002,-0.179,0.01965355612582987,1.0834386576619461,0.034814350531218514,0.06482261166302093
0.888,-0.0126,0.821,0.019640860923627018,1.086657226541886,0.03478275566575649,0.06538454037661316
0.889,-0.0111,-0.179,0.019682610626454235,1.0806519009723194,0.03488665918953093,0.06433607287509673
0.89,-0.0069,-1.179,0.019957589591640613,1.068093595147777,0.03557100617913606,0.06214352304934465
0.891,-0.0106,-2.179,0.02016897831491639,1.0619833007515171,0.03609709455215833,0.061076729080397685
0.892,-0.0295,-0.179,0.02017033629892023,1.0619833007515174,0.036100474200722835,0.06107672908039772
0.893,0.011,-0.179,0.02048212943713535,1.0492015669049028,0.03687644153834239,0.05884517104145937
0.894,0.0052,0.821000000000222,0.021000754188588613,1.0553858654143136,0.0381671558558946,0.059924885360305505
0.895,0.0209,1.821,0.020844894698170698,1.0396268215064979,0.03777926446574192,0.05717351989295279
0.896,0.0068,-1.178999999999778,0.020680773247835682,1.036722303297499,0.03737081133046202,0.05666642116626079
0.897,0.0198,-0.179,0.020991487179759766,1.0338096247923212,0.03814409282054436,0.05615789773657021
0.898,0.0079,0.8209999999995559,0.021622681316972474,1.0308887168225327,0.03971496136812634,0.055647937527790944
0.899,0.0116,-1.179,0.021590339201954314,1.0410020920777059,0.0396344707421065,0.05741362785762516
0.9,0.0084,-1.178999999999778,0.021229145420900836,1.0381014217642361,0.03873555879602181,0.05690720093354649
0.901,-0.0004,-0.179,0.019725744252817177,1.0381014217642361,0.034994006918228016,0.05690720093354649
0.902,-0.0356,-1.178999999999556,0.01861886833492307,1.0410020920777059,0.03223929729247963,0.05741362785762516
0.903,-0.0308,0.821,0.018547506388357712,1.0467793193374735,0.032061697041234,0.05842227176220176
0.904,-0.0178,-1.179,0.018123263924187647,1.0467793193374735,0.03100587426940611,0.05842227176220176
0.905,-0.0057,-1.179,0.018017256876554304,1.0529778441701612,0.030742051893481337,0.05950446984940469
0.906,0.0125,0.821000000000222,0.018018462693727387,1.0529778441701612,0.030745052840669623,0.05950446984940469
0.907,0.0028,1.821,0.017972477560839493,1.0562892328300162,0.030630608496764657,0.060082603932982565
0.908,-0.0058,-1.179,0.017794504897970645,1.0562892328300162,0.030187683504361136,0.060082603932982565
0.909,-0.0082,-1.179,0.017725664271051846,1.0529778441701612,0.030016358124027122,0.05950446984940469
0.91,-0.0012,-0.17899999999977795,0.017683912561198653,1.0529778441701612,0.029912449605317214,0.05950446984940469
0.911,-0.0076,0.821,0.0176748107513997,1.0467793193374735,0.0298897977049013,0.05842227176220176
0.912,-0.0018,-2.1789999999993337,0.017658502565117053,1.0438947023294027,0.029849211116102104,0.05791864757859199
0.913,-0.0108,0.821,0.017687171595735778,1.040543870517725,0.02992056044562454,0.05733362713017604
0.914,0.0006,0.8209999999995559,0.017651519354370333,1.040543870517725,0.02983183182583873,0.05733362713017604
0.915,-0.0008,-1.179,0.017878269316185656,1.062432275636071,0.030396150095260602,0.0611551154343095
0.916,0.0083,-1.179,0.0178351702583739,1.065714287880492,0.030288888398176603,0.06172812070071722
0.917,0.012,-1.179,0.017679516945915852,1.065714287880492,0.029901510128240456,0.06172812070071722
0.918,0.0131,1.8209999999993338,0.017610005600378578,1.0595902729225142,0.029728515513799337,0.060658931264131216
0.919,-0.0017,-1.179,0.017429976023849707,1.0567406269424755,0.029280471429213036,0.06016141265897202
0.92,0.0049,1.8209999999993338,0.017444686034739747,1.0600402613628221,0.02931708059916476,0.06073749457435571
0.921,0.0031,-1.179,0.017452682979879477,1.066161691597844,0.029336982795424398,0.061806232745146336
0.922,0.005,-1.178999999999556,0.017385340320891028,1.0722481753546576,0.029169385445134303,0.06286886962363074
0.923,0.0003,0.821,0.017080847011137663,1.075500233673046,0.028411585372160066,0.06343664524551307
0.924,0.0079,-0.179,0.01673063500932499,1.093502146039332,0.027540004053197557,0.06657959226188281
0.925,0.0014,-0.179,0.016683074740234675,1.090303783499461,0.027421639628650733,0.06602119136549907
0.926,-0.0021,-1.178999999999556,0.016636478299290793,1.0778579392637306,0.027305673907183112,0.063848276165659
0.927,0.0056,0.821,0.016591648152824618,1.071803312326119,0.02719410400671131,0.06279120115709289
0.928,0.0009,-0.1789999999995559,0.01659156823261534,1.0591400932992086,0.0271939051072988,0.060580334575340046
0.929,0.0071,1.821,0.01657871432201845,1.0562892328300162,0.02716191526030933,0.060082603932982565
0.93,0.0032,0.821,0.01657661113308394,1.0501102544361751,0.02715668100170003,0.059003818451085314
0.931,-0.0022,0.821,0.016566898232360988,1.0438947023294027,0.027132508264103246,0.05791864757859199
0.932,-0.0134,-1.178999999999778,0.01650000995269779,1.0538832756949625,0.02696604173894068,0.059662548794102314
0.933,0.0016,-0.179,0.016347452368030594,1.0637780633326186,0.026586367883750836,0.061390075995135976
0.934,0.0154,0.8209999999995559,0.01624093894407762,1.060939665667405,0.026321285276485418,0.06089452122897342
0.935,0.0064,-1.179,0.016093516217780494,1.0580936538630374,0.02595439067102918,0.06039763711315902
0.936,0.0079,-1.179,0.015962169978756897,1.0552399663128769,0.02562750601928562,0.05989941289181319
0.937,-0.0058,0.821,0.016034930177199296,1.055239966312877,0.025808586134753283,0.059899412891813233
0.9380000000000001,0.014400000000002099,-0.179,0.016072082029427986,1.058544278518091,0.025901046873390964,0.06047631149987338
0.9390000000000001,0.03329999999999976,0.821,0.01602773683135667,1.071214540912683,0.025790683876050494,0.06268840778050429
0.9400000000000001,0.03109999999999626,-0.179,0.016083557583442355,1.074469727699275,0.025929606370072692,0.06325672960045747
0.9410000000000001,-0.002600000000003697,0.821,0.016068994988636506,1.074469727699275,0.025893364078196045,0.06325672960045747
0.9420000000000001,-0.03590000000000146,0.821,0.016034785897948732,1.0589947114228373,0.025808227063394064,0.06055495240897471
0.9430000000000001,-0.04899999999999778,-1.179,0.015778081989600637,1.0589947114228373,0.025169361662257583,0.06055495240897471
0.9440000000000001,-0.02900000000000041,-1.179,0.01604236483037784,1.065122150620366,0.025827088941024465,0.06162473968223835
0.9450000000000001,-0.03270000000000181,0.821,0.016271778243061686,1.0679494321284047,0.026398035806864978,0.06211835368275803
0.9460000000000001,-0.049000000000000335,0.821,0.01654266319864106,1.0580936538630359,0.02707219393293988,0.06039763711315875
0.9470000000000001,-0.0519999999999955,0.821,0.016873126891675812,1.0552399663128775,0.02789462714469061,0.05989941289181331
0.9480000000000001,-0.011499999999995448,1.821,0.016758404257630307,1.0613890820168723,0.027609114072098314,0.060972984658076164
0.9490000000000001,0.029499999999998257,0.821,0.01708793676042454,1.064226281044524,0.028429229807538026,0.06146833015456381
0.9500000000000001,0.0138000000000005,-0.179,0.01772546730516791,1.0613890820168759,0.03001586793013307,0.06097298465807678
0.9510000000000001,0.01830000000000048,-1.179,0.01779694350907371,1.0613890820168783,0.03019375253646353,0.06097298465807721
0.9520000000000001,0.022599999999999544,-2.179,0.017823733816666507,1.06467431006107,0.030260426241266004,0.06154655136974079
0.9530000000000001,0.01849999999999798,0.821,0.017686143797570147,1.0585442785181025,0.029918002538767575,0.060476311499875396
0.9540000000000001,0.0002999999999996336,-1.179,0.017691388822167798,1.0613890820168832,0.02993105596193169,0.060972984658078065
0.9550000000000001,-0.003000000000001654,-0.179,0.017926769480640193,1.0552399663128884,0.030516853660776312,0.05989941289181521
0.9560000000000001,-0.01789999999999851,0.821,0.018285291437880408,1.052378540575013,0.03140911617248655,0.05939983766322662
0.9570000000000001,-0.004499999999999234,-0.179,0.018750950811453525,1.0490548077118784,0.03256801423681732,0.05881954840990469
0.9580000000000001,0.002399999999999278,-0.179,0.01952700207002712,1.0490548077118784,0.03449939230504209,0.05881954840990469
0.9590000000000001,-0.00409999999999979,-0.179,0.01985636363459972,1.0461764649150613,0.035319082622278244,0.0583170196384455
0.96,-0.0022,-0.179,0.019991160705760458,1.0561434585227174,0.035654555445786454,0.060057153252251215
0.961,0.0105,0.821,0.020390531874053517,1.0561434585227176,0.03664848040499631,0.06005715325225126
0.962,0.012,-0.179,0.020601622467542477,1.0528316113704714,0.037173826815003405,0.059478939120661614
0.963,0.0107,-0.179,0.020602864373691583,1.0341219517731572,0.03717691757772388,0.05621242678507224
0.964,0.031,-2.179,0.020574970990466995,1.0341219517731572,0.0371074986211622,0.05621242678507224
0.965,0.0162,0.821,0.020580298804075636,1.0307393502043802,0.03712075808339699,0.055621859666877306
0.966,0.0137,-1.179,0.020631338817355748,1.0244062725008725,0.03724778263385297,0.054516170045259396
0.967,-0.0029,-0.179,0.020622765130711308,1.0180337981710215,0.03722644508666654,0.05340360218166913
0.968,-0.0051,0.821,0.020590206858628526,1.0150674954786425,0.03714541650518397,0.05288571652558061
0.969,-0.0148,0.821,0.020548593909133564,0.9981947776954861,0.03704185332282867,0.049939915160947
0.97,-0.0057,-1.179,0.020614243762399613,0.9981947776954835,0.03720523774541601,0.049939915160946535
0.971,-0.0042,-1.179,0.020828813875670333,0.9810319098071134,0.037739243722842396,0.04694345660007034
0.972,0.0034,0.821,0.020828123955731293,0.9743758059081604,0.03773752670193125,0.04578136995815112
0.973,-0.0057,-2.179,0.021175441537308045,0.9743758059081656,0.03860190460526609,0.04578136995815203
0.974,-0.0021,-0.179,0.021314662605737094,0.970785047299248,0.03894838754080428,0.045154460781683795
0.975,-0.0097,0.821,0.02135463669143453,0.970785047299248,0.03904787204206682,0.045154460781683795
0.976,0.0052,-0.179,0.021354173651498175,0.9774656029653493,0.039046719663061044,0.04632081644830663
0.977,-0.0013,0.821,0.021358067154550547,0.9707850472992506,0.039056409520942,0.04515446078168426
0.978,0.0125,0.821,0.021369520958121887,0.9707850472992448,0.03908491488675521,0.04515446078168323
0.979,0.0034,-0.179,0.021408681774311652,0.9942104414564504,0.03918237538396735,0.049244291416097354
0.98,0.002,-0.179,0.021417798414100016,0.9942104414564422,0.03920506419214675,0.04924429141609592
0.981,-0.0146,1.821,0.02142456603571804,0.9906915760324349,0.039221906940383654,0.04862993404337017
0.982,-0.0033,1.821,0.021426280730533192,0.98716016721819,0.03922617434401595,0.048013386724925326
0.983,-0.0091,0.821,0.02138648705091911,0.9841008088102652,0.03912713882385989,0.04747925450693938
0.984,-0.0036,0.821,0.021413244581242406,0.9841008088102648,0.039193730955056565,0.04747925450693932
0.985,-0.0021,0.821,0.021396088328142073,0.9841008088102687,0.039151033761276086,0.04747925450694
0.986,0.0207,-1.179,0.021639911302788837,0.9841008088102686,0.03975784206235099,0.04747925450693998
0.987,0.0109,0.821,0.021915232294992856,0.9841008088102686,0.04044304026310141,0.04747925450693998
0.988,-0.004,1.821,0.02203249009396937,0.9841008088102686,0.04073486266370907,0.04747925450693998
0.989,-0.0174,0.821,0.02201862883927184,0.9876431567020595,0.040700365814402895,0.048097711674762796
0.99,-0.0007,-1.179,0.02183785881100334,0.9841008088102683,0.040250478949156544,0.04747925450693992
0.991,0.0014,-1.179,0.021620999050571632,0.9876431567020593,0.03971077466989526,0.048097711674762754
0.992,0.0072,-0.179,0.021658971835076053,0.9841008088102681,0.0398052784831048,0.047479254506939884
0.993,0.031,-1.179,0.02136899777976461,0.9841008088102681,0.039083612839765594,0.047479254506939884
0.994,0.0277,-1.179,0.020971817278929675,0.9774656029653462,0.038095139849142416,0.04632081644830608
0.995,0.0364,-1.179,0.020857179076303797,0.9707850472992422,0.03780983690312402,0.04515446078168279
0.996,0.0339,0.821,0.02066864053353551,0.9671809577221878,0.03734061634263292,0.04452522415657031
0.997,-0.0027,-1.179,0.02008291434217436,0.970293666279256,0.035882905002715716,0.045068670756754164
0.998,0.0343,-1.179,0.019398845001889438,0.9666877446943534,0.03418044462219952,0.04443911428208997
0.999,0.0485,0.821,0.019406627761787885,0.9526282552301665,0.03419981377032222,0.04198447337705458
1.0,0.018,-1.179,0.019182889568424653,0.9489552094717049,0.033642990963952145,0.04134319771852141
1.0010000000000001,-0.009800000000004019,0.821,0.01917495853288519,0.9489552094717049,0.03362325279855392,0.04134319771852141
1.002,-0.0279,-0.179,0.019090553287944432,0.9599321844909834,0.03341319136624421,0.04325966360190269
1.0030000000000001,-0.031100000000000644,-1.179,0.018990728267046307,0.9393740511956797,0.0331647543540073,0.03967042694815619
1.004,-0.034,-0.179,0.018913786680078083,0.9393740511956777,0.032973267912920955,0.03967042694815584
1.0050000000000001,-0.03650000000000153,0.821,0.018931856734217437,0.9324206192160082,0.0330182393060742,0.038456429909987766
1.006,-0.0434,-0.179,0.018929545242509057,0.9324206192160085,0.03301248663917092,0.03845642990998782
1.0070000000000001,-0.054599999999995985,1.821,0.018848434975472377,0.9356489753002439,0.032810625500319816,0.03902006736784643
1.008,-0.0365,0.821,0.01884546950544452,0.9393740511956741,0.03280324526130789,0.0396704269481552
1.0090000000000001,-0.024600000000003463,1.821,0.0188744007609248,0.9462763893178296,0.03287524719636501,0.04087550352922066
1.01,-0.0402,-0.179,0.01889108897962868,0.9531287436128445,0.032916779581302645,0.04207185345296316
1.0110000000000001,-0.030399999999993894,-0.179,0.018889843902062466,0.9531287436128445,0.03291368092579754,0.04207185345296316
1.012,-0.0029,0.821,0.018861249900662798,0.949457634031985,0.032842518323358605,0.04143091583093933
1.0130000000000001,0.0011000000000007993,0.821,0.018832368665223895,0.9531287436128443,0.03277064087442249,0.04207185345296312
1.014,0.0047,-0.179,0.018807875239659832,0.9707850472992294,0.03270968347705021,0.045154460781680554
1.0150000000000001,0.014499999999998068,-0.179,0.018550493634995138,0.9467802354393207,0.03206913147623576,0.04096346983146838
1.016,0.0058,-0.179,0.01847942465656569,0.9499597928648176,0.03189226034207632,0.041518587550103486
1.0170000000000001,0.003199999999999512,0.821,0.018429561936035937,0.9467802354393207,0.03176816574936837,0.04096346983146838
1.018,0.001,-0.179,0.018427759521998745,0.9536289693267247,0.031763680036726534,0.042159187669626466
1.0190000000000001,0.016500000000003043,-1.178999999999778,0.018441660591056987,0.9499597928648176,0.031798275973022434,0.041518587550103486
1.02,0.0302,-0.179,0.01838365829062285,0.9499597928648176,0.031653924205368604,0.041518587550103486
1.0210000000000001,0.0026000000000079714,-0.17900000000022204,0.01837952108205691,0.9499597928648176,0.03164362783151488,0.041518587550103486
1.022,0.0385,-1.179,0.01837480489076988,0.9467802354393207,0.03163189052896342,0.04096346983146838
1.0230000000000001,0.024299999999991207,-0.179,0.018403779289765082,0.9499597928648176,0.03170399983635915,0.041518587550103486
1.024,-0.0153,-0.179,0.018409999426644143,0.9324206192160012,0.031719480045709826,0.038456429909986545
1.025,0.0002,-1.178999999999778,0.01851102095578335,0.939374051195671,0.031970894837764434,0.039670426948154654
1.026,-0.0046,-0.179,0.018489878948227633,0.939374051195671,0.031918278197741956,0.039670426948154654
1.027,-0.009,0.8209999999993338,0.0184913591569717,0.9462763893178266,0.03192196203005728,0.04087550352922014
1.028,-0.013,-2.179,0.0185502450098868,0.9462763893178266,0.032068512716745136,0.04087550352922014
1.029,-0.0095,1.8209999999995559,0.01868998578466793,0.9494576340319851,0.03241628905840726,0.04143091583093935
1.03,-0.0063,-0.179,0.018778437506400236,0.9494576340319851,0.032636421058147194,0.04143091583093935
1.031,-0.0035,-0.17899999999977795,0.01881580490497207,0.9494576340319851,0.03272941823232987,0.04143091583093935
1.032,0.0029,0.821,0.01884757424905923,0.9383581350334543,0.03280848338908846,0.03949305853273562
1.033,0.0108,-0.17899999999977795,0.01884534315455924,0.9271257629606191,0.03280293080871724,0.037532002975150115
1.034,0.0128,0.821,0.018842765320510435,0.9233512751201062,0.03279651528900719,0.036873016582188826
1.035,0.033,-1.179,0.01890078376997609,0.9195612944151912,0.032940907247157404,0.03621132529593861
1.036,0.0355,-1.179,0.018958098120537985,0.9228346374230726,0.03308354689685432,0.036782817003644226
1.037,0.0234,0.821,0.01894079154016489,0.9157556284878395,0.03304047557985137,0.035546895532683545
1.038,0.0121,0.821,0.018909489287862586,0.9157556284878395,0.032962572886034686,0.035546895532683545
1.039,0.0178,-0.17899999999977795,0.018931086965467053,0.8970168141949122,0.03301632356344036,0.03227529308990299
1.04,0.0051,0.821,0.019032042206203404,0.8931150888149889,0.033267573381898126,0.03159409234344841
1.041,-0.0131,-0.17899999999977795,0.01912089162945793,0.8897324137221111,0.03348869515130756,0.03100351238870875
1.042,-0.0063,0.821,0.020132274059158267,0.8897324137221111,0.03600574775798903,0.03100351238870875
1.043,-0.0268,-0.179,0.02039999206493879,0.8970168141949122,0.03667202421733497,0.03227529308990299
1.044,-0.019,-0.179,0.020165369214118226,0.8897324137221111,0.03608811249324073,0.03100351238870875
1.045,-0.0169,-0.17900000000022204,0.020157908344147546,0.9080964513466561,0.03606954444058692,0.034209682715849
1.046,0.0034,-1.179,0.020074401194759207,0.9080964513466561,0.03586171812101488,0.034209682715849
1.047,0.0008,-0.17899999999977795,0.019975547983005906,0.9042425348704879,0.035615699674366355,0.03353682890767273
1.048,0.0127,0.821,0.020339077772797025,0.9042425348704879,0.036520425303494815,0.03353682890767273
1.049,-0.0029,-0.179,0.021171682561296833,0.9157556284878394,0.03859254954817826,0.035546895532683524
1.05,-0.0127,-0.179,0.021161459868073045,0.9157556284878394,0.03856710807730569,0.035546895532683524
1.051,-0.0036,1.820999999999778,0.021546485507786838,0.952127503764435,0.03952533096275561,0.04189704736957601
1.052,-0.0115,0.821,0.021539819070356608,0.9521275037644351,0.03950874003412339,0.04189704736957603
1.053,-0.0072,0.8209999999997779,0.02136134507076201,0.9557883586359892,0.03906456735254186,0.04253619462581208
1.054,-0.0083,-0.179,0.021156451576673986,0.9489552094716919,0.038554643817940666,0.041343197718519145
1.055,0.0003,-0.17900000000022204,0.02088969591702362,0.9489552094716919,0.03789076237334316,0.041343197718519145
1.056,0.0036,-1.179,0.020635842081415806,0.9489552094716919,0.037258990019119,0.041343197718519145
1.057,-0.003,0.8209999999995559,0.020699814632011884,0.9997810662066522,0.037418200096835726,0.050216864667301006
1.058,0.0107,-1.179,0.020591793698735213,0.9826459047828684,0.03714936571362346,0.04722524336751317
1.059,0.0089,-1.178999999999778,0.020520741632245897,0.9857097788029566,0.03697253666863004,0.04776016396450505
1.06,-0.0002,-0.179,0.02039483154806729,0.9719254935170646,0.0366591811106507,0.04535357085202997
1.061,-0.0017,-0.17899999999977795,0.020005840781925098,0.9719254935170647,0.03569109011644258,0.04535357085202999
1.062,-0.006,0.821,0.020063657137652447,0.9755120542708705,0.03583497911888003,0.04597974712657478
1.063,-0.0048,1.821,0.020067044473714542,0.9755120542708705,0.03584340926638351,0.04597974712657478
1.064,-0.001,-0.179,0.020494939229429684,0.9755120542708705,0.03690832158701503,0.04597974712657478
1.065,0.0002,-1.179,0.020820461618811802,0.9790854769156562,0.037718457253471296,0.046603629623674966
1.066,-0.0021,0.821,0.02082584262114366,0.9790854769156562,0.03773184908780441,0.046603629623674966
1.067,-0.0013,-1.179,0.020918625085548193,0.9962818764114532,0.03796275911454172,0.0496059424551071
1.068,-0.0088,-0.179,0.020925698630444474,0.9962818764114532,0.03798036322164979,0.0496059424551071
1.069,-0.0022,0.821,0.020926332576106186,0.9997810662066522,0.03798194093798483,0.050216864667301006
1.07,0.0041,-1.179,0.02088483128084336,0.9932506146107837,0.03787865563229397,0.04907671561306936
1.071,0.0003,0.821,0.020680549406630066,0.9967604458966475,0.0373702542512865,0.0496894957190611
1.072,-0.0109,-1.179,0.020709867187527632,0.9967604458966471,0.037443218141762824,0.04968949571906104
1.073,0.0074,-1.179,0.020398059644421263,0.9902100734609132,0.03666721495433216,0.04854586869299258
1.074,0.0194,-1.179,0.020321446552517507,0.9902100734609132,0.03647654604708269,0.04854586869299258
1.075,0.0039,0.821,0.02053775209979321,0.9902100734609132,0.03701487104227891,0.04854586869299258
1.076,0.0057,-1.179,0.020773736744677293,0.9871601672181878,0.037602171897127924,0.04801338672492494
1.077,0.0148,0.821,0.02076900030791239,0.9871601672181878,0.03759038420915215,0.04801338672492494
1.078,0.026,-1.179,0.020756682885469474,0.9836160799127206,0.037559729533574365,0.04739462587353157
1.079,0.0185,-0.179,0.020871509593756644,0.9635633875884969,0.0378455016183203,0.04389363396621445
1.08,0.012,-0.179,0.02084998733358028,0.9457722747798585,0.03779193863414364,0.040787490364242014
1.081,0.0182,-1.179,0.020843114247216413,0.9526282552301731,0.037774833413170755,0.04198447337705574
1.082,0.0015,-1.179,0.02097768036485737,0.9526282552301735,0.03810973145691028,0.0419844733770558
1.083,0.0085,-0.179,0.021085297338004332,0.9489552094717119,0.03837756049450093,0.04134319771852263
1.084,0.0152,-0.179,0.02106839617819341,0.9557883586360094,0.03833549815773419,0.04253619462581561
1.085,-0.0149,-1.179,0.021034309287242606,0.9521275037644554,0.03825066526445681,0.041897047369579575
1.086,-0.0191,-0.179,0.020783694323552582,0.9452678913959349,0.03762695357132777,0.04069943026155104
1.087,0.0009,0.821,0.02048047190518146,0.938358135033475,0.036872316397344604,0.03949305853273922
1.088,-0.0099,-0.179,0.02036499635525401,0.938358135033475,0.036584929524271295,0.03949305853273922
1.089,-0.0262,-0.179,0.020342252048903893,0.9346290100912324,0.03652832520338875,0.038841992030891274
1.09,0.0184,0.821,0.020266348670323755,0.9383581350334752,0.0363394225773389,0.03949305853273926
1.091,0.063,-1.179,0.020259937829831688,0.9346290100912328,0.03632346775916359,0.03884199203089133
1.092,0.0337,-1.179,0.02022854505340963,0.9346290100912331,0.03624533977571868,0.038841992030891385
1.093,-0.0033,-0.179,0.02022179464610095,0.9378497642721622,0.03622853986916155,0.03940430227535014
1.094,-0.0272,-2.179,0.02004514625457109,0.9415661333250757,0.03578891062377505,0.040053141731343625
1.095,-0.0315,-1.179,0.019958599204061917,0.9452678913959356,0.03557351882667883,0.04069943026155116
1.096,-0.0275,-0.179,0.0198910978316992,0.9521275037644503,0.03540552648246686,0.04189704736957868
1.097,-0.0384,-1.179,0.0198908485890698,0.9452678913959298,0.03540490618613621,0.04069943026155015
1.098,-0.0681,1.821,0.019899653118734744,0.9489552094717075,0.03542681823808902,0.04134319771852187
1.099,-0.0481,0.821,0.019868683269654394,0.9452678913959303,0.03534974280443795,0.04069943026155023
1.1,-0.0444,2.821,0.019877815554898665,0.9489552094717035,0.03537247054985257,0.04134319771852118
1.101,-0.0082,0.821,0.019854613136806663,0.9489552094717035,0.0353147261148844,0.04134319771852118
1.102,-0.0034,0.821,0.01986329728743424,0.934629010091228,0.03533633857653299,0.0388419920308905
1.103,0.0097,-0.179,0.019830153959654616,0.934629010091228,0.035253853952386886,0.0388419920308905
1.104,0.0057,-0.179,0.01983464001629228,0.934629010091226,0.03526501851311284,0.03884199203089015
1.105,0.0166,0.821,0.019817582084928516,0.934629010091226,0.03522256601508351,0.03884199203089015
1.106,0.0463,-3.179,0.01983260222418182,0.9526282552301673,0.035259947009206025,0.041984473377054715
1.107,0.0503,-0.179,0.019830484803436108,0.9457722747798525,0.035254677331534236,0.040787490364240966
1.108,0.0322,-1.179,0.01984635956711469,0.9661942798961775,0.03529418525071913,0.044352960451121706
1.109,0.0094,0.821,0.019833602605839235,0.9661942798961775,0.035262436683917125,0.044352960451121706
1.11,0.0065,-0.179,0.01981418151292182,0.9594352451226097,0.03521410292695551,0.04317290314704836
1.111,-0.034,0.821,0.01984765739083677,0.96619427989618,0.035297415176894185,0.04435296045112215
1.112,-0.0047,0.821,0.01985639562346065,0.9661942798961805,0.03531916223375203,0.044352960451122234
1.113,-0.0417,0.821,0.019896885314937388,0.9625730016080414,0.03541992993594106,0.04372072285549509
1.114,-0.037,0.821,0.019976295427556544,0.9484525187616565,0.03561755985820907,0.041255433139116934
1.115,-0.0153,-0.179,0.020051036413426804,0.9552892636609847,0.03580356960861222,0.04244905782441795
1.116,0.0205,1.821,0.020060373692588104,0.9521275037644378,0.03582680752748651,0.041897047369576494
1.117,0.0063,0.821,0.020086887252058813,0.9552892636609768,0.035892792482354594,0.04244905782441657
1.118,0.0019,0.821,0.020109773949081616,0.9484525187616485,0.03594975117444562,0.04125543313911554
1.119,-0.01,-0.179,0.020097668395359505,0.9521275037644377,0.03591962378182264,0.04189704736957647
1.12,0.008,0.821,0.02009827194009034,0.948452518761647,0.035921125838604906,0.04125543313911528
1.121,0.0113,-0.179,0.0202462086759884,0.9594352451226007,0.03628929967253881,0.04317290314704679
1.122,0.0142,-0.179,0.02051944182930474,0.9733964211269984,0.03696930181672324,0.04561037954262195
1.123,0.0167,-0.179,0.020493718459214792,0.9702936662792441,0.0369052834258197,0.04506867075675209
1.124,0.0334,-0.179,0.02049427475480099,0.9871601672181453,0.03690666789248058,0.04801338672491751
1.125,0.0312,0.821,0.020405700575124246,0.9977168962086935,0.03668623112860871,0.049856482014371636
1.1260000000000001,0.0011000000000009548,-0.179,0.020413850322950268,1.0007346295704675,0.03670651360871404,0.050383346931420665
1.127,0.0054,-0.179,0.020429708722963166,0.9942104414563975,0.036745980803237176,0.049244291416088104
1.1280000000000001,0.025399999999994358,0.821,0.020376719169385358,1.007689934940444,0.036614104383355696,0.05159767104408815
1.129,-0.0,-0.179,0.020235195912915976,1.0012110706837296,0.03626189193518429,0.05046652860373051
1.1300000000000001,-0.003300000000004596,-1.179,0.020187273967496717,1.0046930930085287,0.03614262739776244,0.05107445355381279
1.131,-0.024,-0.179,0.020152891186134714,1.0081630890974078,0.03605705811465968,0.0516802788479511
1.1320000000000001,-0.021499999999996734,-0.179,0.02010280974920809,1.005167657844798,0.03593241919701518,0.051157307647637824
1.133,-0.0068,-1.179,0.02014309516256806,1.002163273392098,0.03603267850717444,0.05063277331153446
1.1340000000000001,-0.004599999999997535,-0.179,0.020125242150853546,1.002163273392098,0.03598824727290192,0.05063277331153446
1.135,0.0065,-0.179,0.02006936175737905,1.0189702805748226,0.03584917634787206,0.05356710228749244
1.1360000000000001,-0.0033000000000012212,-0.179,0.02002811106016468,1.0160067120120364,0.03574651471177698,0.053049693982047064
1.137,-0.0088,0.821,0.019946012618589765,1.03258841994876,0.035542194278375884,0.05594468804854646
1.1380000000000001,-0.007399999999999045,-0.179,0.019956140880767696,1.029200778241492,0.03556740073635604,0.05535324097449405
1.139,-0.0031,0.821,0.019932434014431614,1.03258841994876,0.0355084008684968,0.05594468804854646
1.1400000000000001,0.0005000000000013545,-0.179,0.019759836618661073,1.03258841994876,0.035078853437008,0.05594468804854646
1.141,0.0066,-0.179,0.01967648416966208,1.029200778241492,0.034871412124142444,0.05535324097449405
1.1420000000000001,-0.003499999999999756,-1.179,0.018647734093113214,1.0393305783873796,0.03231113622280183,0.05712179891973571
1.143,-0.0024,0.821,0.01834025534314089,1.0493625972032725,0.0315459062105044,0.05887328525985507
1.1440000000000001,0.0036999999999982906,0.821,0.01833913852896099,1.0493625972032725,0.03154312676727882,0.05887328525985507
