time_sec,bts_raw,diy_raw,bts_rms,diy_rms,bts_norm_rms,diy_norm_rms
0.0,0.002,-1.038,0.0053994276622044935,0.8744410492164083,0.005317842167456755,0.002843531126859387
0.0010000000000000009,-0.0017,0.962,0.005517777716527656,0.8795951011889988,0.005749584634462305,0.003025515152238087
0.0020000000000000018,0.0005,0.962,0.005517837757354928,0.8796088555466168,0.005749803664145355,0.0030260008037951815
0.0030000000000000027,0.002,-0.038,0.0055204849490221855,0.8796226096891626,0.00575946065220163,0.0030264864477583054
0.0040000000000000036,0.0034,-1.038,0.005502561520468234,0.9009952972785223,0.005694075762390336,0.0037811330328834836
0.0050000000000000044,0.0103,1.962,0.005541031122274572,0.9218726137377402,0.005834413347223524,0.004518288596808443
0.006000000000000005,-0.0034,0.962,0.005619614941326254,0.9218857373232308,0.006121088094422613,0.004518751976480917
0.007000000000000006,-0.0016,0.962,0.005617644940387368,0.9278368998049672,0.006113901506548008,0.004728881115625931
0.008000000000000007,0.0075,-0.038,0.0056098670217389944,0.9278499390311112,0.006085527562787509,0.004729341516660716
0.009000000000000008,-0.0073,0.9619999999999947,0.005610216166789604,0.9327089057369554,0.006086801248265349,0.004900906399012139
0.010000000000000009,-0.0015,-2.038,0.005668615690133402,0.9327218768536378,0.006299843434216123,0.004901364395175173
0.01100000000000001,-0.0069,1.962,0.005603187533992323,0.9386043359803261,0.006061160708588974,0.005109067692831747
0.01200000000000001,0.0011,0.962,0.005630434672765002,0.9386172256257674,0.006160558608994132,0.005109522812332985
0.013000000000000012,-0.0127,1.9619999999999964,0.005645232320605102,0.9444629670882332,0.006214540611967442,0.0053159296488026605
0.014000000000000012,0.0,-0.038,0.005662550095891204,0.950272748299563,0.0062777160711409,0.005521066767525959
0.015000000000000013,-0.0014,0.962,0.005723363338598561,0.950285479675002,0.006499563535286447,0.005521516298683836
0.016000000000000014,6.106226635438355e-17,0.962,0.005710965580146991,0.9502982108798758,0.006454336358587365,0.005521965823819239
0.017000000000000015,0.0010999999999996614,0.962,0.005712061882805944,0.972141189745883,0.006458335684293363,0.0062932178875232045
0.018000000000000016,-0.005000000000000061,0.9620000000000034,0.005705740669525527,0.972153634731098,0.006435275819794245,0.006293657306550648
0.019000000000000017,-0.006099999999999496,1.962,0.0057108057419904094,0.9721660795570009,0.006453753267008414,0.006294096719952956
0.020000000000000018,0.0029999999999998,0.962,0.0057083842681624536,0.9721785242235981,0.00644491970043128,0.006294536127730351
0.02100000000000002,-0.0005999999999995781,0.962,0.005681449771747824,0.9768170127728965,0.0063466623232284695,0.00645831616378033
0.02200000000000002,0.006999999999999495,-1.038,0.005685054291274291,0.9768293981872725,0.0063598116551964725,0.006458753479425599
0.02300000000000002,-0.002100000000000061,-1.038,0.005671777200478947,0.9768417834446134,0.006311376663193966,0.006459190789526122
0.02400000000000002,-0.0031999999999994338,-1.038,0.005665411039522714,0.9814582331226556,0.006288152829015627,0.006622192656763032
0.025000000000000022,0.007000000000000061,0.962,0.005530842716888937,0.9814705599683512,0.005797245917929109,0.00662262790441126
0.025999999999999968,0.0081,0.9620000000000034,0.005548508800859249,0.9870625411007576,0.0058616920115054,0.006820074736870264
0.02699999999999997,-0.0005,1.962,0.005550261039237204,0.9926230200856622,0.005868084198855091,0.007016409262421817
0.02799999999999997,0.0006,-0.038,0.005368006146158753,1.013554272450681,0.0052032160869515485,0.007755469245103572
0.02899999999999997,0.0096,-1.038,0.005369751675504545,1.0189701973869134,0.005209583799668647,0.007946699722849237
0.02999999999999997,0.0035,-0.038,0.00536289695691061,1.023396627238783,0.005184577701164512,0.0081029921946333
0.030999999999999972,-0.0067,0.962,0.005327523756992446,1.0278039940206054,0.00505553582884862,0.0082586115699407
0.03199999999999997,-0.0001,0.962,0.005335081682962536,1.027815765030413,0.005083107236588424,0.00825902719162223
0.032999999999999974,0.0061,1.962,0.005302917311894629,1.027827535905415,0.00496577121174283,0.008259442808543925
0.033999999999999975,0.0006,-0.038,0.005187401566891836,1.0322159837196812,0.004544368340314413,0.008414394175478459
0.034999999999999976,0.0072,-1.038,0.005170905451713171,1.0375344991883813,0.0044841903074104555,0.008602185229813998
0.035999999999999976,0.0029,-0.03800000000000694,0.00517447979365734,1.041882061697521,0.004497229551183705,0.008755692980648946
0.03699999999999998,0.0021,-1.038,0.005130929794402189,1.0462115579403952,0.004338358613404769,0.008908562831075424
0.03799999999999998,0.0029,0.962,0.004972528645967573,1.0505232112852438,0.003760509258009172,0.009060802667985474
0.03899999999999998,0.0007,0.962,0.004972398750435089,1.0548172405350857,0.0037600353974945465,0.009212420217078085
0.03999999999999998,-0.0032,0.962,0.004977617862720847,1.0745376745973596,0.0037790747838870463,0.009908727509273295
0.04099999999999998,-0.0116,0.962,0.0049263690280809186,1.0787361158365343,0.0035921183990747087,0.010056969948636384
0.04199999999999998,-0.0054,1.962,0.004896406576635805,1.1210027716506739,0.0034828150043409423,0.011549360053598247
0.04299999999999998,0.0047,1.961999999999993,0.004896721344656,1.1210135640431997,0.0034839632819851775,0.011549741121357317
0.043999999999999984,-0.0076,0.962,0.004873192649780504,1.1259127012022438,0.0033981303110663017,0.011722724379156543
0.044999999999999984,0.0004,-3.038,0.004904126404573672,1.130790613105817,0.003510977032468553,0.01189495819603999
0.045999999999999985,-0.0011,0.962,0.004875083159909367,1.135647573258502,0.0034050269154793887,0.012066452229159981
0.046999999999999986,-0.0022,-0.038,0.004903336319464814,1.1356582264784898,0.0035080947921857456,0.012066828382886587
0.04799999999999999,-0.0033,-0.038,0.004903127509184403,1.1356688795985443,0.0035073330496912755,0.01206720453308466
0.04899999999999999,0.0029,1.962,0.004913457695949883,1.1356795326186684,0.0035450176992190075,0.012067580679754294
0.04999999999999999,-0.0117,0.962,0.004891213302410883,1.1396527516265422,0.003463869875515046,0.012207870764644656
0.05099999999999999,-0.0019,-0.038,0.004907003516046612,1.1387891761916447,0.0035214727708294757,0.01217737884591807
0.05199999999999999,-0.0037,-0.03799999999998612,0.005001159451969344,1.139652751626542,0.0038649547936386603,0.012207870764644647
0.05299999999999999,-0.0023,1.962,0.005150167738787503,1.139652751626542,0.004408538873283243,0.012207870764644647
0.05399999999999999,-0.0066,1.962,0.005146409309163004,1.139652751626542,0.004394828075367448,0.012207870764644647
0.05499999999999999,-0.0103,-0.038,0.005138065593157331,1.151458633461008,0.004364390095825451,0.012624723739897351
0.055999999999999994,-0.0016,-1.038,0.005033989359684864,1.1387891761916442,0.003984718704434681,0.012177378845918055
0.056999999999999995,-0.0027,-0.038,0.005067042952091431,1.1348235946835947,0.0041052986197597716,0.012037358432922595
0.057999999999999996,-0.002,0.962,0.00507341782130323,1.1308441069793609,0.004128554221762492,0.011896847007113761
0.059,0.0082,-0.03800000000000694,0.005017890375290339,1.134823594683595,0.003925989409560029,0.012037358432922602
0.06,0.0045,-1.038,0.004965367719301113,1.1308441069793609,0.0037343861086561398,0.011896847007113761
0.061,0.0056,-0.038,0.004989298979048524,1.1161796381281517,0.00382168764122397,0.011379060402365514
0.062,-0.0045,-1.038,0.004942478425304271,1.0990107329096455,0.0036508856800781565,0.010772844846211787
0.063,0.0103,-1.038,0.00500416449277409,1.094901088815765,0.003875917219789736,0.010627737738434164
0.064,0.0085,-0.038,0.00487581983664073,1.0773931505112944,0.0034077143213382473,0.010009551289078641
0.065,0.003,-0.038,0.004875857279120651,1.08247854667333,0.003407850911969696,0.010189111151713766
0.066,-0.0017,-2.038,0.0048764760923621095,1.078305896880545,0.0034101083503545867,0.010041779380551017
0.067,-0.0031,-0.038,0.004918180877373929,1.0741170376112228,0.003562247923673017,0.009893875270225758
0.068,0.0034,-0.038,0.0049214153225916255,1.0699117784780487,0.0035740472199696583,0.009745392098366916
0.069,-0.0003,-0.038,0.004944366498468826,1.0708309017789712,0.0036577733944152015,0.00977784535243008
0.07,-0.0013,0.962,0.004909753821392458,1.0529228018632082,0.0035315059188649784,0.009145529627465331
0.07100000000000001,-0.0021,-0.038,0.0049139020540214145,1.0529228018632082,0.003546638722978852,0.009145529627465331
0.07200000000000001,0.0023,-0.03799999999998612,0.00493238061664808,1.0529228018632082,0.003614048748777139,0.009145529627465331
0.07300000000000001,-0.0031,0.962,0.0048988673836782605,1.047693955047998,0.0034917920589727326,0.008960904676731224
0.07400000000000001,-0.0024,-0.038,0.005032026967745149,1.0467545160950644,0.003977559874283483,0.008927734098871008
0.07500000000000001,-0.0046,-1.038,0.005048547388808773,1.0414947017273108,0.0040378265753574305,0.008742015717201795
0.07600000000000001,0.0034,-1.038,0.005058716109988678,1.0371571804530944,0.004074922196425047,0.0085888625115598
0.07700000000000001,0.0023,-2.038,0.005007959509770918,1.0371571804530944,0.0038897614888938697,0.0085888625115598
0.07800000000000001,0.0015000000000001444,-1.038,0.0050434140300177266,1.0240343874516464,0.004019100018777919,0.008125510821022882
0.07900000000000001,0.004099999999999695,0.962,0.00504385495118977,1.0443246780394366,0.004020708504685775,0.008841939133524695
0.08000000000000002,-0.001400000000000383,0.962,0.005008167223187361,1.0390525635995616,0.0038905192300149696,0.008655786449553326
0.08100000000000002,-0.00829999999999976,-0.038,0.00503565762474501,1.0571956410447956,0.003990804556078818,0.009296398978064892
0.08200000000000002,-0.003999999999999695,-0.038,0.005056213190207699,1.0529228018632082,0.004065791514000464,0.009145529627465331
0.08300000000000002,0.0014999999999999612,0.962,0.005337813787683951,1.0538567422387983,0.005093073988520118,0.0091785060564803
0.08400000000000002,0.0008000000000001221,-1.038,0.00538060464835681,1.0399989598079054,0.005249175579329231,0.008689202680610651
0.08500000000000002,0.003000000000000022,0.962,0.005435223418818475,1.0443246780394366,0.005448425531843314,0.008841939133524695
0.08600000000000002,0.0033999999999999165,0.962,0.005427822754219692,1.0390525635995616,0.005421427815537796,0.008655786449553326
0.08700000000000002,0.0018999999999999224,0.962,0.005424149642416461,1.0433822054661794,0.0054080282580928635,0.008808661441797391
0.08800000000000002,0.0005000000000003441,0.962,0.005421464262378352,1.0381053046026287,0.005398231958385768,0.008622339754359954
0.08899999999999997,0.0067,-2.038,0.005413903411879885,1.033753561872204,0.005370649881930148,0.00846868440441261
0.08999999999999997,0.006,0.962,0.005427429611220982,1.0293834222109957,0.005419993624999231,0.00831437947864872
0.09099999999999997,0.0052,-3.038,0.0054273268049699844,1.0249946503090506,0.005419618586519671,0.008159416668527215
0.09199999999999997,0.0016,-0.038,0.0053159828431323585,1.0259540143889863,0.005013434431853507,0.008193290781166922
0.09299999999999997,0.0082,-1.038,0.005308288795573188,1.0072483537437926,0.004985366450867339,0.0075328140456423975
0.09399999999999997,0.0056,-1.038,0.005311024159959146,0.9937306757052616,0.00499534509409574,0.007055519389649878
0.09499999999999997,0.0017,-1.038,0.005256250554265602,0.9937306757052609,0.004795530300734114,0.007055519389649851
0.09599999999999997,0.0053,-0.038,0.005259875559841153,0.9677380082430793,0.004808754366063429,0.006137746289911333
0.09699999999999998,0.0002,-0.038,0.005259491993718489,0.9687540756440647,0.0048073551120875364,0.006173622535760374
0.09799999999999998,0.0032,-0.038,0.005275023650022209,0.9687540756440647,0.00486401478704586,0.006173622535760374
0.09899999999999998,0.0036,0.962,0.005358931120535546,0.9733964535776953,0.005170110280848549,0.006337539901783118
0.09999999999999998,-0.0044,0.962,0.005377394587408065,0.95837594871584,0.005237465237148357,0.005807182048870954
0.10099999999999998,-0.0098,-1.038,0.005261338928992328,0.9594019311819685,0.004814092754888692,0.005843408384993869
0.10199999999999998,-0.0123,0.9619999999999861,0.005285621780233102,0.9594019311819685,0.004902676897587887,0.005843408384993869
0.10299999999999998,-0.0003,-0.037999999999972243,0.005338950063976826,0.9594019311819685,0.005097219138538774,0.005843408384993869
0.10399999999999998,-0.0017,1.9619999999999862,0.005428574919632561,0.9393719561677338,0.005424171724299019,0.005136171535092033
0.10499999999999998,-0.0002,0.962,0.005392254508223716,0.9189054785521191,0.00529167441270934,0.0044135222483521796
0.10599999999999998,-0.0067,-0.038,0.005297404678135369,0.9237983953621844,0.004945661055372121,0.004586285872326902
0.10699999999999998,-0.003,-0.038,0.005296788954503434,0.9178342290601255,0.004943414887921114,0.004375697582288536
0.10799999999999998,0.0003,0.962,0.005295260519219239,0.9178342290601255,0.004937839137035063,0.004375697582288536
0.10899999999999999,0.001,-0.038,0.005292067150769124,0.9129093466898819,0.00492618968929636,0.004201805288803754
0.10999999999999999,-0.0051,0.962,0.005242749707767445,0.9178342290601255,0.00474627904515073,0.004375697582288536
0.11099999999999999,-0.0011,-0.038,0.005286040247566746,0.9118310527696689,0.004904203471614591,0.004163731891564978
0.11199999999999999,-0.0079,-0.038,0.005343488733854084,0.9167617277982817,0.005113776262580141,0.004337828717579365
0.11299999999999999,0.0059,-0.038,0.005505636050224513,0.9107514821927762,0.0057052916850990265,0.004125613416953518
0.11399999999999999,0.0002,-1.038,0.005409175980335456,0.9096706304139067,0.005353404152984232,0.004087449704479826
0.11499999999999999,-0.0016,-0.038,0.005343064781091869,0.9146129523455714,0.0051122296776419315,0.004261957770099838
0.11599999999999999,0.0064,-0.038,0.005560667839192674,0.9146129523455714,0.005906048334250748,0.004261957770099838
0.11699999999999999,0.0021,-0.038,0.005558049384505608,0.8964181183355378,0.005896496179054865,0.0036195177730155657
0.118,-0.0069,-1.0379999999999863,0.005552295587046686,0.917386416076411,0.005875506254514721,0.00435988578802907
0.119,0.0018,-0.03799999999998612,0.005589687492332904,0.937886043143205,0.0060119123890672935,0.00508370554619544
0.12,-0.0036,0.962,0.005595151297291913,0.9579470880190166,0.0060318444173686776,0.005792039439454192
0.121,-0.0043,0.962,0.0056506624643432824,0.9749943759643795,0.006234349843717476,0.006393960820648121
0.122,0.004,-0.038,0.005648741600291335,0.980610950582096,0.006227342507816257,0.006592276022591681
0.123,0.0117,0.962,0.005644240644471561,0.9851974589706214,0.006210922965124658,0.006754220695135896
0.124,0.0052,-0.038,0.0056577327698625135,0.9806109505820957,0.006260142406000722,0.006592276022591669
0.125,0.0077,-0.038,0.0056675159034529415,0.9806109505820957,0.006295831398756425,0.006592276022591669
0.126,0.0038,0.962,0.005672710210734207,0.9749943759643792,0.006314780296184683,0.00639396082064811
0.127,0.006,-1.038,0.005662596498371966,0.9749943759643792,0.006277885347966616,0.00639396082064811
0.128,0.0009,-2.038,0.005664356040833207,0.9589735293128884,0.006284304180702789,0.005828281976290665
0.129,0.0075,-0.038,0.0056624249250642345,0.9579470880190163,0.006277259446410627,0.005792039439454181
0.13,-0.0063,1.962,0.00564832842533037,0.9729742135353644,0.006225835240430769,0.006322631060547504
0.131,-0.0081,-0.038,0.0056644051096426595,0.9739848185076937,0.00628448318432866,0.006358314433922527
0.132,-0.0171,-1.038,0.005607819270964426,0.9952959525498781,0.006078057342547385,0.007110787629576495
0.133,-0.0091,0.962,0.005616595966699449,0.9998150978670092,0.006110074837515736,0.007270353784604897
0.134,-0.0077,0.962,0.005620592357706154,0.9998150978670092,0.0061246537215071395,0.007270353784604897
0.135,-0.0066,-0.038,0.005621128867518167,0.9998150978670092,0.00612661091595995,0.007270353784604897
0.136,0.0021,0.962,0.005636206488275544,0.9998150978670093,0.006181614263610208,0.007270353784604901
0.137,-0.0012,-0.038,0.0056315852415397645,1.0007985993203234,0.006164755898164099,0.007305080161907992
0.138,-0.0004,-0.038,0.005628408622911964,0.9962839151772317,0.00615316755398508,0.0071456715261312195
0.139,0.0039,-0.038,0.005645299248266167,0.9917486792934113,0.00621478476490564,0.0069855372305189945
0.14,0.0032,-0.038,0.005628577314622027,0.9897627139485591,0.0061537829434370125,0.006915414932637479
0.14100000000000001,0.0039,-1.0379999999999723,0.005598586181327308,0.9851974589706215,0.006044374916959918,0.006754220695135899
0.14200000000000002,0.0046,-0.038000000000027755,0.0056121333336872905,0.9569195457118687,0.0060937950969019395,0.005755758027024485
0.14300000000000002,0.005,-1.0379999999999445,0.005621360318004004,0.9626415844979693,0.006127455250204799,0.005957797055192119
0.14400000000000002,-0.0001,0.9619999999999167,0.00556567498292812,0.9786023827091946,0.005924314456740983,0.00652135565378267
0.14500000000000002,0.002,-2.038,0.005543660145574683,0.977596551224179,0.005844004056850964,0.006485840827104703
0.14600000000000002,-0.0009,-1.038,0.005580350799025721,0.976589683790846,0.0059778520160056105,0.006450289422207137
0.14700000000000002,-0.0046,-0.038,0.005570381860553239,0.9821971358775471,0.0059414852047341635,0.006648282517403492
0.14800000000000002,-0.01,0.962,0.005597521590275854,0.9867762717489232,0.006040491275591642,0.006809966874305737
0.14900000000000002,-0.0053,0.962,0.005612638650462981,0.9923261629756905,0.006095638498771111,0.007005927557518137
0.15000000000000002,0.0037,-1.038,0.005602625604166581,0.9877727557315037,0.0060591107816105935,0.006845151650737909
0.15100000000000002,-0.0054,-0.038,0.005593350476171253,0.9877727557315037,0.0060252749995706395,0.006845151650737909
0.15200000000000002,0.0084,-0.038,0.005511511753669121,0.9867762717489231,0.005726726324187921,0.006809966874305733
0.15300000000000002,0.0101,-0.038,0.005379046972645642,0.9867762717489234,0.005243493159002683,0.00680996687430574
0.15400000000000003,0.0021,-0.038,0.005404118866480494,0.9923261629756908,0.00533495573887783,0.007005927557518146
0.15500000000000003,-0.0022,0.962,0.005402960080147687,0.9923261629756899,0.005330728471954129,0.007005927557518114
0.15600000000000003,0.0014,-0.038,0.005403243297832139,0.987772755731503,0.005331761653582004,0.006845151650737885
0.15700000000000003,0.0024,-0.038,0.005372258624698639,1.008792656319479,0.005218729181442279,0.007587341706717734
0.15800000000000003,-0.0008,-0.038,0.005559207260583276,1.0142220795681098,0.005900720125356523,0.007779048795339495
0.15900000000000003,0.0039,0.962,0.005570083248723981,1.0142220795681098,0.005940395865074977,0.007779048795339495
0.16000000000000003,-0.0081,-0.038,0.005597197988112571,1.0186572649542678,0.006039310770883782,0.007935650415611504
0.16100000000000003,-0.0096,0.962,0.0056557547817037545,1.0186572649542678,0.00625292668064889,0.007935650415611504
0.16200000000000003,-0.014,-0.038,0.005669449307658074,1.0240343874516429,0.0063028844812921,0.008125510821022756
0.16300000000000003,0.0008,0.962,0.005627606773007218,1.0284272572448232,0.0061502423955808625,0.008280618323271255
0.16400000000000003,-0.001,0.962,0.005596900889178079,1.0284272572448232,0.006038226950283482,0.008280618323271255
0.16500000000000004,0.0157,-0.038,0.0055971992152668605,1.0230732232859765,0.0060393152475578605,0.008091573149294193
0.16600000000000004,0.0001,0.962,0.005621770278389401,1.0433822054661759,0.006128950790778718,0.008808661441797264
0.16700000000000004,-0.0018,1.962,0.005603350101209427,1.0633033589536738,0.00606175375581458,0.00951205592076673
0.16800000000000004,0.0073,1.962,0.005636001637712943,1.068455818647415,0.006180866966215454,0.009693983724493793
0.16900000000000004,0.0025,1.962,0.0056408189543274605,1.063303358953674,0.00619844059701261,0.009512055920766737
0.17000000000000004,-0.008,-2.038,0.005662912366256559,1.0684558186474151,0.0062790376379298265,0.0096939837244938
0.17100000000000004,-0.0015,-1.038,0.005805994127592028,1.0642281896477233,0.0068010016790598414,0.009544710696735608
0.17200000000000004,-0.0003999999999994005,0.9619999999999722,0.005799331223052199,1.0651522173471613,0.006776695320605678,0.009577337119829403
0.17300000000000004,0.00499999999999899,-0.038,0.005811581633856454,1.0693761933390056,0.006821384971258636,0.00972648116381398
0.17400000000000004,-0.004100000000000123,-0.038,0.0056928528409314555,1.0693761933390056,0.006388260861133089,0.00972648116381398
0.17500000000000004,-0.0051999999999994,-0.038000000000027755,0.005691949657631736,1.0693761933390056,0.0063849660372463654,0.00972648116381398
0.17600000000000005,0.00020000000000027757,-1.038,0.005673818342199456,1.0744995328614966,0.006318822773522857,0.00990738076565018
0.17700000000000005,0.0026999999999997226,-1.038,0.005663101236961159,1.0702957765771697,0.00627972664060427,0.009758950657765894
0.17800000000000005,0.00020000000000007772,0.962,0.005654445248915267,1.0702957765771697,0.0062481494887839635,0.009758950657765894
0.17900000000000005,0.0009000000000003996,1.962,0.005665137269928913,1.0547898556778361,0.006287154114139706,0.009211453287256033
0.18000000000000005,0.004499999999999755,-1.038,0.005618300622325089,1.0547898556778361,0.006116293442394436,0.009211453287256033
0.18100000000000005,0.002300000000000311,-2.038,0.0056001491577526066,1.036604672051778,0.006050076674357402,0.00856935403483861
0.18200000000000005,0.005099999999999723,0.962,0.005685004192492852,1.040944495580923,0.00635962889422001,0.00872258853062311
0.18300000000000005,0.002599999999999589,0.962,0.0054216105329542835,1.039998959807902,0.005398765555262122,0.008689202680610533
0.18400000000000005,-0.0010999999999993118,-1.038,0.005410290076830627,1.040944495580923,0.005357468390825595,0.00872258853062311
0.18500000000000005,0.005099999999999156,0.962,0.005359172504893605,1.036604672051778,0.005170990853982553,0.00856935403483861
0.18599999999999994,-0.0025,-1.038,0.005320407942541626,1.054789855677835,0.005029577249418131,0.009211453287255995
0.18699999999999994,0.0,-0.038,0.00531645338434162,1.0505072312365205,0.0050151509720247475,0.009060238429672027
0.18799999999999994,0.0044,-0.038,0.005322403510386033,1.0505072312365205,0.005036857105681384,0.009060238429672027
0.18899999999999995,0.0051,1.962,0.005554424990563819,1.054789855677835,0.005883274344973107,0.009211453287255995
0.18999999999999995,0.0015,-0.038,0.005582242498936395,1.0590551621145687,0.005984752960757511,0.009362056664745872
0.19099999999999995,0.0065,1.962,0.005598175162511888,1.0590551621145687,0.006042875515220137,0.009362056664745872
0.19199999999999995,0.0036,-1.038,0.005608872602655589,1.059055162114569,0.006081899909629575,0.009362056664745879
0.19299999999999995,0.0022,-2.038,0.005602891339738979,1.0642281896477221,0.006060080188276726,0.00954471069673557
0.19399999999999995,-0.0026,0.962,0.0056020093539224615,1.07868690679002,0.006056862693071804,0.010055232430191218
0.19499999999999995,-0.0066,0.962,0.005739574182884552,1.0744995328614968,0.006558700896433452,0.00990738076565019
0.19599999999999995,-0.0041,-1.038,0.005788790934478323,1.0590551621145703,0.00673824421707336,0.009362056664745926
0.19699999999999995,-0.0055,0.962,0.005788397720747973,1.0538567422387952,0.006736809768504894,0.00917850605648019
0.19799999999999995,-0.0052,-1.038,0.005868552785894907,1.0717492368476231,0.007029216440960092,0.009810270774860522
0.19899999999999995,0.0013,-0.038,0.005789391710008976,1.0675346504553445,0.006740435853665366,0.009661458267526088
0.19999999999999996,-0.003,0.962,0.005800512750917829,1.0633033589536744,0.00678100554892336,0.009512055920766753
0.20099999999999996,-0.0023,0.962,0.005788838021059859,1.0581258100636306,0.006738415989507191,0.009329242244533754
0.20199999999999996,0.0027,0.962,0.005817523661050778,1.0581258100636306,0.006843061560209635,0.009329242244533754
0.20299999999999996,-0.0052,-1.038,0.0057584103991579145,1.0581258100636306,0.006627415647173706,0.009329242244533754
0.20399999999999996,0.0013,1.9619999999999445,0.005669625740028052,1.0623777231679241,0.006303528108767469,0.009479372717876822
0.20499999999999996,0.0006,-0.03800000000005551,0.0057483487664273586,1.0675346504553445,0.0065907106860983835,0.009661458267526088
0.20599999999999996,-0.0034,-2.0379999999999723,0.005758655662581935,1.0684558186474156,0.006628310371188482,0.009693983724493815
0.20699999999999996,-0.0146,-1.0379999999999445,0.005761532618285929,1.0684558186474156,0.006638805541302358,0.009693983724493815
0.20799999999999996,0.0035,0.962,0.005798866788605222,1.0735835503773663,0.006775001057979042,0.009875038410445984
0.20899999999999996,0.0056,0.962,0.005798622350089998,1.09295436598221,0.006774109343241794,0.01055900105137105
0.20999999999999996,0.0096,0.962,0.0058154683756950565,1.093854127659753,0.006835563853723952,0.01059077066736087
0.21099999999999997,0.0041,-1.038,0.005763216031990191,1.093854127659753,0.006644946655388239,0.01059077066736087
0.21199999999999997,-0.0039,0.962,0.0056926612655890645,1.0938541276597529,0.006387561991906418,0.010590770667360862
0.21299999999999997,0.0005,-0.038,0.005567121471182397,1.0979676904895366,0.005929591263844857,0.010736016141483621
0.21399999999999997,-0.0006,-0.038,0.005575135911805919,1.0938541276597529,0.005958828042706155,0.010590770667360862
0.21499999999999997,0.0055,-2.038,0.005584635969462357,1.0947531498365206,0.005993484370941423,0.010622514172374586
0.21599999999999997,0.0045,-2.038,0.005385719293532971,1.0947531498365206,0.005267833868409389,0.010622514172374586
0.21699999999999997,-0.0064,-1.038,0.005390657732136036,1.0947531498365206,0.005285849353724003,0.010622514172374586
0.21799999999999997,0.0073,-0.038,0.005390023739466518,1.081419558874508,0.005283536540597161,0.010151719432832882
0.21899999999999997,-0.0053,-1.038,0.005341400042340265,1.0636897427328327,0.005106156690015117,0.009525698715959
0.21999999999999997,-0.0133,-0.038,0.005345122295768704,1.0456593495368096,0.005119735516718703,0.008889064946951072
0.22099999999999997,0.0033,-1.038,0.005310390205471549,1.0307374408812322,0.004993032420257021,0.008362188419916285
0.22199999999999998,0.0055,0.962,0.005313630031379016,1.0297825331377919,0.005004851345376724,0.008328471655719743
0.22299999999999998,-0.0003,0.962,0.005313483960720581,1.0253954694628995,0.0050043184778018794,0.008173569161256087
0.22399999999999998,0.0051,-0.038,0.0052958519346420945,1.0253954694628995,0.004939996627837657,0.008173569161256087
0.22499999999999998,-0.0062,-1.038,0.005288454964544251,1.0297825331377923,0.004913012389117418,0.008328471655719758
0.22599999999999998,0.0015,-0.038,0.005263362870395134,1.035101863970421,0.004821476118245131,0.00851629149967765
0.22699999999999998,-0.0051,-1.038,0.005265490017668818,1.0351018639704213,0.004829235977899413,0.008516291499677659
0.22799999999999998,0.0036,0.962,0.00525860779218348,1.029782533137792,0.004804129533914055,0.00832847165571975
0.22899999999999998,-0.0018,-0.038,0.005260736862144757,1.0253954694628995,0.00481189640755654,0.008173569161256087
0.22999999999999998,-0.0044,-0.038,0.005261150165408949,1.0066794302426887,0.004813404142993792,0.007512725969423135
0.23099999999999998,-0.0127,0.962,0.005252267158202732,1.0012091050496856,0.004780998822459101,0.007319574677187937
0.23199999999999998,-0.0004,0.962,0.005250323559905472,0.9800265636990092,0.004773908551748828,0.006571641951005244
0.23299999999999998,-0.0084,-1.038,0.0052257264566560775,0.996696280355125,0.004684178013822024,0.007160231696536586
0.23399999999999999,0.0021,-0.038,0.005259724681240528,0.997682856298757,0.004808203959055803,0.007195066630782251
0.235,-0.0015,1.9619999999999445,0.005273813552005704,0.9976828562987569,0.004859600334463202,0.007195066630782248
0.236,-0.0004,-0.038,0.005249326518460809,0.9986684576130108,0.0047702713321844835,0.007229867151914036
0.237,0.0028,-0.037999999999972243,0.005246111836904957,0.9986684576130097,0.004758544133971535,0.007229867151913997
0.238,0.0159,0.962,0.005308142523311314,1.0031724104020172,0.004984832847840647,0.007388896875133348
0.239,0.0068,0.9619999999999722,0.0053066634138484595,1.0086320876470007,0.004979437038163026,0.0075816721997894595
0.24,0.0053,-0.038,0.005289124373265218,1.010580972108893,0.004915454400439496,0.007650485211621564
0.241,-0.0052,-1.038,0.005309599212222752,1.010580972108893,0.004990146867068445,0.007650485211621564
0.242,0.0038,-1.038,0.005272224971676092,1.010580972108893,0.004853805173705014,0.007650485211621564
0.243,0.0049,-2.038,0.005266949273750879,1.0096070001291844,0.0048345593621975,0.0076160953097703515
0.244,0.0125,-0.038,0.005264847314001367,0.9886044144303358,0.004826891386943998,0.006874516623881282
0.245,0.0078,0.962,0.005281080334675388,0.9886044144303358,0.004886109647829766,0.006874516623881282
0.246,-0.0006,-0.038,0.005245020516180306,0.9840337857362923,0.0047545629824237,0.006713132646250308
0.247,-0.0107,1.962,0.005267818275274793,0.9830335116321289,0.0048377294905418596,0.006677814044706165
0.248,-0.0028,-0.038,0.005288061548829256,0.9996530871806735,0.004911577203706461,0.007264633361720042
0.249,-0.0064,-0.038,0.005274586290041056,0.9986684576130094,0.0048624192924065675,0.007229867151913986
0.25,-0.0003,-0.038,0.005273458556788443,0.9986684576130094,0.004858305307504812,0.007229867151913986
0.251,-0.0079,-0.038,0.005265489677787424,0.9986684576130094,0.004829234738007869,0.007229867151913986
0.252,-0.0014,-0.038,0.0053151675121353315,0.9941440999525668,0.005010460094257333,0.007070116954655793
0.253,-0.0006,0.962,0.005372980895039126,0.9941440999525668,0.005221364032608424,0.007070116954655793
0.254,-0.0097,-1.038,0.00534812069274865,1.0096070001291844,0.005130673706114451,0.0076160953097703515
0.255,0.0041,-1.038,0.005354467973360151,0.9961213301741457,0.0051538286645608855,0.007139930824740325
0.256,0.0023,-0.038,0.005354284466739226,0.9961213301741457,0.005153159230130263,0.007139930824740325
0.257,0.007,-1.038,0.005351789066653532,0.9941440999525684,0.005144055979647405,0.007070116954655849
0.258,-0.0006,-2.038,0.0051585325870352715,0.9931540086974423,0.0044390539435066765,0.007035157898546539
0.259,0.0059,-1.038,0.005218205464481169,1.0076562319325213,0.004656741341025424,0.0075472157852918545
0.26,0.0023,-0.038,0.00521228515527374,1.0031724104020203,0.004635143979560158,0.007388896875133458
0.261,0.0034,0.962,0.005125749843769473,1.0031724104020203,0.004319462089208599,0.007388896875133458
0.262,-0.0074,0.962,0.005110173131050368,1.00219123849348,0.004262638047887755,0.007354252751547924
0.263,0.0031,-0.038,0.005154428130968886,0.9976828562987575,0.0044240808368363705,0.007195066630782271
0.264,-0.0034,-1.038,0.005156649838381867,0.9976828562987575,0.004432185653052388,0.007195066630782271
0.265,0.0053,-0.038,0.005170338047370796,0.9976828562987575,0.004482120409327452,0.007195066630782271
0.266,-0.0023,0.962,0.005143610941400173,0.9810299037411607,0.004384619595038286,0.006607068807518411
0.267,-0.0016,0.962,0.00512823088333553,0.9594019311819666,0.00432851295233759,0.005843408384993802
0.268,0.001,-0.038,0.0051070934260636315,0.9583759487158381,0.004251403245874128,0.0058071820488708875
0.269,0.0032,-0.038,0.005069733336574428,0.9630683547067833,0.004115113175743928,0.0059728658517282625
0.27,-0.0052,-1.038,0.005049582531897621,0.9630683547067833,0.00404160279019264,0.0059728658517282625
0.271,0.0024,0.962,0.004884264220514664,0.9687540756440628,0.0034385195385130455,0.006173622535760307
0.272,-0.0001,-0.038,0.004881149880751789,0.9687540756440627,0.0034271583884062135,0.0061736225357603034
0.273,0.0025,-0.038,0.004857173716874011,0.9687540756440627,0.0033396930450135046,0.0061736225357603034
0.274,-0.003,0.962,0.004890305749657157,0.9697690784695533,0.003460559111805876,0.006209461192594937
0.275,-0.0008,-1.038,0.004867474795108719,0.9744066206242313,0.003377271506259718,0.006373207812469929
0.276,-0.0015,-1.038,0.004850454648910207,0.9687540756440628,0.0033151818016916436,0.006173622535760307
0.277,-0.0,-0.038,0.004879357627498057,0.9687540756440628,0.003420620226293064,0.006173622535760307
0.278,-0.0015,-0.038,0.004942580557025078,0.9630683547067833,0.0036512582578632105,0.0059728658517282625
0.279,-0.0011,-0.038,0.004929685590703552,0.9630683547067833,0.0036042172606837123,0.0059728658517282625
0.28,0.0033,-0.038,0.004951587052685917,0.9687540756440628,0.0036841140658129684,0.006173622535760307
0.281,0.0018,-0.038,0.0049320071800667544,0.9733964535776933,0.0036126864474937672,0.006337539901783048
0.28200000000000003,0.0004,-2.0379999999999443,0.004821177579445126,0.9687540756440628,0.003208378688927264,0.006173622535760307
0.28300000000000003,-0.0065,-1.038,0.004821682589988183,0.983616112026247,0.0032102209736559898,0.006698385037290769
0.28400000000000003,-0.004,-1.038,0.004751239016168006,0.9780167956626709,0.0029532419420894747,0.006500679205717584
0.28500000000000003,0.0004,-1.038,0.004755538246549174,0.983616112026247,0.002968925587877439,0.006698385037290769
0.28600000000000003,-0.0017,-1.037999999999889,0.004758273433713207,0.9640893435342686,0.0029789035845980564,0.006008915867847728
0.28700000000000003,0.0081,0.9619999999998889,0.004763141056136249,0.9697690784695545,0.0029966607316090498,0.00620946119259498
0.28800000000000003,-0.0042,-1.0380000000000555,0.0047549554091501495,0.9744066206242324,0.0029667993898122393,0.0063732078124699686
0.28900000000000003,-0.0027,-2.038,0.004496053943513386,0.9697690784695545,0.002022323629960457,0.00620946119259498
0.29000000000000004,0.0049,-0.038,0.004482039204213775,0.9651092522585417,0.0019711976870594792,0.0060449277466858055
0.29100000000000004,-0.0016,1.962,0.004460191164305678,0.9707830200587533,0.00189149576632017,0.0062452623783188655
0.29200000000000004,-0.0027,0.962,0.004433363551607146,0.9651092522585417,0.0017936283022402094,0.0060449277466858055
0.29300000000000004,-0.0016,-0.038,0.004441965269124068,0.9594019311819679,0.0018250074744972824,0.005843408384993849
0.29400000000000004,0.0049,0.962,0.004429676913239129,0.9372750178453416,0.0017801793997190582,0.00506213090086692
0.29500000000000004,0.0024,-0.038,0.004305696254863671,0.9372750178453415,0.001327896419249684,0.005062130900866916
0.29600000000000004,0.0064,0.962,0.004279890343329451,0.9372750178453415,0.0012337561336973981,0.005062130900866916
0.29700000000000004,0.0071999999999996,-2.038,0.004313501860847421,0.9420725321532473,0.00135637136675326,0.005231525965217769
0.29800000000000004,0.003599999999999678,0.962,0.0041915400512931465,0.9276055549400752,0.0009114531718393596,0.004720712577553822
0.29900000000000004,0.0006999999999998335,-0.038,0.00419751022211762,0.9324528204238174,0.0009332324291024323,0.0048918643023524505
0.30000000000000004,-0.000800000000000755,0.962,0.004149482107786742,0.9324528204238173,0.0007580252719496553,0.004891864302352446
0.30100000000000005,-0.007600000000000078,-0.038,0.0041494695014864386,0.9372750178453378,0.0007579792840096936,0.005062130900866787
0.30200000000000005,-0.008299999999999001,0.962,0.004106571119306628,0.937275017845338,0.0006014854534087758,0.005062130900866791
0.30300000000000005,0.0006999999999996004,-2.038,0.004115779599887718,0.937275017845338,0.0006350781048544315,0.005062130900866791
0.30400000000000005,-0.0028999999999996333,-1.038,0.004115382359975937,0.9324528204238168,0.0006336289687261377,0.0048918643023524305
0.30500000000000005,0.0004000000000002887,-0.038,0.0040484048867139655,0.9265443643328574,0.0003892943150134999,0.004683243079880419
0.30600000000000005,0.002999999999999312,1.962,0.004167161062033898,0.9254819569274566,0.0008225183164556067,0.004645730618373401
0.30700000000000005,-0.0032000000000005995,0.962,0.004164364150436341,0.9303402868622441,0.0008123151482354342,0.004817273017024476
0.30800000000000005,-0.008599999999999601,1.962,0.004166351800524018,0.9244183285285783,0.0008195661204238745,0.004608175044901431
0.30900000000000005,-0.004999999999999267,-0.038,0.0041668604221931005,0.9014331032532954,0.0008214215785851564,0.0037965914904325646
0.31000000000000005,0.0015999999999999224,0.962,0.004180818127490341,0.9003410649093831,0.0008723394607376435,0.0037580327923926694
0.31100000000000005,0.0009000000000007661,0.962,0.004213387608109138,0.9053343194217316,0.0009911533302526727,0.003934339232593507
0.31200000000000006,0.007799999999999311,-0.038,0.0042103568592482075,0.9003410649093831,0.000980097120793574,0.0037580327923926694
0.31299999999999994,0.0016,-0.038,0.004171322823323028,0.8953199631425148,0.0008377004732896946,0.003580743095620066
0.31399999999999995,-0.0038,-0.038,0.004165193968476842,0.9014331032532953,0.0008153423347460005,0.0037965914904325606
0.31499999999999995,-0.0016,0.962,0.004151406774522747,0.8953199631425148,0.0007650464800895136,0.003580743095620066
0.31599999999999995,0.0021,-0.038,0.0041580753991468065,0.9014331032532953,0.0007893737054819395,0.0037965914904325606
0.31699999999999995,-0.0044,0.962,0.004186744744653475,0.9014331032532953,0.0008939598337036071,0.0037965914904325606
0.31799999999999995,0.0039,0.962,0.004191063905485444,0.9025238202505075,0.0009097161860234458,0.0038351035331432746
0.31899999999999995,0.0028,-1.038,0.004386675766265294,0.9075050649336444,0.001623310681874133,0.0040109859192065805
0.31999999999999995,0.0036,-1.038,0.004422945723544455,0.9075050649336445,0.0017556239361725418,0.004010985919206585
0.32099999999999995,0.0028,-1.038,0.004569085813831913,0.9064203420055807,0.0022887447992761276,0.003972685520623217
0.32199999999999995,-0.0026,0.962,0.004569620086795766,0.9075050649336445,0.002290693833679089,0.004010985919206585
0.32299999999999995,0.0057,-1.038,0.004571205479880227,0.9135366692802048,0.0022964773673274106,0.0042239553739804436
0.32399999999999995,-0.0019,0.962,0.004622556469912657,0.9362247874299603,0.002483806416279439,0.005025048395765564
0.32499999999999996,0.0047,-0.038,0.004612846508676866,0.9362247874299603,0.002448384357181588,0.005025048395765564
0.32599999999999996,-0.0055,-0.038,0.004634123224902652,0.9351733775720791,0.002526002082037165,0.004987924245819536
0.32699999999999996,0.0094,-0.038,0.004634753509645991,0.9351733775720791,0.002528301368603291,0.004987924245819536
0.32799999999999996,-0.0004,0.962,0.004668357703782431,0.9351733775720791,0.0026508898858724423,0.004987924245819536
0.32899999999999996,0.005,-1.038,0.004666177763460242,0.939981618373582,0.002642937436522,0.005157698051109243
0.32999999999999996,0.0003,0.962,0.004675207337697952,0.9447653886763985,0.002675877435406612,0.005326607829439647
0.33099999999999996,-0.0073,-0.038,0.004676788356696099,0.9447653886763985,0.002681645012333775,0.005326607829439647
0.33199999999999996,-0.0008,1.962,0.004751985135777335,0.949525058332593,0.002955963795684347,0.005494666639888893
0.33299999999999996,-0.0018,-0.038,0.004989276783926659,0.9474505915582659,0.003821606673143943,0.005421419451829074
0.33399999999999996,-0.0029,-1.038,0.004955184669835468,0.9416362462250251,0.0036972382178243183,0.005216121178875645
0.33499999999999996,-0.0022,-0.038,0.004945735971757328,0.9558908988408142,0.0036627692499681002,0.005719437613632611
0.33599999999999997,0.0022,-1.038,0.004950510847545386,0.9558908988408142,0.0036801880561036027,0.005719437613632611
0.33699999999999997,0.0,0.962,0.0050438546776441755,0.9548611438361065,0.004020707506788053,0.005683078073234655
0.33799999999999997,-0.0036,-0.038,0.005003489836212986,0.9501282056898175,0.0038734560642817105,0.005515963123616251
0.33899999999999997,0.0058,-0.038,0.005101205256033327,0.9443303468638498,0.00422992312852589,0.005311246971482317
0.33999999999999997,-0.0029,-1.038,0.005121415833845777,0.942244443364136,0.004303651567217846,0.005237595964963919
0.34099999999999997,-0.0018,-0.038,0.00511283429306028,0.942244443364136,0.0042723459999274216,0.005237595964963919
0.34199999999999997,0.0047,-0.038,0.005115894550104147,0.942244443364136,0.004283509855604096,0.005237595964963919
0.34299999999999997,-0.0036,-0.038,0.0051103502411554355,0.9432879716869577,0.004263284147749145,0.005274441826393662
0.344,-0.0069,-0.03799999999994449,0.005112954093602075,0.9432879716869577,0.004272783033790726,0.005274441826393662
0.345,-0.0062,0.962,0.0050905037390744905,0.9443303468638498,0.00419088386184424,0.005311246971482317
0.346,-0.0054,0.9619999999998889,0.005087070399173344,0.9501282056898168,0.004178358995273903,0.005515963123616228
0.347,-0.0033,-1.037999999999889,0.005051516364387919,0.9501282056898168,0.004048657435117914,0.005515963123616228
0.348,0.0036,0.9619999999999445,0.005002290621395637,0.927780146785135,0.0038690813137446456,0.004726877227606099
0.349,0.001,-0.03799999999994449,0.004993836735629882,0.9277801467851351,0.0038382414335505597,0.004726877227606103
0.35,0.0003,0.9619999999999445,0.005068432738146057,0.9336807827132348,0.00411036857653559,0.004935222328548123
0.351,-0.0052,-0.038,0.005086777341544492,0.9490921982445366,0.004177289917406735,0.005479382816274151
0.352,0.0031,-0.038,0.00505836307275385,0.9490921982445366,0.0040736343122108705,0.005479382816274151
0.353,-0.0002,-0.038,0.004990161500476204,0.9443303468638498,0.0038248341300968413,0.005311246971482317
0.354,0.0063,-0.038,0.005028162181176244,0.9267191561039098,0.003963461084914509,0.004689414789104221
0.355,0.0107,0.962,0.0050498780450166526,0.9267191561039098,0.0040426808257184605,0.004689414789104221
0.356,-0.0017,0.962,0.005058681756245684,0.9470167832785428,0.004074796873544242,0.005406102148587572
0.357,-0.0071,-0.038,0.005098235455747675,0.9315710338189946,0.00421908926022584,0.0048607293668252085
0.358,0.0009,-0.038,0.005146191738102464,0.9267191561039098,0.004394034373438341,0.004689414789104221
0.359,-0.0068,0.962,0.005083702577533015,0.9059668872363088,0.004166073140132175,0.003956674520990669
0.36,-0.0057,0.962,0.005079759639155867,0.9059668872363089,0.0041516892519967916,0.003956674520990673
0.361,0.003,-0.038,0.005078234202030577,0.9070521524407237,0.004146124438431637,0.003994994066768084
0.362,-0.0047,-0.038,0.005077463636088406,0.9020684067667495,0.004143313404311153,0.0038190233734113265
0.363,-0.0021,-1.038,0.005028895491578873,0.9070521524407229,0.003966136210364367,0.003994994066768057
0.364,0.0004,-0.038,0.005123113805507597,0.9070521524407229,0.004309845788913577,0.003994994066768057
0.365,0.0058,-1.038,0.005123734229319942,0.9120086644369095,0.004312109102681052,0.004170003168286781
0.366,-0.0054,0.962,0.005155182074645939,0.9070521524407223,0.004426831232727406,0.003994994066768037
0.367,0.0025,-1.038,0.005160814898939037,0.9120086644369094,0.004447379845657233,0.004170003168286777
0.368,0.013,0.962,0.005164385749260209,0.9120086644369095,0.0044604063519464564,0.004170003168286781
0.369,0.0065,-0.038,0.005160323206551712,0.9070521524407225,0.004445586145725912,0.003994994066768042
0.37,0.0126,0.962,0.005185210940809952,0.923973706599219,0.004536376909179985,0.004592475923335182
0.371,0.0025,-1.038,0.005202009152563141,0.9180106792665038,0.00459765699413711,0.004381927849077929
0.372,-0.0012,-1.038,0.005286312157255809,0.9120086644369095,0.0049051954015349435,0.004170003168286781
0.373,-0.0073,-2.038,0.005290228565907092,0.9130867486097363,0.004919482508901113,0.004208069159571201
0.374,0.0003,0.962,0.005267466801214316,0.9130867486097363,0.004836447308807119,0.004208069159571201
0.375,-0.0045,0.962,0.005367536154915084,0.9141635613857094,0.005201501553061614,0.004246090259201734
0.376,0.0017,-1.038,0.005558607158316453,0.9141635613857094,0.005898530944839321,0.004246090259201734
0.377,0.0056,-0.038,0.005532992899065638,0.9190817230943349,0.005805089809195483,0.0044197452533614465
0.378,0.0005,0.962,0.005452863394525406,0.9250378462340899,0.005512776382150763,0.004630049547999566
0.379,-0.0031,0.962,0.005476427685193759,0.926100763116038,0.00559873920696376,0.0046675799985748745
0.38,-0.0035,-0.038,0.005461386058104641,0.9201515202425934,0.0055438671646620245,0.004457518638731653
0.381,-0.0086,0.962,0.005463344070942939,0.9152391072523659,0.005551010019796902,0.004284066625628476
0.382,-0.0152,1.962,0.005418341234994996,0.9212200750545224,0.0053868391157316006,0.004495248158543788
0.383,-0.0029,-0.038,0.005418676647657847,0.9003410649093844,0.005388062705288467,0.0037580327923927128
0.384,0.0026,1.962,0.005415657185849555,0.9003410649093844,0.005377047671137478,0.0037580327923927128
0.385,-0.0022,-1.038,0.005516424250897638,0.9173864160764079,0.005744647175046228,0.00435988578802896
0.386,-0.0098,0.962,0.005551270314331135,0.9173864160764079,0.0058717660469238,0.00435988578802896
0.387,0.005,-0.038,0.005546951258983691,0.9163133906709059,0.005856010079412814,0.004321998416371603
0.388,0.0108,-0.038,0.0055480245554522445,0.934120784289092,0.005859925478250709,0.004950758310407305
0.389,0.0053,1.962,0.0055530170649377535,0.9399816183735831,0.005878138214815549,0.005157698051109283
0.39,0.0039,-0.038,0.005522954160470903,0.9599988731251283,0.005768468366211771,0.005864485762232464
0.391,0.0024,1.962,0.005529122626944514,0.9542609879703582,0.00579097100846393,0.005661887215850143
0.392,0.0013,-1.038,0.005528454049945438,0.9542609879703583,0.005788532031273636,0.005661887215850147
0.393,0.0023,-0.038,0.005625063193956792,0.9542609879703583,0.006140963387636717,0.005661887215850147
0.394,-0.001,-1.038,0.005618149800580101,0.9542609879703583,0.006115743242796881,0.005661887215850147
0.395,0.0015,-1.038,0.005577044982519611,0.9542609879703583,0.005965792356363054,0.005661887215850147
0.396,0.0022,0.962,0.005547609228268036,0.9552913899124541,0.005858410359528118,0.005698269598910669
0.397,0.0015,-0.038,0.00554295778145578,0.9703596428136934,0.005841441823828211,0.006230313383679406
0.398,-0.0021,0.962,0.00555831642018599,0.9646833849311227,0.005897470328531061,0.006029890829919515
0.399,0.0087,-1.038,0.005559763639656708,0.9657026662699415,0.005902749803121586,0.006065880556452755
0.4,0.0044,1.962,0.0055654754405907335,0.9657026662699415,0.005923586523817691,0.006065880556452755
0.401,0.0054,-0.038,0.005566711635023776,0.9806109505820965,0.005928096176451758,0.006592276022591697
0.402,-0.0007,-0.038,0.005542299988755707,0.9806109505820965,0.005839042187894525,0.006592276022591697
0.403,-0.0062,0.962,0.0055704590260087635,0.9851974589706223,0.005941766705273612,0.006754220695135927
0.404,-0.0055,-1.038,0.005597592151596565,0.9897627139485599,0.006040748684165331,0.006915414932637507
0.405,-0.003,1.962,0.005562712997092064,0.9897627139485599,0.005913509095650044,0.006915414932637507
0.406,-0.007,0.962,0.005482857909614581,0.990756194228188,0.005622196745456007,0.006950493651552754
0.40700000000000003,-0.0077,-0.038,0.005481960445418186,0.991748679293412,0.005618922784929188,0.006985537230519022
0.40800000000000003,0.0032,-0.038,0.005483266158198255,0.9972708990638296,0.005623686041355995,0.007180520864403748
0.40900000000000003,0.0046,-0.03800000000005551,0.005497177653192993,0.9972708990638296,0.005674435347751439,0.007180520864403748
0.41000000000000003,0.001,-1.0379999999999445,0.005464278034315907,0.9972708990638297,0.005554417129772847,0.007180520864403753
0.41100000000000003,-0.0001,-0.03799999999994449,0.005464278034315908,1.0385010635897238,0.00555441712977285,0.008636313578049429
0.41200000000000003,-0.0034,0.9619999999999445,0.005493593857257823,1.0385010635897238,0.0056613616157016825,0.008636313578049429
0.41300000000000003,-0.0099,-0.03799999999994449,0.005489534250365635,1.0385010635897238,0.005646552119375472,0.008636313578049429
0.41400000000000003,0.0039,0.9619999999999445,0.005485820334120225,1.0385010635897238,0.005633003706819049,0.008636313578049429
0.41500000000000004,-0.0059,-0.03799999999994449,0.0054864333963798384,1.0385010635897238,0.005635240165550793,0.008636313578049429
0.41600000000000004,0.0032,0.962,0.0054561220064918495,1.0375533010878446,0.005524663839046765,0.008602849104638564
0.41700000000000004,-0.0048,0.962,0.00543296185411723,1.0385010635897238,0.005440175315745043,0.008636313578049429
0.41800000000000004,-0.0033,-0.038,0.005432155323709218,1.0375533010878446,0.005437233082806821,0.008602849104638564
0.41900000000000004,0.0058,-2.038,0.005291147878676212,1.0533129935191816,0.0049228361732923925,0.009159306874687682
0.42000000000000004,-0.0055,-0.038,0.005251190025494965,1.0585140837776748,0.004777069428972944,0.00934295177129178
0.42100000000000004,-0.0098,-0.038,0.005112828342557815,1.0542465882302121,0.004272324292420578,0.009192271098659254
0.42200000000000004,-0.0032999999999993117,-1.038,0.005161408900177123,1.0669978721051798,0.004449546769545882,0.009642505201973278
0.42300000000000004,0.0029000000000008437,-1.038,0.0051880816324523646,1.0618383379015985,0.00454684922791947,0.00946032760492144
0.42400000000000004,0.010500000000000523,-1.038,0.005138226741628372,1.0471470062022226,0.004364977967447809,0.008941592501929769
0.42500000000000004,0.015199999999998468,-0.038,0.0051393402455531855,1.0480860933515819,0.004369040043585154,0.00897475065798459
0.42600000000000005,0.0013999999999998,0.962,0.0051200151925634135,1.0437759636609443,0.004298542010436518,0.008822564619664094
0.42700000000000005,-0.0003999999999993894,-1.038,0.0051545388667667245,1.0385010635897205,0.004424484802401221,0.008636313578049311
0.42800000000000005,0.005099999999999112,-1.038,0.0051691617363537066,1.0385010635897205,0.004477829212137993,0.008636313578049311
0.42900000000000005,-0.0028999999999995115,-0.038,0.0051740041746557094,1.0394479619277173,0.0044954944871628795,0.008669747538763999
0.43000000000000005,0.0014999999999996004,-0.038,0.00517027050972827,1.0403939984613464,0.004481874031169314,0.00870315107009444
0.43100000000000005,-0.0020999999999998776,-1.038,0.005159151460699297,1.0403939984613464,0.004441311602313843,0.00870315107009444
0.43200000000000005,-0.000999999999999889,-0.038,0.005086856532409609,1.0413391755394072,0.004177578806665514,0.008736524254974207
0.43300000000000005,1.2101430968414195e-15,-0.038,0.004934937404036472,1.0229148962605816,0.0036233759409021126,0.008085982792510672
0.43400000000000005,0.010899999999999523,-2.038,0.00507257249379973,1.0229148962605816,0.0041254704565384225,0.008085982792510672
0.43500000000000005,0.006599999999999278,-0.038,0.005096711548584311,1.0096070001291853,0.004213530027980777,0.007616095309770383
0.43600000000000005,0.00010000000000011103,0.962,0.0051012983126160856,1.004152623593894,0.004230262600094714,0.007423507147465815
0.43700000000000006,0.0010999999999994005,-2.038,0.005021210578342654,1.0184982514619985,0.003938101551501692,0.007930035820421817
0.43800000000000006,-0.0042999999999994674,-1.038,0.004997803190987758,1.0229148962605816,0.003852711111923504,0.008085982792510672
0.43900000000000006,0.0004999999999995115,1.962,0.004891800560187471,1.0282697546029196,0.0034660121991724564,0.008275057074581132
0.44000000000000006,-0.003899999999999389,-0.038,0.004919210013585823,1.015032067448711,0.0035660022253465465,0.007807648595225811
0.44100000000000006,0.0016000000000010882,-0.038,0.004939264716130062,1.015032067448711,0.0036391620291255106,0.007807648595225811
0.44199999999999995,0.0114,-0.038,0.004937489815894122,1.0016194425365657,0.0036326871710366327,0.007334063252006999
0.44299999999999995,0.0023,-0.038,0.005084132679442399,1.015032067448711,0.004167642157235574,0.007807648595225811
0.44399999999999995,-0.0013,-0.038,0.005088983019578654,1.0194637289819841,0.00418533625824988,0.007964125792046866
0.44499999999999995,-0.0024,-1.038,0.005256641078493848,1.0326446073029174,0.004796954937965526,0.008429528412669779
0.44599999999999995,-0.0049,1.962,0.005257990896677235,1.0326446073029174,0.004801879091451025,0.008429528412669779
0.44699999999999995,0.0053,-0.038,0.005312360528834326,1.0465997715232143,0.005000220184337981,0.008922270234664641
0.44799999999999995,-0.0038,-1.038,0.005311642417761172,1.0518340577257406,0.004997600506230688,0.009107087244307865
0.44899999999999995,-0.0027,-0.038,0.005340244166856255,1.047539349251926,0.005101940041903954,0.008955445712548154
0.44999999999999996,-0.0012,1.962,0.005319492231752374,1.042283495500047,0.0050262367250941105,0.008769867175960764
0.45099999999999996,-0.0001,-0.038,0.005337569285172773,1.023876209055812,0.005092182040324834,0.008119925712189098
0.45199999999999996,0.0064,0.962,0.005334789284297274,1.0238762090558118,0.005082040562628607,0.00811992571218909
0.45299999999999996,-0.0055,0.962,0.005349359972255749,1.0292260658911883,0.005135194613136964,0.008308823396434257
0.45399999999999996,-0.0008,-0.038,0.0053153487746972206,1.024836620124986,0.005011121342332742,0.008153836792891438
0.45499999999999996,-0.0051,-1.038,0.005294626325776793,1.0238762090558118,0.004935525591486087,0.00811992571218909
0.45599999999999996,0.0014,-1.038,0.005322407904136527,1.0238762090558118,0.005036873134137719,0.00811992571218909
0.45699999999999996,-0.0072,-1.038,0.005330392121332271,1.0194637289819841,0.005065999657559382,0.007964125792046866
0.45799999999999996,-0.004,-0.038,0.005276513915775634,1.0248366201249859,0.004869451295009944,0.008153836792891429
0.45899999999999996,-0.0032,0.962,0.00527488035225904,1.0248366201249859,0.004863492035027359,0.008153836792891429
0.45999999999999996,-0.0057,-3.038,0.0052567024548717586,1.0248366201249859,0.004797178839753882,0.008153836792891429
0.46099999999999997,-0.0064,-0.038,0.005314679442796023,1.0379492705480118,0.00500867961125014,0.00861683035990558
0.46199999999999997,-0.0042,-0.038,0.005346317560798498,1.0379492705480118,0.005124095858381745,0.00861683035990558
0.46299999999999997,-0.0006,-1.038,0.005335596345819414,1.033596870869152,0.005084984733077761,0.008463151813816384
0.46399999999999997,-0.0009,-0.038,0.0052603148556639116,1.033596870869152,0.004810356922676922,0.008463151813816384
0.46499999999999997,-0.0006,0.962,0.005276684425232371,1.0345482579122194,0.004870073315624303,0.008496744265873771
0.46599999999999997,-0.002,-1.038,0.005253926643393468,1.0398432099064552,0.004787052645030666,0.008683703319298625
0.46699999999999997,-0.0023,0.962,0.005248874807598807,1.0398432099064552,0.0047686234853537455,0.008683703319298625
0.46799999999999997,0.0042,-2.038,0.005286035594728136,1.0354987708480936,0.004904186498001595,0.00853030585414739
0.469,-0.0001,-1.0379999999999445,0.005319202122588537,1.0354987708480936,0.005025178403263908,0.00853030585414739
0.47,0.0039,-0.03799999999988898,0.005332525260893095,1.0150320674487128,0.005073781377151519,0.007807648595225874
0.471,0.0075,1.961999999999889,0.005306140612305244,1.0204282930164963,0.00497752985164492,0.007998183509483468
0.472,0.0054,-0.03800000000005551,0.005222798586790318,1.0257961320008535,0.004673497108214133,0.008187716124046349
0.473,0.0014,-1.038,0.005230085988136903,1.040788887175139,0.00470008163876993,0.008717094165370693
0.474,-0.0011,-1.0379999999999445,0.00525002349269599,1.040788887175139,0.004772813902844524,0.008717094165370693
0.475,-0.0007,-0.038,0.0051766269123780274,1.0354987708480934,0.004505062266924519,0.008530305854147383
0.476,0.0062,-0.038,0.00495095495760126,1.0398432099064552,0.0036818081750992506,0.008683703319298625
0.477,-0.0068,-0.03800000000005551,0.004975297816766534,1.0354987708480936,0.0037706112274517754,0.00853030585414739
0.478,0.0023,-1.038,0.0049912539586740075,1.0484780849926507,0.0038288194311608555,0.008988591460742474
0.479,-0.0024,-1.0379999999999445,0.004965725264018892,1.0868642514999562,0.003735690436224061,0.010343965666708324
0.48,-0.0009,-0.038,0.004990912784362279,1.0868642514999562,0.003827574823037379,0.010343965666708324
0.481,0.0002,-1.038,0.004999529634263838,1.0868642514999562,0.0038590091984214148,0.010343965666708324
0.482,0.0089,-0.038,0.005011001191040345,1.0817994721523985,0.0039008575799148425,0.010165133761592665
0.483,0.0121,-0.038,0.005011212465374069,1.0868642514999562,0.00390162831130638,0.010343965666708324
0.484,0.0056,-1.038,0.0050495278429678655,1.0868642514999562,0.004041403284298151,0.010343965666708324
0.485,0.0031,-0.038,0.00493914226945566,1.0715981016549554,0.0036387153421376136,0.009804934353946583
0.486,0.0039,1.962,0.004908248657333779,1.0715981016549554,0.0035260150616984276,0.009804934353946583
0.487,-0.0012,0.962,0.004934575266077513,1.0725157798136156,0.003622054857133361,0.009837336581592563
0.488,-0.0034,-1.038,0.005043688533641864,1.0706796369557983,0.0040201014114056195,0.009772504354402585
0.489,-0.0074,-1.038,0.005041075955967791,1.0655379306962507,0.004010570695626072,0.009590956242857827
0.49,-0.0059,-0.038,0.005045673154265881,1.0475393492519276,0.0040273413320730264,0.008955445712548207
0.491,0.002,-1.038,0.005032772506618466,1.0475393492519276,0.003980279609346178,0.008955445712548207
0.492,0.0122,1.962,0.005056131658662125,1.0475393492519276,0.004065494085910328,0.008955445712548207
0.493,0.0032,0.962,0.004934617457646002,1.0475393492519276,0.0036222087724988453,0.008955445712548207
0.494,-0.0132,1.962,0.004934163241099488,1.0475393492519276,0.003620551784899908,0.008955445712548207
0.495,-0.0019,-1.038,0.004932596675302281,1.0518340577257421,0.003614836933429155,0.00910708724430792
0.496,0.0079,1.962,0.004933613770273117,1.0646142377752346,0.0036185473085058617,0.009558341640429626
0.497,-0.0012,-1.038,0.00496928898903898,1.046599771523216,0.0037486909493264966,0.008922270234664704
0.498,-0.0059,-0.038,0.004944283905130087,1.0518340577257421,0.003657472092890423,0.00910708724430792
0.499,-0.0073,-0.038,0.0049492674158510145,1.0518340577257421,0.0036756520018503863,0.00910708724430792
0.5,-0.0062,-0.038,0.004943093056923107,1.056111301782368,0.003653127863851821,0.009258112126302013
0.501,-0.0051,-0.038,0.004955512575124681,1.043226960670833,0.003698434420388978,0.008803179915238003
0.502,-0.004,-1.038,0.004959175207577103,1.0475393492519276,0.0037117957490321006,0.008955445712548207
0.503,-0.0015,-0.038,0.0049190676431514644,1.0475393492519276,0.0035654828562350573,0.008955445712548207
0.504,0.0029,0.962,0.004906925483401532,1.0484780849926507,0.003521188106771766,0.008988591460742474
0.505,-0.0062,1.962,0.0049326046816470315,1.0484780849926507,0.0036148661406741702,0.008988591460742474
0.506,0.0076,-0.038,0.004940140520827531,1.043226960670833,0.0036423569755314323,0.008803179915238003
0.507,-0.0015,-1.038,0.004938689556176694,1.037949270548013,0.003637063838477351,0.008616830359905618
0.508,-0.0029,-0.038,0.004889454755863203,1.032644607302919,0.003457454675883906,0.008429528412669833
0.509,0.0014,-0.038,0.004927240351728179,1.032644607302919,0.0035952969985538546,0.008429528412669833
0.51,0.0079,1.962,0.004930618050946784,1.0465997715232158,0.0036076188872237245,0.008922270234664695
0.511,-0.0058,-0.038,0.00489920678863054,1.0057016798211282,0.0034930302124509803,0.007478202654858679
0.512,-0.0004,-0.038,0.004864559634243181,1.0101742748435476,0.003366636963242365,0.007636125169105179
0.513,0.0043,-0.038,0.004969395344021014,1.0146271543361804,0.003749078933620921,0.007793351549224179
0.514,0.0057,-1.038,0.004997300231252315,1.0146271543361804,0.003850876308566407,0.007793351549224179
0.515,-0.0033,-1.038,0.00499789389988501,1.0200255220119163,0.0038530420191064613,0.007983962099006994
0.516,-0.0022,0.962,0.005007074823041691,1.0200255220119143,0.0038865341407258586,0.007983962099006925
0.517,0.0079,-0.038,0.005004710069386531,1.0200255220119132,0.0038779074900430364,0.007983962099006885
0.518,0.0068,-0.038,0.005044193700203988,1.015596311924688,0.004021944265293836,0.007827571460106117
0.519,-0.0069,-0.038,0.00505470538744682,1.000226007238201,0.004060291030815537,0.0072848625520432145
0.52,-0.0015,-1.038,0.005132599825332312,0.9947201929770617,0.0043444509069645,0.0070904581790260015
0.521,-0.0029,-1.038,0.005145287662139936,0.9947201929770618,0.004390736293106611,0.007090458179026005
0.522,-0.0043,-2.038,0.005113906381182548,0.9754157415148843,0.004276256990703068,0.006408838784518988
0.523,-0.0054,-1.038,0.005139092366276837,0.9754157415148843,0.0043681357769086195,0.006408838784518988
0.524,0.0058,-0.038,0.0051722297562138975,0.9697690784695497,0.00448902138666496,0.006209461192594811
0.525,0.0015,0.962,0.005229408073714882,0.9697690784695491,0.004697608598544847,0.006209461192594788
0.526,-0.0051,-0.038,0.0052343928272093575,0.9697690784695492,0.004715793041158138,0.006209461192594792
0.527,-0.004,1.962,0.0052114572574132765,0.9911708591531376,0.004632123797890204,0.006965135023550361
0.528,-0.0007,-3.038,0.005167146764129917,0.9957087268850349,0.004470478568457924,0.00712536224688426
0.529,0.0058,-0.038,0.0051622978933113526,0.9947201929770566,0.004452789827532787,0.007090458179025821
0.53,0.0033,-0.038,0.005221602326587431,1.0082246042416627,0.004669133136147298,0.007567284399516432
0.531,0.004,-0.038,0.005236817643511029,1.008224604241663,0.004724638801120868,0.0075672843995164395
0.532,-0.0011,-1.038,0.005237136481273902,1.0072483537437793,0.0047258019252369035,0.0075328140456419265
0.533,-0.0062,-0.038,0.005165016854122938,1.0072483537437793,0.004462708630318292,0.0075328140456419265
0.534,0.0029,0.962,0.005142902329844484,1.0072483537437793,0.0043820345712886006,0.0075328140456419265
0.535,-0.0036,-0.038,0.0051124263693982114,1.0017811352187669,0.004270857889345481,0.007339772446508286
0.536,0.0051,-1.038,0.005104749806707168,1.0072483537437793,0.004242853693375245,0.0075328140456419265
0.537,0.0105,1.962,0.005113512002742757,0.9937306757052484,0.004274818293260108,0.007055519389649412
0.538,0.004,-0.038,0.005297459021906345,0.9891837337304742,0.004945859302123095,0.006894971764570478
0.539,-0.0022,-0.038,0.005286709001333601,0.9836161120262364,0.004906643093655937,0.006698385037290397
0.54,-0.0015,-0.038,0.005286464930452344,0.9836161120262364,0.004905752720051963,0.006698385037290397
0.541,-0.0051,-0.038,0.005254096095242176,0.9836161120262364,0.0047876708074778085,0.006698385037290397
0.542,0.0029,-0.038,0.0052572144451648725,0.9780167956626602,0.004799046586697439,0.006500679205717208
0.543,0.0022,-0.038,0.005245845108751657,0.9583759487158272,0.004757571106357951,0.005807182048870503
0.544,-0.0004,0.962,0.005245951471547018,0.9536604544156763,0.004757959119155489,0.005640683022676075
0.545,-0.0026,1.962,0.005101585738550822,0.9393719561677206,0.004231311133471855,0.0051361715350915675
0.546,-0.0077,-0.038,0.005143280221503326,0.9383240727785183,0.004383413124750046,0.005099171900957363
0.547,0.0017999999999993117,-1.038,0.005086754868103735,0.9237983953621711,0.004177207934015937,0.004586285872326432
0.548,-0.004399999999999634,-1.038,0.005085812413529776,0.9178342290601119,0.0041737698480333926,0.0043756975822880585
0.549,-0.0011000000000002887,0.962,0.0050546090856358975,0.9178342290601119,0.004059939720614097,0.0043756975822880585
0.55,-0.0036999999999998002,-1.038,0.005002143504065796,0.9178342290601119,0.003868544627899522,0.0043756975822880585
0.551,-0.001899999999999911,0.962,0.004967130949071269,0.9237983953621711,0.0037408183927409968,0.004586285872326432
0.552,-0.0010999999999994005,0.962,0.005011832526146565,0.9297243024214621,0.003903890300699976,0.004795523269699398
0.553,0.0043000000000000885,-1.038,0.005001106762450168,0.9441588154516262,0.0038647625816187812,0.005305190382018076
0.554,0.005100000000000078,-0.038,0.005096090022408493,0.9441588154516262,0.0042112626927776715,0.005305190382018076
0.555,0.005799999999999278,-0.038,0.0050986286960592285,0.9441588154516263,0.004220523805762866,0.005305190382018079
0.556,-0.0006999999999997114,-0.038,0.0051330920483076675,0.9237983953621711,0.004346246542487543,0.004586285872326432
0.557,0.0019000000000005996,-0.038,0.005164931327720696,0.9297243024214621,0.004462396628941451,0.004795523269699398
0.558,0.0072999999999996,-0.038,0.005169314018485464,0.9237983953621711,0.004478384739244609,0.004586285872326432
0.559,0.003699999999999445,1.962,0.005319685371589578,0.9237983953621711,0.005026941301617277,0.004586285872326432
0.56,-0.0012999999999995559,0.962,0.005326842970464615,0.9237983953621711,0.005053052311145896,0.004586285872326432
0.561,0.0027000000000009217,0.962,0.0052696495938369895,0.9029790040485031,0.004844410163385125,0.003851175582918273
0.562,0.01099999999999819,0.962,0.005271693213126883,0.9029790040485031,0.004851865311917881,0.003851175582918273
0.5630000000000001,-0.005299999999999278,-1.038,0.0053244973329718785,0.9090406399010874,0.005044495396460843,0.004065205417832552
0.5640000000000001,0.0012000000000002109,-1.037999999999778,0.005309613978725176,0.9318382324580177,0.004990200735452552,0.004870163863055304
0.5650000000000001,0.0030999999999998,0.9619999999997779,0.005282778223060628,0.9462404988967795,0.004892303565731503,0.005378692382954012
0.5660000000000001,0.0012999999999991118,-1.037999999999889,0.005281460954814583,0.9404186719291967,0.004887498154821403,0.005173129941548033
0.5670000000000001,-0.006699999999999845,-0.03800000000011102,0.005306380100335865,0.9356126772080562,0.004978403506952896,0.0050034354429373895
0.5680000000000001,-0.0053000000000004,-1.037999999999889,0.0052489637624085865,0.9356126772080563,0.004768947993603833,0.005003435442937394
0.569,-0.0089,-0.038,0.005230669131505204,0.9414642239574367,0.004702208953014845,0.005210047257837015
0.57,-0.0053,-0.038,0.005219544293773847,0.9462404988967796,0.004661625406901234,0.005378692382954016
0.571,0.0049,-0.038,0.005219004479940758,0.9462404988967795,0.0046596561593385336,0.005378692382954012
0.572,-0.0074,-0.038,0.00521947114250022,0.9604268176359769,0.004661358550147167,0.0058795960221089865
0.573,-0.006,-0.03800000000011102,0.005202012481378984,0.9431162506903981,0.004597669137698618,0.005268378542910656
0.574,0.0078,-1.037999999999889,0.005174051130610673,0.937275017845329,0.004495665783069354,0.005062130900866473
0.575,0.0024,-0.038000000000222044,0.005155497437922703,0.9431162506903982,0.004427981681874992,0.005268378542910661
0.576,0.0038,-2.0379999999996667,0.005172874513947407,0.9583759487158272,0.004491373470878849,0.005807182048870503
0.577,-0.0006,0.962,0.005162404623709195,0.9583759487158271,0.0044531791813487405,0.0058071820488705
0.578,0.0005,0.962,0.0051851254119921,0.9441588154516262,0.004536064898990969,0.005305190382018076
0.579,-0.0082,1.962,0.005192243417334447,0.8997045416781633,0.004562031470820943,0.003735557842492964
0.58,0.0041,-0.038,0.005174628783457279,0.9205979881781242,0.0044977730678229825,0.004473282940788076
0.581,-0.0006,0.962,0.005214222269947607,0.9205979881781242,0.004642210597931827,0.004473282940788076
0.582,-0.002,-0.038,0.005199280330969052,0.9254819569274475,0.004587702219094649,0.004645730618373079
0.583,-0.0111,-0.038,0.0052221734923302895,0.9254819569274475,0.004671216755865945,0.004645730618373079
0.584,0.0001,-0.038,0.005466400226557378,0.9254819569274475,0.005562158913408118,0.004645730618373079
0.585,-0.0013,-1.038,0.005466938265646856,0.9265443643328483,0.005564121686684103,0.0046832430798800975
0.586,-0.0049,-1.038,0.005455235934712014,0.9265443643328483,0.005521431438196946,0.0046832430798800975
0.587,0.0139,-0.038,0.005570980724966327,0.9254819569274475,0.005943669869545576,0.004645730618373079
0.588,0.0005,-0.038,0.0054725997326341355,0.9107514821927626,0.005584774788517788,0.004125613416953036
0.589,0.0074,-1.038,0.0054583651319063745,0.9156879703681609,0.005532846788398233,0.004299915498920946
0.59,0.0009,-0.038,0.005455195420127457,0.9216660253672768,0.005521283640489659,0.004510994183897341
0.591,0.0027,-0.038,0.00545314866816544,0.927605554940065,0.00551381706393012,0.004720712577553462
0.592,0.0117,-0.038,0.005431853970393792,0.927605554940065,0.005436133742172069,0.004720712577553462
0.593,-0.0032,-0.038,0.005427807520933022,0.9324528204238077,0.005421372244318966,0.00489186430235211
0.594,-0.005,-1.038,0.005426073581171959,0.937275017845329,0.0054150468105507955,0.005062130900866473
0.595,-0.0068,0.962,0.005629208584280464,0.954691504515997,0.0061560858229856375,0.005677088291505598
0.596,-0.0021,-1.038,0.005631111155058636,1.0184982514619898,0.0061630264247970875,0.007930035820421512
0.597,-0.0007,-0.038,0.005658269502280874,1.0238762090558031,0.0062621004125242505,0.008119925712188784
0.598,-0.0018,-0.038,0.005667467023874124,1.0238762090558031,0.006295653085446256,0.008119925712188784
0.599,-0.0008,-0.038,0.005675177476988268,1.0370010037374249,0.006323780914100576,0.008583348079897276
0.6,-0.0019,-1.038,0.005687541438765123,1.0326446073029087,0.00636888480011085,0.008429528412669472
0.601,-0.0084,-1.038,0.005680545831432521,1.031691464786384,0.006343364737739501,0.008395873976734558
0.602,-0.0023,1.962,0.005746809680065473,1.0326446073029087,0.006585096079948727,0.008429528412669472
0.603,-0.0099,-0.038,0.005941065780705671,1.0335968708691425,0.007293744745983714,0.008463151813816046
0.604,-0.0033,0.962,0.0059269924122933495,1.0326446073029087,0.007242404923351925,0.008429528412669472
0.605,0.0086,-0.038,0.005919240949691936,1.0326446073029087,0.007214127491579084,0.008429528412669472
0.606,-0.0095,-1.038,0.005891156877670346,1.0379492705480027,0.007111676448294772,0.008616830359905257
0.607,-0.0026,-0.038,0.005902918321834653,1.0432269606708229,0.0071545823425766646,0.008803179915237642
0.608,0.0129,-0.038,0.005919310690898306,1.063151023114396,0.007214381908365474,0.009506677106313817
0.609,0.0031,-0.038,0.005875690478188502,1.0683042175281996,0.0070552548310325505,0.009688630852215158
0.6100000000000001,0.0013000000000010436,-0.038,0.005975950882111154,1.054636290115171,0.007421006028867589,0.009206031052594455
0.611,0.006,-0.038,0.0059793712668678445,1.0555687144409855,0.007433483634910164,0.0092389539515243
0.6120000000000001,0.007499999999997979,-1.038,0.006003457147648295,1.0565003158472313,0.0075213492269255115,0.00927184779405027
0.613,-0.0016,-2.038,0.005916147466301523,1.0522246531157933,0.0072028424257778376,0.009120878746945824
0.6140000000000001,0.002000000000000244,1.962,0.005949185364559943,1.0522246531157933,0.007323365088655713,0.009120878746945824
0.615,0.0031,-0.038,0.005948072633179985,1.0469923196400746,0.0073193058307715895,0.00893613068598352
0.6160000000000001,0.005599999999999045,-0.038,0.005941228773858649,1.0479315454093423,0.007294339347028674,0.008969293736558045
0.617,0.0013,-0.038,0.005939832369813001,1.0479315454093434,0.0072892452477394745,0.008969293736558085
0.6180000000000001,0.005199999999997513,-1.038,0.00590302728241834,1.0479315454093434,0.00715497983213826,0.008969293736558085
0.619,-0.006,0.962,0.005895484692138855,1.0479315454093443,0.0071274643691881115,0.008969293736558116
0.6200000000000001,-0.0012999999999990452,-1.038,0.005839464252364568,1.053159212609076,0.006923101109625561,0.009153877036339866
0.621,0.003,1.962,0.005831839453629706,1.057431096508901,0.006895285749209913,0.009304712656969026
0.6220000000000001,-0.0005999999999997557,0.962,0.005866216900443591,1.0616857918540046,0.007020695101843171,0.009454941368239236
0.623,0.0005,-0.038,0.00582026791646834,1.0616857918540048,0.006853072638031672,0.009454941368239244
0.6240000000000001,0.0038000000000001553,-1.038,0.00579452642723212,1.0616857918540046,0.00675916736582203,0.009454941368239236
0.625,0.0045,1.962,0.005829908702209614,1.0565003158472386,0.00688824234406699,0.009271847794050528
0.6260000000000001,-0.003899999999997735,-0.038,0.005836062562888358,1.0616857918540055,0.006910691704198203,0.009454941368239267
0.627,0.0063,-1.038,0.005841805093106535,1.0417337059661536,0.006931640525704274,0.008750454699520653
0.6280000000000001,-0.002800000000000244,-1.038,0.005843144531465185,1.0417337059661536,0.00693652681346031,0.008750454699520653
0.629,-0.0039,1.962,0.005844188090428588,1.0373971840068434,0.006940333729510346,0.008597336778611962
0.6300000000000001,-0.007199999999998534,-0.038,0.0057981246790006135,1.0189016261955972,0.0067722938329311585,0.007944278547919861
0.631,-0.0006,0.962,0.005813776177709778,1.0242774658769882,0.0068293906944718995,0.008134093658480024
0.6320000000000001,-0.005000000000002731,-1.038,0.005818373514060849,1.038345089006556,0.006846161834537843,0.008630806283467882
0.633,-0.0173,-0.038,0.005825376497783335,1.038345089006556,0.006871708806071035,0.008630806283467882
0.6339999999999999,0.003,-1.038,0.005724806119177677,1.038345089006556,0.006504826816745316,0.008630806283467882
0.635,0.0005,-0.038,0.005724830797994075,1.038345089006556,0.006504916845373822,0.008630806283467882
0.6359999999999999,0.0124,0.962,0.00574790267194647,1.0373971840068434,0.006589083327895652,0.008597336778611962
0.637,0.0012,-1.038,0.0057454184196306605,1.052224653115807,0.00658002074461569,0.00912087874694631
0.6379999999999999,-0.0006,0.962,0.005575174374791585,1.052224653115807,0.005958968356155226,0.00912087874694631
0.639,0.0012,-1.038,0.005585988432662624,1.056500315847244,0.0059984181734813275,0.009271847794050716
0.6399999999999999,-0.0002,-1.038,0.005539158608270492,1.051289262832059,0.005827582392896995,0.009087851123235513
0.641,-0.0017,-0.038,0.005538776005153806,1.056500315847245,0.005826186651978862,0.009271847794050755
0.6419999999999999,0.002,0.962,0.005542618296408176,1.0761786672593094,0.005840203378161225,0.009966669193180771
0.643,-0.0017,0.962,0.005430470743931365,1.0761786672593094,0.005431087714870005,0.009966669193180771
0.6439999999999999,0.015,-2.038,0.005438079100411665,1.081269775358294,0.005458843093736946,0.010146430738159072
0.645,0.003,-4.038,0.005416063208185407,1.081269775358294,0.005378528845657781,0.010146430738159072
0.6459999999999999,0.0095,-1.038,0.005400249676068861,1.0821792520567386,0.005320840884235926,0.010178543381075997
0.647,0.0037,-1.038,0.00539671111928493,1.0964012663351999,0.005307932185171354,0.010680707391286182
0.6479999999999999,-0.0053,1.962,0.005417474678927003,1.1013989014252623,0.005383677908440795,0.010857168504969188
0.649,-0.0039,-0.038,0.005414542487516816,1.1185311500275985,0.0053729812377851975,0.011462089755477016
0.6499999999999999,-0.0024,0.962,0.005457841512576133,1.1185311500275985,0.005530936618582908,0.011462089755477016
0.651,-0.0089,-1.038,0.005456589065556297,1.11361040330212,0.005526367676310508,0.011288343487155711
0.6519999999999999,-0.0151,-1.038,0.00545479168554841,1.1127266168578902,0.0055198108117345745,0.011257137939452393
0.653,-0.0013,0.962,0.005450503718468377,1.0996109889880865,0.0055041682546089375,0.01079403924199857
0.6539999999999999,0.0041,-0.038,0.005443374049152494,1.1037030958840341,0.005478159132458744,0.01093852713020087
0.655,-0.0006,-1.038,0.005440474006160885,1.1045941020767338,0.005467579739633115,0.01096998759944859
0.6559999999999999,0.0038,-1.038,0.005375601198521473,1.1045941020767338,0.005230922932232441,0.01096998759944859
0.657,0.0048,-2.038,0.005301170359624209,1.1037030958840341,0.0049593983081790294,0.01093852713020087
0.6579999999999999,-0.0013,-1.038,0.005418011501784388,1.1037030958840341,0.005385636244887006,0.01093852713020087
0.659,-0.0115,0.962,0.005265461431477524,1.1225542883721507,0.004829131695118789,0.01160414243839341
0.6599999999999999,-0.0024,-1.038,0.005268633305119445,1.13936847589531,0.004840702729530432,0.012197833294676903
0.661,-0.006,-1.038,0.005290647574054051,1.144178450724953,0.0049210110558215005,0.012367668326633075
0.6619999999999999,0.0041,-0.038,0.005263083819676065,1.162373405400372,0.004820458137758686,0.013010112584282174
0.663,-0.0082,-1.038,0.005211681166291648,1.1756256788712172,0.004632940620257421,0.013478036090771695
0.6639999999999999,-0.0003,-0.038,0.005209358054590479,1.1615267225093675,0.00462446587993957,0.012980217123090922
0.665,0.0012,-1.038,0.005218044440749595,1.1450379616336122,0.004656153924454186,0.012398016731314774
0.6659999999999999,0.0001,-1.038,0.0052169947265067835,1.1450379616336124,0.004652324553868477,0.012398016731314783
0.667,0.0012,-0.038,0.0052379421107610425,1.1615267225093677,0.004728740871604607,0.012980217123090929
0.6679999999999999,0.0044,-1.038,0.005236948036618975,1.1654014432220348,0.004725114476796957,0.013117029339238405
0.669,0.0037,-1.038,0.00521458532801666,1.1654014432220348,0.004643535038273621,0.013117029339238405
0.6699999999999999,0.0044,0.962,0.005181765921342118,1.1615267225093677,0.0045238094354054185,0.012980217123090929
0.671,-0.008,0.962,0.005181482620907371,1.1567888847425885,0.0045227759519034395,0.012812929173148822
0.6719999999999999,0.0011,-0.038,0.005173074333854343,1.1402316125869805,0.004492102416379303,0.012228309721852569
0.673,0.0025,-0.038,0.0051740877656214915,1.1362710651873777,0.004495799428043495,0.012088467057805741
0.6739999999999999,0.0101,-0.038,0.005184956947505522,1.1362710651873777,0.004535450338453132,0.012088467057805741
0.675,0.0036,-1.038,0.00520587046762884,1.1362710651873777,0.0046117431194193014,0.012088467057805741
0.6759999999999999,0.0046,-0.038,0.005209637833662114,1.1194103537402011,0.004625486517465215,0.01149313349186117
0.677,0.0014,0.962,0.0051951861517529055,1.1194103537402011,0.00457276660250156,0.01149313349186117
0.6779999999999999,-0.0012,-0.038,0.0051583280637734485,1.1144934889093834,0.0044383078401092225,0.011319524289060396
0.679,-0.0037,-0.038,0.005152337999959073,1.1095548357706608,0.0044164560129720965,0.011145145764568692
0.6799999999999999,-0.0059,-1.038,0.005153755130466179,1.096401266335191,0.004421625722649931,0.010680707391285868
0.681,0.0024,1.962,0.0051349226281528545,1.1013989014252568,0.00435292452048199,0.010857168504968992
0.6819999999999999,0.0035,-0.038,0.005138890147182237,1.1013989014252565,0.004367398079141793,0.010857168504968984
0.683,0.0027,-0.038,0.005124478323456725,1.0964012663351907,0.004314823567326939,0.01068070739128586
0.6839999999999999,0.0002,-0.038,0.004867031430369699,1.1005053082934484,0.003375654106189201,0.010825616693686905
0.685,-0.0053,0.962,0.004864736857246988,1.0996109889880847,0.0033672834749597586,0.010794039241998508
0.6859999999999999,-0.0046,-2.038,0.004866774118975563,1.0996109889880847,0.003374715431029918,0.010794039241998508
0.687,0.0005,-0.038,0.00475656907164489,1.1005053082934484,0.002972686050620111,0.010825616693686905
0.688,-0.0035,0.9619999999998889,0.0047601234194295594,1.0996109889880847,0.002985652355451359,0.010794039241998508
0.6890000000000001,0.0016,-0.03800000000011102,0.004768507595700918,1.1005053082934484,0.00301623793454473,0.010825616693686905
0.69,-0.0006,-1.038000000000111,0.004768308476813279,1.0955035966817754,0.0030155115463713694,0.010649011642415343
0.6910000000000001,0.0034,-2.0379999999997778,0.0047747664805942655,1.0904789439064626,0.0030390704243142648,0.010471596563358214
0.692,0.0037,-0.03800000000011102,0.0047718684786401955,1.0946051908628982,0.0030284984772189077,0.010617289900335052
0.6930000000000001,-0.0043,-1.038,0.004768213025034113,1.0946051908628982,0.003015163337096328,0.010617289900335052
0.694,0.0011,-1.038,0.004796886285872035,1.0946051908628982,0.0031197637484949984,0.010617289900335052
0.6950000000000001,-0.0054,-1.038000000000111,0.004588397535611551,1.0803595330373355,0.0023591942000047413,0.010114291061935583
0.696,0.0008,-2.037999999999889,0.004607049413923678,1.0061101850333736,0.002427236483574601,0.007492626534033344
0.6970000000000001,0.0048,-1.037999999999667,0.0045103676856618905,1.0061101850333736,0.0020745403389651022,0.007492626534033344
0.698,-0.0003,1.961999999999778,0.004520884732377288,1.0051318808739402,0.002112906655909241,0.00745808366758085
0.6990000000000001,-0.0069,-0.038,0.004520680313082992,0.9905927019661194,0.0021121609317866132,0.0069447209158241
0.7,-0.0015,-0.03799999999988898,0.0045069251212312205,0.9961213301741355,0.00206198182119658,0.007139930824739964
0.7010000000000001,0.0083,0.962,0.004504964406333779,0.9961213301741355,0.0020548291089164126,0.007139930824739964
0.702,-0.0008,0.962,0.004451255554109751,0.9961213301741355,0.0018588985494261629,0.007139930824739964
0.7030000000000001,-0.0095,0.9619999999997779,0.004201672687456747,0.9951332061333221,0.0009484171543196476,0.00710504122884978
0.704,0.0028,-1.038,0.004201672687456745,0.9951332061333221,0.0009484171543196413,0.00710504122884978
0.7050000000000001,-0.0019,-0.038,0.0041818202471027716,0.9996530871806644,0.0008759952055210285,0.0072646333617197205
0.706,-0.0033,0.962,0.004220167039493374,0.9941440999525576,0.0010158847800814368,0.007070116954655468
0.7070000000000001,0.0115,-0.038,0.004253199478279159,0.9886044144303265,0.0011363875267353819,0.006874516623880957
0.708,0.0018,-2.038,0.0043621583990055115,0.9728077327980985,0.0015338710218270324,0.0063167528049775604
0.7090000000000001,0.0036,1.962,0.00436274428263436,0.9717959037334293,0.001536008332576436,0.006281026210220092
0.71,0.005,-1.038,0.004226323757202448,0.9717959037334293,0.0010383445626947522,0.006281026210220092
0.7110000000000001,-0.0026,-2.038,0.004253978795912685,0.9661280843002756,0.0011392304871345427,0.006080901609022772
0.712,-0.0015,-2.038,0.004229428972013595,0.960426817635976,0.0010496724248644307,0.005879596022108955
0.7130000000000001,-0.0004,0.962,0.00421756220783979,0.9661280843002756,0.001006382321880769,0.006080901609022772
0.714,-0.0036,-0.038,0.004229286792100989,0.960426817635976,0.0010491537507786573,0.005879596022108955
0.7150000000000001,-0.0029,-0.038,0.004302486716400746,0.9651092522585286,0.0013161879831035653,0.006044927746685343
0.716,0.0073,1.962,0.004302019938131879,0.9651092522585286,0.0013144851701855842,0.006044927746685343
0.7170000000000001,0.0008,0.962,0.004313960008275834,0.9594019311819547,0.0013580426942581489,0.005843408384993383
0.718,0.0019,-1.038,0.004341305335586346,0.9640893435342557,0.0014577987876679345,0.006008915867847273
0.7190000000000001,-0.0014,-0.038,0.004319318469479378,0.9630683547067715,0.0013775904272321819,0.005972865851727847
0.72,0.0012,-0.038,0.004386487785025304,0.9573488667138307,0.0016226249239776273,0.0057709168893200465
0.7210000000000001,0.0005,-0.038,0.004365169275369892,0.9573488667138307,0.0015448547361720795,0.0057709168893200465
0.722,0.0012,-0.038,0.0043145130940288184,0.9526282883882926,0.0013600603579493453,0.005604238351663568
0.7230000000000001,0.0034,-0.038,0.0043492227576286254,0.9583759487158262,0.0014866816415407675,0.005807182048870469
0.724,-0.006,-1.038,0.004348122982218895,0.9640893435342557,0.0014826696471968315,0.006008915867847273
0.7250000000000001,-0.0049,-0.038,0.004257590887715775,0.9687540756440511,0.0011524074428616474,0.006173622535759896
0.726,0.0005,-0.038,0.004306322976702735,0.9630683547067715,0.0013301827082967906,0.005972865851727847
0.7270000000000001,0.0012,-0.038,0.004387886251265298,0.9687540756440511,0.0016277265461773977,0.006173622535759896
0.728,-0.0013,-0.038,0.004447527353854183,0.9640893435342557,0.0018452980286234057,0.006008915867847273
0.7290000000000001,0.0041,0.962,0.004450420098752786,0.9687540756440511,0.0018558507979151767,0.006173622535759896
0.73,-0.0057,-1.038,0.004508459411144947,0.9687540756440511,0.0020675789298438257,0.006173622535759896
0.7310000000000001,-0.0021,0.962,0.004489180902365041,0.9630683547067715,0.0019972506905504366,0.005972865851727847
0.732,-0.0032,-0.038,0.004483096121323659,0.9431162506903973,0.0019750533337936633,0.005268378542910629
0.7330000000000001,-0.0065,0.962,0.004473554783917695,0.9478842013014882,0.0019402464165198016,0.0054367297449605095
0.734,0.0026,0.962,0.004475576642840188,0.9536604544156752,0.0019476221829622146,0.005640683022676035
0.7350000000000001,0.0015000000000011992,-0.038,0.004476069604393252,0.9594019311819546,0.0019494205128259023,0.005843408384993379
0.736,0.0069,-1.038,0.004444584038775541,0.954691504515996,0.0018345607786872317,0.005677088291505562
0.7370000000000001,0.0022000000000001554,0.962,0.004426558952319755,0.9324528204238067,0.0017688050395883762,0.004891864302352074
0.738,0.0029,-1.038,0.004506997807559526,0.9324528204238067,0.002062246981824343,0.004891864302352074
0.7390000000000001,-0.0010999999999992008,-0.038,0.004503940322374214,0.93350729445196,0.0020510932379220795,0.004929096644850976
0.74,0.0025,-0.038,0.0045074758940461075,0.9383240727785183,0.0020639910472608925,0.005099171900957363
0.7410000000000001,0.00040000000000006664,0.962,0.004507105439559316,0.9372750178453279,0.002062639624695391,0.005062130900866434
0.742,0.0007,0.962,0.00452327111136227,0.9205979881781279,0.002121612196063644,0.0044732829407882055
0.7430000000000001,-0.00549999999999758,0.962,0.004511741663773061,0.9205979881781279,0.0020795526281670047,0.0044732829407882055
0.744,0.0054,-1.038,0.0044924460229300535,0.9146129523455616,0.0020091618908947965,0.004261957770099494
0.7450000000000001,-0.005099999999998557,0.962,0.004519886481808161,0.9085884928607189,0.0021092650254438427,0.0040492405926994485
0.746,0.0014,-1.038,0.004525914657005514,0.9085884928607175,0.002131255883379068,0.004049240592699402
0.7470000000000001,-0.004799999999997757,0.962,0.00457442616382079,0.8851923197137503,0.0023082264623142785,0.0032231469113812856
0.748,0.0053,0.962,0.004649272822242066,0.902523820250507,0.0025812680011519954,0.003835103533143259
0.7490000000000001,0.0016999999999991783,-1.038,0.004688904119176044,0.8874123369875102,0.0027258434642285353,0.0033015333308503954
0.75,-0.002,0.962,0.004641653801522815,0.9107514821927761,0.002553473719009007,0.004125613416953514
0.7510000000000001,0.005599999999997979,-1.038,0.0047336484341038996,0.9167617277982817,0.0028890712804040698,0.004337828717579365
0.752,-0.0035,0.962,0.004662854617137203,0.9118310527696689,0.002630814557492205,0.004163731891564978
0.7530000000000001,-0.001299999999999778,0.962,0.004702003542717795,0.9118310527696689,0.0027736303238849176,0.004163731891564978
0.754,-0.0003,0.962,0.004605116031595832,0.9118310527696712,0.002420183480847541,0.00416373189156506
0.7550000000000001,-0.005700000000000178,-0.038,0.0046071490554040135,0.9265443643328639,0.0024275999769315095,0.00468324307988065
0.756,-0.0065,-0.038,0.004681172206675175,0.9313971525818827,0.0026976373514651145,0.004854589807574401
0.7570000000000001,-0.01079999999999727,-1.038,0.004732667370004659,0.9313971525818827,0.0028854923463941195,0.004854589807574401
0.758,0.0015,0.962,0.004642730743155708,0.9313971525818826,0.0025574024154516525,0.004854589807574397
0.7590000000000001,-0.003900000000000333,0.962,0.0046806349648801865,0.9135366692802115,0.002695677486729324,0.004223955373980679
0.76,-0.0054,-0.038,0.004980964298419074,0.898610402698321,0.0037912826228465694,0.003696924973260301
0.7610000000000001,-0.0038999999999985565,-0.038,0.004993399723138018,0.8924779283535738,0.003836647206556506,0.003480393907465129
0.762,0.0026,-1.038,0.005097817099049236,0.8686479414121595,0.004217563089797737,0.0026389827281865486
0.7629999999999999,0.0088,-0.038,0.005111982270181276,0.8506265002221776,0.004269237809890415,0.0020026650448726024
0.764,-0.0079,0.962,0.005116951430764697,0.8453101478863143,0.004287365369370657,0.0018149503684283168
0.7649999999999999,-0.001,-1.038,0.00511366842513683,0.8517822781432647,0.004275388924095034,0.002043474318749122
0.766,-0.0032,-0.038,0.005125259383333154,0.8570584846552618,0.004317672883449836,0.0022297714893808637
0.7669999999999999,-0.005,0.962,0.005149037873718627,0.8411305819179504,0.004404417111489304,0.0016673743945530674
0.768,0.0005,0.962,0.005174711317141342,0.8422993899536741,0.004498074151726766,0.0017086437477468555
0.7689999999999999,0.0085,-0.038,0.005242134009103541,0.8357538268395661,0.004744032968783412,0.0014775269623107505
0.77,0.0008,0.962,0.0052499492273560015,0.8411305819179477,0.004772542981962543,0.0016673743945529694
0.7709999999999999,0.0045,-0.038,0.005269521478452428,0.8411305819179478,0.004843942796872213,0.0016673743945529733
0.772,0.0056,-1.038,0.005269437735506907,0.8411305819179479,0.0048436373015676255,0.0016673743945529772
0.7729999999999999,0.0023,-1.038,0.005270493743695496,0.8411305819179479,0.004847489632545645,0.0016673743945529772
0.774,0.0049,0.962,0.005259801323358288,0.8411305819179478,0.004808483550452591,0.0016673743945529733
0.7749999999999999,0.0074,-0.038,0.005227789665454855,0.8399601474825584,0.004691704625126312,0.0016260476149382653
0.776,0.0096,-1.038,0.005267211600039049,0.8453101478863051,0.004835516331752459,0.0018149503684279913
0.7769999999999999,0.0074,-0.038,0.00533984745185029,0.8453101478863052,0.005100492820638592,0.0018149503684279952
0.778,-0.002,0.962,0.005342296208320758,0.8517822781432584,0.005109425914634214,0.002043474318748899
0.7789999999999999,-0.0081,-0.038,0.005345605771377201,0.8582056004235051,0.005121499241738883,0.002270274911967691
0.78,0.0042,-0.038,0.005346517398600245,0.8529364899203346,0.005124824869162694,0.002084228293766783
0.7809999999999999,-0.0005,-0.038,0.005342394458244762,0.8464731848075691,0.005109784331576352,0.0018560159497844184
0.782,-0.0019,0.962,0.00535479642136384,0.8411305819179451,0.005155026846954689,0.0016673743945528792
0.7829999999999999,-0.003,-1.038,0.005420558645747451,0.8464731848075678,0.0053949282576766944,0.0018560159497843752
0.784,0.0007,-1.038,0.0053816844275503825,0.8411305819179439,0.005253114627228453,0.0016673743945528363
0.7849999999999999,-0.0003,-0.038,0.005389634556355711,0.8411305819179439,0.0052821167957788125,0.0016673743945528363
0.786,0.0023,-0.038,0.005407247384606898,0.8411305819179439,0.005346368611830781,0.0016673743945528363
0.7869999999999999,0.0085,-0.038,0.005365227474210557,0.8411305819179438,0.005193079457198616,0.0016673743945528321
0.788,0.0031,-1.038,0.005365227474210557,0.835753826839561,0.005193079457198616,0.00147752696231057
0.7889999999999999,0.0024,0.962,0.005365227474210557,0.8291565930737202,0.005193079457198616,0.0012445857417996407
0.79,0.0002,0.962,0.005368627166386532,0.835753826839561,0.0052054815764499265,0.00147752696231057
0.7909999999999999,-0.0051,-1.038,0.0053986641522017435,0.8582056004235038,0.00531505687349085,0.002270274911967644
0.792,0.0018,-0.038,0.005402967774384705,0.8582056004235038,0.0053307565406262615,0.002270274911967644
0.7929999999999999,0.0011,-0.038,0.005403434876215453,0.8771934007482746,0.005332460533902001,0.002940713695776034
0.794,0.0051,-0.038,0.005393330757506173,0.8783142198524553,0.005295600583449004,0.0029802886114704986
0.7949999999999999,0.0059,-1.038,0.0053703903084209,0.8783142198524552,0.005211913540473539,0.0029802886114704947
0.796,0.0067,-0.038,0.005346278143269128,0.8731664629578825,0.005123952062745396,0.0027985268585181953
0.7969999999999999,0.0096,-2.038,0.005347142945130521,0.872039027541586,0.005127106870668756,0.0027587183279672283
0.798,0.0061,-1.038,0.005367348738129385,0.8731664629578825,0.005200817854301366,0.0027985268585181953
0.7989999999999999,-0.0019,-2.038,0.005343573488562584,0.8896268143412873,0.005114085448808636,0.0033797241417101824
0.8,-0.0094,-1.038,0.005369051595969854,0.8896268143412872,0.005207029900837452,0.0033797241417101785
0.8009999999999999,0.0015,-0.038,0.005380117921516645,0.8845448954317576,0.005247399993775577,0.0032002870571168104
0.802,-0.0061,0.962,0.0053511284368892775,0.8845448954317576,0.005141645994068374,0.0032002870571168104
0.8029999999999999,0.0005,0.962,0.005339623835688556,0.8794336104981042,0.0050996770661052996,0.003019813089832339
0.804,-0.0031,1.962,0.005359635527216172,0.8794336104981042,0.005172679965161818,0.003019813089832339
0.8049999999999999,-0.0085,0.962,0.005378477974123449,0.8794336104981042,0.005241417445331919,0.003019813089832339
0.806,-0.0077,0.962,0.005350824969817566,0.8856564110946656,0.0051405389424244614,0.0032395334783176834
0.8069999999999999,-0.0069,-0.038,0.005314457939485134,0.8856564110946656,0.0050078715644229525,0.0032395334783176834
0.808,-0.0062,0.962,0.005296560566294772,0.8794336104981042,0.004942581724901405,0.003019813089832339
0.8089999999999999,-0.0174,-1.038,0.0055108572467154815,0.874292444501886,0.005724338674698,0.002838284054403999
0.81,-0.0061,-0.038,0.0054971172284780795,0.874292444501886,0.005674214917641506,0.002838284054403999
0.8109999999999999,0.0106,-0.038,0.00547343311909202,0.8805515781329538,0.005587814992659254,0.003059287323215124
0.812,0.0041,-1.038,0.005459469527499078,0.8867665335316773,0.005536875637226996,0.0032787307062123535
0.813,0.0023,-0.03800000000011102,0.00545593845734217,0.8805515781329538,0.0055239942494707175,0.003059287323215124
0.8140000000000001,-0.0031,-1.037999999999778,0.005393043849145263,0.9040678559882215,0.005294553938187602,0.003889621772457136
0.815,-0.0045,0.9619999999997779,0.005385938616085403,0.8990675678003804,0.005268633959802658,0.0037130669807483667
0.8160000000000001,-0.0088,-1.038,0.005398446350441529,0.9139863684718912,0.005314262329966467,0.00423983376821237
0.817,-0.0052,-1.037999999999889,0.005440962485502116,0.9139863684718912,0.00546936171833241,0.00423983376821237
0.8180000000000001,0.0086,-0.03799999999988898,0.005434965566869074,0.9139863684718912,0.005447484884731716,0.00423983376821237
0.819,0.0032,0.9619999999998889,0.005439159336913795,0.9090406399010925,0.00546278380990346,0.0040652054178327325
0.8200000000000001,0.0047,-0.038,0.005431834986165504,0.9090406399010925,0.005436064487471664,0.0040652054178327325
0.821,0.0004,-0.038,0.005556033736490261,0.9040678559882216,0.005889143070078808,0.0038896217724571397
0.8220000000000001,0.0016,-0.038,0.005556851036738815,0.9040678559882216,0.00589212459152899,0.0038896217724571397
0.823,0.0005,-0.03799999999988898,0.005570205041679608,0.9040678559882215,0.005940840167288669,0.003889621772457136
0.8240000000000001,0.0016,0.962,0.0056298937061516246,0.9040678559882215,0.006158585156074632,0.003889621772457136
0.825,0.0081,0.9619999999998889,0.005616576754243366,0.9199754806470591,0.006110004750237501,0.004451302870169029
0.8260000000000001,0.0088,-0.03800000000011102,0.005585020817480261,0.9199754806470591,0.005994888301287061,0.004451302870169029
0.827,-0.002,-1.038,0.005535855404919915,0.9199754806470591,0.005815532266078255,0.004451302870169029
0.8280000000000001,0.0023,-1.037999999999889,0.005521114407647554,0.92486273670877,0.005761756925079144,0.004623866619214727
0.829,-0.0042,-0.038,0.005541059901699932,0.9404186719292017,0.0058345183349244175,0.0051731299415482095
0.8300000000000001,-0.0053,-0.038,0.005487066298476895,0.9462404988967844,0.00563754900025576,0.005378692382954185
0.831,-0.0042,-0.03799999999988898,0.005472559019576595,0.9520267249356961,0.005584626266778592,0.005582997793903107
0.8320000000000001,-0.009,0.9619999999998889,0.005477621154889263,0.9577779952740298,0.005603092999225031,0.005786068956704179
0.833,-0.0006,-0.038,0.0054855275498983305,0.9728077327981041,0.005631935626343851,0.0063167528049777565
0.8340000000000001,-0.0039,0.962,0.005511229720542159,0.9717959037334348,0.005725697463840469,0.006281026210220288
0.835,-0.0046,-0.038,0.005562836498874552,0.9707830200587458,0.005913959631685331,0.006245262378318603
0.8360000000000001,0.0015,-1.038,0.005565634172890295,1.0175318578562715,0.0059241655812165075,0.007895913502795667
0.837,0.0022,-0.038,0.005560926381705568,1.0360518690074023,0.005906991500546541,0.008549835154588256
0.8380000000000001,0.0029,-0.038,0.005516712905248717,1.0403939984613422,0.005745700189701433,0.00870315107009429
0.839,-0.0022,-1.038,0.005584493349445363,1.0351018639704148,0.005992964091349381,0.008516291499677432
0.8400000000000001,-0.0062,1.962,0.005637986946050223,1.0490243398299561,0.00618810939566938,0.009007879130852147
0.841,0.0022,0.962,0.005646422862748103,1.0447180810127807,0.006218883724480847,0.008855829768905527
0.8420000000000001,0.001,-2.038,0.005641171619419633,1.0447180810127807,0.006199727123645758,0.008855829768905527
0.843,-0.0044,-1.038,0.005638882123690165,1.0499617478910266,0.006191375014809881,0.009040978000107495
0.8440000000000001,0.0021,-1.038,0.005663711237183429,1.0499617478910266,0.006281951928985783,0.009040978000107495
0.845,-0.0005,-0.038,0.005640781350162885,1.0551793569217187,0.006198303416553535,0.009225206156770879
0.8460000000000001,0.0017,0.962,0.0056103583610145336,1.054246588230205,0.006087319974562654,0.009192271098659003
0.847,0.0067,-1.038,0.0055720503474195795,1.0721325768375491,0.0059475718655300535,0.009823806097132466
0.8480000000000001,0.0016,1.962,0.0055006173530741526,1.0702957765771641,0.005686983415607794,0.009758950657765698
0.849,0.0055,-1.038,0.0055138824310372115,1.0702957765771641,0.005735374584649033,0.009758950657765698
0.8500000000000001,0.004,-0.038,0.005547517664031989,1.0557221443730176,0.005858076332058622,0.009244371397214266
0.851,0.0004,-1.038,0.00546715928404012,1.0557221443730178,0.0055649279645257725,0.009244371397214275
0.8520000000000001,-0.0001,-0.038,0.00546544486438939,1.0609114238987698,0.005558673740362362,0.009427599269562829
0.853,-0.0048,0.962,0.005515237985181315,1.056653610507373,0.005740319662990416,0.009277260463435445
0.8540000000000001,-0.0045,0.962,0.005531055012317598,1.0523785705902695,0.005798020374287649,0.00912631340723452
0.855,-0.0017,-1.038,0.005523596634371272,1.0341509862279894,0.005770812118974017,0.008482717030477305
0.8560000000000001,0.0019,-0.038,0.005548682846129169,1.029782533137786,0.005862326930810133,0.008328471655719531
0.857,0.0099,-0.038,0.005500150651732654,1.0307374408812262,0.005685280883321806,0.008362188419916074
0.8580000000000001,0.0153,-0.038,0.0055766351208716555,1.0307374408812262,0.005964297175984545,0.008362188419916074
0.859,0.0004,0.962,0.005546699664463538,1.0316914647863884,0.0058550922594807755,0.008395873976734716
0.8600000000000001,-0.0017999999999996224,-1.038,0.00528229384997938,1.0307374408812262,0.004890536566719587,0.008362188419916074
0.861,-0.0001,-1.038,0.005318350093182166,1.0360518690074023,0.005022070189414988,0.008549835154588256
0.8620000000000001,0.0016999999999989563,-0.038,0.005236801050846237,1.0360518690074023,0.004724578270873778,0.008549835154588256
0.863,-0.003,-2.038,0.005236029285886104,1.0360518690074023,0.00472176286272089,0.008549835154588256
0.8640000000000001,-0.007399999999999201,-0.038,0.0052587224827674,1.056111301782362,0.004804547926587615,0.009258112126301801
0.865,-0.0038,1.962,0.0052646770231764275,1.0561113017823642,0.004826270163901151,0.009258112126301881
0.8660000000000001,-0.007499999999999289,-0.038,0.005253297426990233,1.0570424249911394,0.004784757255782502,0.009290989084190078
0.867,-0.0043,0.962,0.005179403585249339,1.0561113017823662,0.004515191604020167,0.00925811212630195
0.8680000000000001,0.0021999999999977355,-0.038,0.0051532945825154075,1.0688403398236757,0.004419945638009687,0.00970756075318334
0.869,-0.008,-0.038,0.00509941117819701,1.0730497979101616,0.0042233783103128265,0.009856192185562284
0.8700000000000001,-0.011699999999996382,-0.038,0.005092283255421166,1.0882955841650266,0.004197375559562374,0.010394504481883409
0.871,0.0046,-0.038,0.005076345806369412,1.0924300779792475,0.004139235547622952,0.010540489006528606
0.8720000000000001,0.006800000000000377,-1.038,0.005129723792754878,1.0965489829617245,0.004333959104427773,0.010685923106310648
0.873,0.0085,-1.038,0.00516570872909601,1.1137558374956733,0.0044652325988068725,0.011293478611929636
0.8740000000000001,0.003000000000000311,1.962,0.005170631962943624,1.1177961631336621,0.004483192616984898,0.011436138159670367
0.875,0.0044,-0.038,0.005225357068363377,1.1307008707332742,0.004682830480745801,0.011891789489498181
0.8760000000000001,-0.006099999999997269,-1.038,0.005163522116836847,1.1267068218113967,0.0044572558101475465,0.01175076392277356
0.877,0.0062,0.962,0.005098766484088248,1.1315706188990993,0.0042210264582028065,0.011922499360707151
0.8780000000000001,-0.0050999999999983125,1.962,0.005146717212319011,1.1315706188990993,0.004395951309901928,0.011922499360707151
0.879,0.0025,-1.038,0.005146717212319011,1.1307008707332762,0.004395951309901928,0.01189178948949825
0.8800000000000001,0.0012999999999991783,-1.038,0.005149104882110685,1.1491092487469121,0.004404661558935165,0.012541769495410084
0.881,-0.0024,-1.038,0.005124457096228562,1.153878619610852,0.004314746130135151,0.012710170845058759
0.8820000000000001,-0.0035000000000005773,1.962,0.0051171056495979885,1.1719229818011716,0.004287927961588504,0.013347297844213785
0.883,-0.0061,0.962,0.005059142265157372,1.172762159072527,0.004076476815769424,0.01337692829005712
0.8840000000000001,0.007599999999998712,0.962,0.0050593948598546745,1.1774357243568787,0.004077398284360121,0.01354194684785195
0.885,0.0018,-3.038,0.005047166803727072,1.1774357243568787,0.004032790183845037,0.01354194684785195
0.8860000000000001,-0.00010000000000104362,1.962,0.005026871167679374,1.1774357243568787,0.003958751451655245,0.01354194684785195
0.887,-0.0048,0.962,0.005043962974754608,1.1727621590725272,0.0040211025759909775,0.013376928290057127
0.8880000000000001,-0.009199999999999755,-0.038,0.005054982555208949,1.176599880381221,0.004061302142251693,0.013512434097090478
0.889,-0.0081,1.962,0.005047327490884006,1.1765998803812208,0.004033376372587809,0.013512434097090471
0.8899999999999999,0.0031,-0.038,0.005057619125729941,1.175763442208678,0.004070920384234576,0.013482900365876809
0.891,0.0045,-1.038,0.005028983067087786,1.1633587044732803,0.0039664556869077735,0.013044902433597494
0.8919999999999999,0.0008,-1.038,0.005029508458301572,1.1594771573916844,0.003968372320576262,0.01290784918571363
0.893,-0.0054,-0.038,0.005036272577501987,1.141236028188033,0.003993047911368408,0.012263774555192388
0.8939999999999999,0.0,-1.038,0.005021721882488165,1.1403736517281047,0.003939966795370277,0.01223332497098094
0.895,0.0007,0.962,0.005017865969455143,1.1395106226257772,0.003925900376770332,0.012202852342669124
0.8959999999999999,0.0014,1.962,0.00501823198076284,1.1395106226257772,0.003927235590563353,0.012202852342669124
0.897,0.0036,1.962,0.005046451445199462,1.1355475605699388,0.004030180547058047,0.012062920888818345
0.8979999999999999,0.0072,-1.038,0.005004752143152606,1.1491092487469072,0.003878060975663854,0.01254176949540991
0.899,0.0064,-1.038,0.005013822477912982,1.1324396990720458,0.003911149669441025,0.01195318564580686
0.8999999999999999,-0.0001,-1.038,0.005041145670704114,1.1324396990720438,0.004010825015849404,0.011953185645806788
0.901,0.0006,-1.038,0.00510689342077072,1.136413599353257,0.0042506736240833344,0.01209349978572518
0.9019999999999999,0.0096,-0.038,0.005228305944240846,1.136413599353255,0.0046935880165451084,0.012093499785725109
0.903,-0.0042,-0.038,0.005233840280938673,1.1403736517280942,0.004713777345505067,0.01223332497098057
0.9039999999999999,0.0012,-0.038,0.005234768526199502,1.1403736517280931,0.004717163595736961,0.012233324970980532
0.905,-0.01,-0.038,0.005219115648226582,1.136413599353254,0.004660061702624919,0.012093499785725078
0.9059999999999999,-0.0024,-1.038,0.005216329089058743,1.1355475605699268,0.004649896300196842,0.012062920888817922
0.907,-0.0115,-0.038,0.005217092513300394,1.1355475605699268,0.004652681281305193,0.012062920888817922
0.9079999999999999,0.0023,-1.038,0.00512255094631122,1.1403736517280911,0.004307792471579588,0.012233324970980461
0.909,0.0041,0.962,0.005175841166113786,1.1403736517280911,0.004502195854800723,0.012233324970980461
0.9099999999999999,0.0087,-1.038,0.005280953577627403,1.1412360281880194,0.004885647236545545,0.01226377455519191
0.911,-0.0051,-0.038,0.0052784483837322455,1.1412360281880194,0.0048765082581242155,0.01226377455519191
0.9119999999999999,0.004,-1.038,0.005298518848017524,1.1412360281880196,0.004949725560930107,0.012263774555191918
0.913,0.0054,-2.038,0.0054415418741014954,1.1451794046327475,0.0054714753351337,0.012403010931311432
0.9139999999999999,0.004,-1.038,0.00549339305254481,1.1315706188990866,0.005660629077616438,0.011922499360706704
0.915,0.0029,-1.038,0.005461845985642535,1.148252785355628,0.005545544986028392,0.01251152869528539
0.9159999999999999,-0.0007,0.962,0.0056040238370799545,1.1355475605699261,0.006064211552631955,0.012062920888817899
0.917,0.0004,1.962,0.0057323774660180205,1.1395106226257645,0.0065324471839863715,0.012202852342668678
0.9179999999999999,-0.0043,0.962,0.005738945103850773,1.1355475605699261,0.0065564060083107695,0.012062920888817899
0.919,-0.0017,-2.038,0.0057487539492310944,1.1355475605699261,0.006592188797995109,0.012062920888817899
0.9199999999999999,-0.0024,0.962,0.005700121288766805,1.135547560569926,0.006414776249044665,0.01206292088881789
0.921,0.0074,0.962,0.005581445043842968,1.1355475605699261,0.005981843834679528,0.012062920888817899
0.9219999999999999,0.0063,1.962,0.005563116963458964,1.1355475605699261,0.0059149827699700955,0.012062920888817899
0.923,-0.0023,0.962,0.005523260986121378,1.135547560569926,0.005769587669992695,0.01206292088881789
0.9239999999999999,-0.0077,1.962,0.0054695175051229965,1.1307008707332624,0.005573530784303832,0.011891789489497765
0.925,-0.0011,-0.038,0.00546897971977951,1.1186759444964454,0.005571568936696376,0.011467202292260396
0.9259999999999999,0.0033,-1.038,0.005457091010303538,1.1226985639768414,0.005528198776978048,0.01160923665464214
0.927,0.0073,-1.038,0.005422946469725869,1.1226985639768414,0.005403639069185088,0.01160923665464214
0.9279999999999999,0.0023,0.962,0.005393326004435198,1.1235745066680562,0.005295583244187096,0.011640165247872487
0.929,0.0045,-2.038,0.0054284777837792925,1.1114724835786185,0.005423817371500748,0.011212855843785332
0.9299999999999999,0.0017,-1.038,0.0054537801825467105,1.110586995815149,0.005516120836230677,0.011181590224331605
0.931,0.0032,-2.038,0.005475970753396767,1.105630893216342,0.0055970723140973825,0.011006595578193518
0.9319999999999999,-0.0047,-1.038,0.005497342884288525,1.1006524741238781,0.00567503811283861,0.010830812960694344
0.933,0.0008,-1.038,0.005503820102079274,1.0832374971693504,0.005698667083727583,0.010215908876506504
0.9339999999999999,-0.0017,0.962,0.005479812724327026,1.079067782168048,0.005611087871733413,0.01006868072967089
0.935,0.0009,-0.038,0.005443916136258492,1.0924300779792353,0.005480136672949235,0.010540489006528174
0.9359999999999999,-0.0044,-0.038,0.005483188039177638,1.0542465882301988,0.005623401062199252,0.009192271098658784
0.937,0.004,0.962,0.0055169076491448955,1.0360518690073959,0.005746410617851645,0.008549835154588029
0.938,0.0008,-0.03799999999988898,0.005614759821900074,1.031691464786382,0.006103376558499343,0.008395873976734488
0.9390000000000001,-0.0039,0.962,0.005547349201786525,1.031691464786382,0.005857461779696395,0.008395873976734488
0.94,-0.0031,0.9619999999998889,0.005491377065798633,1.0335968708691403,0.005653274732946106,0.008463151813815968
0.9410000000000001,-0.0023,-0.038,0.00552334992231364,1.0388966718157444,0.005769912110325849,0.008650282078527697
0.942,0.0028,-0.03799999999988898,0.00553756560382191,1.0388966718157444,0.005821771092897897,0.008650282078527697
0.9430000000000001,0.0022,0.962,0.005540229328736478,1.0379492705480005,0.005831488394445553,0.00861683035990518
0.944,-0.0007,0.9619999999998889,0.0055289225484071985,1.0379492705480007,0.005790241119476642,0.008616830359905188
0.9450000000000001,0.0008,-0.038,0.005532156293213732,1.0379492705480007,0.0058020378606646675,0.008616830359905188
0.946,0.0056,-0.038000000000222044,0.00553373416062271,1.0379492705480007,0.005807793940555426,0.008616830359905188
0.9470000000000001,0.0017,-2.0379999999997778,0.005539535378779728,1.0248366201249752,0.005828956856390762,0.008153836792891053
0.948,-0.0034,-0.03800000000011102,0.005527958720691687,1.0061101850333725,0.005786725064008455,0.007492626534033305
0.9490000000000001,0.0076,-1.037999999999778,0.005487188387135585,1.0051318808739391,0.005637994381197897,0.007458083667580811
0.95,0.0091,0.9619999999997779,0.0054585998022235165,0.9996530871806631,0.005533702868627644,0.007264633361719678
0.9510000000000001,-0.0112,-1.037999999999778,0.005459316572219241,1.0150320674487001,0.005536317654467833,0.007807648595225427
0.952,-0.0024,0.962,0.005467741903463457,1.0301814894418,0.0055670533674129575,0.008342558373226613
0.9530000000000001,-0.0049,0.9619999999998889,0.005385313031190107,1.0354987708480767,0.005266351818340526,0.008530305854146795
0.954,0.002,-0.03799999999988898,0.005384407972409962,1.0354987708480767,0.005263050152677934,0.008530305854146795
0.9550000000000001,-0.0001,0.9619999999998889,0.005390412477154217,1.0407888871751225,0.005284954660506483,0.008717094165370112
0.956,0.0021,-0.03800000000011102,0.005308957594203135,1.0407888871751225,0.004987806236569802,0.008717094165370112
0.9570000000000001,0.0003,-1.037999999999889,0.005306514713398413,1.035498770848077,0.004978894577075746,0.008530305854146802
0.958,0.017,-0.03800000000011102,0.005190139802833834,1.055568714440975,0.004554357459014886,0.009238953951523932
0.9590000000000001,0.0105,-1.038,0.00525122837470491,1.055568714440975,0.004777209327366772,0.009238953951523932
0.96,0.0008,-1.038,0.0053263611517217644,1.0565003158472164,0.005051294630392157,0.009271847794049744
0.9610000000000001,-0.0046,-1.038,0.005305554915426133,1.0555687144409707,0.004975393222160879,0.009238953951523774
0.962,-0.0125,0.962,0.005392395041012715,1.0607587445531177,0.005292187078067754,0.009422208326269723
0.9630000000000001,-0.0081,-1.038,0.0053932769849013885,1.0598308863527248,0.005295404420319381,0.009389446652311813
0.964,-0.0045,1.962,0.005471728474686417,1.0398432099064252,0.005581596428711387,0.008683703319297565
0.9650000000000001,-0.0131,0.962,0.005607348807686577,1.0388966718157266,0.006076341086670903,0.00865028207852707
0.966,-0.0142,0.962,0.005607873323689766,1.0388966718157222,0.00607825452756027,0.008650282078526913
0.9670000000000001,-0.0051,-0.038,0.005612596514561435,1.0388966718157222,0.006095484786479326,0.008650282078526913
0.968,-0.004,-0.038,0.005613366525218618,1.020428293016461,0.006098293794913279,0.007998183509482221
0.9690000000000001,-0.0029,-0.038,0.005606474700868625,1.020428293016461,0.006073152334150531,0.007998183509482221
0.97,0.0018,-0.038,0.005603955251454295,1.0041526235938598,0.006063961351418337,0.0074235071474646076
0.9710000000000001,-0.0008,-0.038,0.005600548195951463,1.0041526235938598,0.006051532370659266,0.0074235071474646076
0.972,0.0014,-1.038,0.005557226494388386,1.005131880873916,0.005893494265694407,0.0074580836675799955
0.9730000000000001,-0.0036,-0.038,0.005594509281105443,0.9915853506719391,0.006029502334352415,0.006979770272763595
0.974,0.0029,-1.038,0.005597741505393222,0.9870285258828868,0.006041293528669153,0.006818873696154108
0.9750000000000001,-0.0025,0.962,0.00554641377847288,0.9675706265618281,0.005854049343838741,0.006131836222979385
0.976,-0.0004,-1.038,0.0055453130266813104,0.9675706265618281,0.005850033787641738,0.006131836222979385
0.9770000000000001,-0.0025,-1.038,0.005536456116860986,0.9675706265618281,0.005817723670694675,0.006131836222979385
0.978,-0.008,-1.038,0.0055083971094549026,0.9675706265618281,0.005715364063438809,0.006131836222979385
0.9790000000000001,-0.0058,0.962,0.005557112302605145,0.9629001612963832,0.005893077692651917,0.00596692712351412
0.98,0.0051,-0.038,0.005585645640008956,0.9608545715493019,0.0059971676616263694,0.005894699552192181
0.9810000000000001,-0.0054,-0.038,0.005589094764551482,0.9598301418420284,0.0060097501107643616,0.00585852804231246
0.982,-0.0044,-0.038,0.005580537497718434,0.9435518522843015,0.005978533095153733,0.005283759166144862
0.9830000000000001,-0.0033,-0.038,0.00558768469396282,0.9435518522843014,0.006004606155756631,0.005283759166144858
0.984,0.0043,1.962,0.005588394267864034,0.9377133329060562,0.006007194690154732,0.005077607333692423
0.9850000000000001,0.006799999999999844,-1.038,0.0056062926359377865,0.9377133329060562,0.006072488159023237,0.005077607333692423
0.986,0.0061,-0.038,0.005619195144536247,0.9377133329060562,0.006119556670522598,0.005077607333692423
0.9870000000000001,0.011499999999998135,-0.038,0.005603858074410039,0.9425086161253021,0.006063606848354833,0.005246923620705086
0.988,0.0031,-0.038,0.005590186337371671,0.9425086161253021,0.006013732181959848,0.005246923620705086
0.9890000000000001,0.0020000000000010435,-2.038,0.005615733643107029,0.9425086161253022,0.006106929070348346,0.00524692362070509
0.99,0.0067,-1.038,0.00560212164182609,0.9377133329060563,0.00605727232073784,0.005077607333692427
0.9910000000000001,0.005999999999999089,-1.038,0.005678540092284133,0.9377133329060574,0.0063360477764330845,0.0050776073336924665
0.992,0.0019,0.962,0.005777431605826435,0.9598301418420295,0.0066968052451714015,0.005858528042312499
0.9930000000000001,0.004099999999999512,-0.038,0.005770767409270264,0.9598301418420295,0.006672494173425587,0.005858528042312499
0.994,0.0019,-1.038,0.005767638016860585,0.9748282402295999,0.006661078111076399,0.006388094746744476
0.9950000000000001,0.001500000000000311,0.962,0.005767202635415772,0.9701927134278493,0.00665948983416223,0.006224419286811262
0.996,0.0029,-1.038,0.005767725507657926,0.9758369251200966,0.006661397278590939,0.006423710324097491
0.9970000000000001,0.00029999999999935607,-0.038,0.00574056042354742,0.9758369251200965,0.0065622987146117615,0.006423710324097487
0.998,-0.0026,0.962,0.005738484847198424,0.9588046175889003,0.006554726986330784,0.005822317885197197
0.9990000000000001,0.0030999999999995116,-0.038,0.005754778406532484,0.9645154731517527,0.006614166092999718,0.006023962045793789
1.0,0.0009,-2.038,0.005708321427222798,0.9588046175889028,0.006444690455903501,0.005822317885197283
1.0010000000000001,0.003099999999999667,-2.0379999999997778,0.005703889431980932,0.9598301418420399,0.006428522482255977,0.005858528042312864
1.002,0.0016,-1.038,0.005614902486883167,0.9540912419413371,0.006103897002128274,0.0056558936663443195
1.0030000000000001,0.004099999999998469,-0.038000000000222044,0.005609882459281373,0.949354465512495,0.006085583879133701,0.00548864319110195
1.004,-0.0028,-1.038,0.005591623924368654,0.9445939362646096,0.006018976517166639,0.0053205540293956915
1.0050000000000001,-0.0035999999999988008,-0.038,0.0056224627971746596,0.9503901870638298,0.006131477107902146,0.00552521340383666
1.006,0.0018,-0.038,0.005709097711885605,0.9456348718752792,0.006447522351987839,0.005357308344951121
1.0070000000000001,-0.0032000000000011325,-2.0379999999997778,0.005709097711885604,0.9456348718752791,0.006447522351987836,0.005357308344951118
1.008,-0.0083,-1.038,0.005717386506219595,0.944593936264612,0.006477759976589912,0.005320554029395773
1.0090000000000001,-0.009799999999999445,-1.037999999999556,0.005459083266004759,0.944593936264612,0.005535466550501854,0.005320554029395773
1.01,-0.0073,0.962,0.005379765359950988,0.9435518522843191,0.005246113844808441,0.005283759166145485
1.0110000000000001,-0.01089999999999849,-1.037999999999556,0.005405144834790017,0.937713332906074,0.005338698484004194,0.00507760733369305
1.012,-0.0041,0.962,0.005423252960047179,0.9377133329060738,0.005404757149681058,0.005077607333693046
1.0130000000000001,0.010700000000000489,-0.037999999999777954,0.005282072902219861,0.9387618980276743,0.004889730546550695,0.005114631039064153
1.014,0.0129,0.962,0.0052286079653138294,0.9530595424581118,0.004694689793167716,0.005619465468503678
1.0150000000000001,0.002999999999998801,-1.037999999999556,0.005209467534479474,0.9328934011714144,0.004624865263933374,0.004907420734142129
1.016,-0.0024,0.962,0.0050454533099983725,0.928048436876288,0.004026539337456683,0.004736350261835652
1.017,-0.001,-0.037999999999777954,0.004848275617980132,0.9291079095924357,0.003307232669814922,0.0047737591026251565
1.018,0.0033,0.962,0.004821553109560917,0.9339473777616562,0.003209748627450349,0.004944635512644005
1.019,-0.0003,0.962,0.004804947930859455,0.9339473777616562,0.0031491727294616478,0.004944635512644005
1.02,-0.0014,0.962,0.004797658616195477,0.9387618980276743,0.0031225812191002576,0.005114631039064153
1.021,-0.0025,-1.038,0.004867494912359934,0.9387618980276744,0.003377344894241823,0.005114631039064156
1.022,-0.009,-1.038,0.004888431767976739,0.9445939362646119,0.0034537228033778497,0.00532055402939577
1.023,0.003,-0.038,0.00489441733396187,0.943551852284319,0.0034755582223780696,0.005283759166145481
1.024,0.0015,-0.038,0.004883077842237573,0.943551852284319,0.0034341916158341546,0.005283759166145481
1.025,0.0001,-0.038,0.004960731703225638,0.9377133329060738,0.00371747386447552,0.005077607333693046
1.026,-0.001,-1.038,0.004964651563822398,0.9328934011714144,0.003731773564581631,0.004907420734142129
1.027,-0.0047,-1.038,0.004985668794106696,0.9328934011714144,0.003808444681502196,0.004907420734142129
1.028,0.0077,-0.038,0.0050637892502433425,0.9269877532685195,0.004093429075036468,0.004698898665766878
1.029,-0.0072,1.962,0.005012230678242954,0.9259258546077613,0.0039053427644890446,0.004661404167485386
1.03,0.0026,0.962,0.005037785988473615,0.9210442396923534,0.00399856885337575,0.0044890396012413755
1.031,0.0008,-1.038,0.0050197598254750325,0.9269877532685195,0.003932809187035411,0.004698898665766878
1.032,0.0055,-1.038,0.0051279420458181044,0.9493544655124985,0.0043274592694892795,0.005488643191102072
1.033,0.0012,-0.038,0.005118298729735971,0.955121827008405,0.004292280332739101,0.00569228251535042
1.034,0.0048,0.962,0.005107635593395757,0.955121827008405,0.004253381079030526,0.00569228251535042
1.035,-0.0039,-0.038,0.005129549218806325,0.9398092932437014,0.004333322256496825,0.005151613436329194
1.036,0.0015,0.962,0.00508442976133948,0.9339473777616562,0.004168725915683188,0.004944635512644005
1.037,0.0008,0.962,0.005065180874533099,0.9398092932437015,0.004098505737716855,0.005151613436329199
1.038,-0.0054,-0.038,0.004933945623870495,0.9445939362646119,0.0036197579145477088,0.00532055402939577
1.039,0.0001,-0.038,0.004924296378593577,0.950390187063832,0.0035845573480213734,0.005525213403836738
1.04,0.0098,0.962,0.004921710507164289,0.9483176127805586,0.003575124056954251,0.005452033037598229
1.041,0.0109,-2.038,0.004889964970397261,0.9472796251535833,0.003459315944836387,0.005415382812172717
1.042,-0.0003,-0.038,0.00487221236939855,0.9472796251535832,0.003394554236066739,0.0054153828121727135
1.043,0.0011,1.962,0.004974063343179934,0.9472796251535833,0.0037661078524868895,0.005415382812172717
1.044,0.0,-0.038,0.004957363340823041,0.9472796251535833,0.0037051860366263253,0.005415382812172717
1.045,-0.0011,-1.038,0.0049560512642998255,0.9634949358821069,0.0037003995651855408,0.005987927973695408
1.046,-0.0,-0.038,0.004992563143901697,0.9645154731517631,0.003833595355119678,0.006023962045794157
1.047,0.0007,0.962,0.004986125579398904,0.9588046175889107,0.0038101110399173035,0.0058223178851975615
1.048,-0.0055,-1.038,0.005013173376388893,0.9634949358821069,0.0039087817390251935,0.005987927973695408
1.049,0.0021,-0.038,0.005134728981635915,0.9588046175889108,0.00435221809558486,0.005822317885197566
1.05,-0.0088,-1.038,0.0051891612621187575,0.963494935882107,0.0045507877303416835,0.005987927973695411
1.051,0.005,-0.038,0.005195371088483034,0.9462404988967705,0.004573441253988306,0.005378692382953695
1.052,-0.0004,-0.038,0.005244624040570442,0.928665532920417,0.004753116634478282,0.00475813925867796
1.053,-0.0019,-0.038,0.005259077166639208,0.9227328263343675,0.004805841817753926,0.004548661777336736
1.054,-0.0062,-1.038,0.005262340059195644,0.9227328263343674,0.004817744890295348,0.004548661777336732
1.055,-0.0099,-0.038,0.005284501701347879,0.9167617277982637,0.004898590835913368,0.00433782871757873
1.056,0.0021,-0.038,0.005333893339725037,0.9167617277982637,0.005078772145709581,0.00433782871757873
1.057,0.0031,0.962,0.005335053718900899,0.9216660253672724,0.005083005223344514,0.004510994183897184
1.058,-0.0001,-0.038,0.005326350962927518,0.8986104026983054,0.005051257461544292,0.0036969249732597483
1.059,-0.0049,0.962,0.005261154807949707,0.8975149298807827,0.004813421079040095,0.003658245007654838
1.06,0.0053,-0.038,0.005170283541239852,0.8964181183355295,0.004481921570285297,0.0036195177730152755
1.061,0.0064,-1.038,0.005145821913607358,0.9146129523455633,0.004392685249090327,0.004261957770099552
1.062,-0.0023,-1.038,0.005036702374474148,0.9085884928607256,0.003994615816057035,0.004049240592699687
1.063,0.0031,1.962,0.005086588808430847,0.9036132206858624,0.004176602146268285,0.0038735690894724528
1.064,0.0006,-0.038,0.0049833030593491685,0.9036132206858625,0.00379981445174576,0.0038735690894724567
1.065,-0.0019,-0.038,0.004829517441261804,0.9047013093153903,0.003238802608339977,0.003911988327350405
1.066,-0.0026,-1.038,0.004839463976607217,0.898610402698321,0.003275087692725833,0.003696924973260301
1.067,-0.0005,0.962,0.0048364852450193665,0.9146129523455736,0.0032642212429245137,0.004261957770099917
