time_sec,bts_raw,diy_raw,bts_rms,diy_rms,bts_norm_rms,diy_norm_rms
0.0,0.0226,-0.685,0.02682471693301482,1.3824653090111612,0.13038713898620646,0.10692286170269015
0.001,-0.0007,-1.685,0.02682474580678522,1.334579466429409,0.13038731634568834,0.09992571951071477
0.002,-0.0076,-2.685,0.02686781232814429,1.3307871256555976,0.1306518559541011,0.09937157769751638
0.003,0.011,-1.685,0.026881551958419094,1.2861367513358843,0.1307362527499864,0.09284720637614767
0.004,-0.0183,-0.685,0.027050588888239854,1.275699451621453,0.13177457583276436,0.09132209443774002
0.005,-0.0337,-0.685,0.027051478281030213,1.275699451621453,0.1317800390002797,0.09132209443774002
0.006,-0.0004,1.315,0.027082666204323785,1.2770193487187456,0.13197161335443983,0.09151495953461629
0.007,-0.0307,1.315,0.027084433004706098,1.2718164448030995,0.13198246606941497,0.09075470438306897
0.008,-0.0424,1.315,0.027084434621401636,1.2757840913242011,0.13198247600009874,0.09133446210223717
0.009000000000000001,-0.03859999999999992,1.315,0.027383991908599508,1.2757840913242011,0.13382253098832952,0.09133446210223717
0.01,0.0106,1.315,0.027477863802796997,1.2822853510592498,0.13439914672947376,0.09228443471085188
0.011,0.0314,-0.685,0.028062970564671046,1.2771039009456853,0.13799321257879738,0.09152731441703346
0.012,0.0627,-0.685,0.028879949315304677,1.2574189247084724,0.14301157096841974,0.08865091984295274
0.013000000000000001,0.07929999999999995,-0.685,0.028926513412533814,1.250788422695776,0.14329759472093936,0.08768206218303354
0.014,0.0524,-0.685,0.02893548864133175,1.2521345792224412,0.1433527257934452,0.08787876434220829
0.015,0.0378,-0.685,0.028990762415366345,1.2534792900639937,0.1436922494437696,0.08807525525597618
0.016,0.0073,0.315,0.02910263789231014,1.2521345792224408,0.1443794536554807,0.08787876434220822
0.017,-0.0126,0.315,0.029281261690921434,1.2626811552983084,0.1454766648591405,0.0894198438860284
0.018000000000000002,-0.016099999999999944,1.315,0.029974525147698022,1.2613462545275569,0.14973509199917948,0.08922478643268654
0.019,0.0002,-1.685,0.030174635103889787,1.2520483407903733,0.15096428367243053,0.08786616306928378
0.02,0.0089,-0.685,0.030234983911278785,1.2718164448031049,0.15133498112769408,0.09075470438306975
0.021,-0.0315,-0.685,0.03026740903625281,1.2822853510592542,0.151534155093751,0.09228443471085251
0.022,-0.014,0.315,0.0302675164636826,1.2822853510592542,0.1515348149754715,0.09228443471085251
0.023,-0.0294,0.315,0.030485682313452195,1.2822853510592542,0.1528749164428245,0.09228443471085251
0.024,-0.034,0.315,0.03126578538445653,1.2887538148949866,0.15766676297262533,0.09322961513959824
0.025,-0.0295,0.315,0.03176344636655636,1.2990862356579442,0.16072368601104148,0.09473940202791088
0.026000000000000002,-0.03340000000000001,0.315,0.03206273593209273,1.2990862356579442,0.16256209649720282,0.09473940202791088
0.027,-0.0369,-1.685,0.03206463919262108,1.3054714556592784,0.1625737874297181,0.09567241875827548
0.028,-0.0007,-0.685,0.032078987742312715,1.3054714556592781,0.1626619245626216,0.09567241875827545
0.029,-0.0245,0.315,0.032139459920130176,1.310540754525249,0.163033379830771,0.0964131513645413
0.03,0.0408,0.315,0.032190914059046775,1.3105407545252488,0.16334944106187727,0.09641315136454127
0.031,0.0311,0.315,0.03236468983057064,1.3054714556592781,0.1644168728650466,0.09567241875827545
0.032,0.0392,0.315,0.03248987518555243,1.310540754525249,0.165185834084593,0.0964131513645413
0.033,0.0776,0.315,0.03257761534916888,1.310540754525249,0.16572478517218242,0.0964131513645413
0.034,0.0422,2.315,0.03269596081237198,1.309254651752987,0.16645173180044956,0.09622522433881033
0.035,0.0102,2.315,0.032739060725187286,1.3079672843775805,0.1667164765185967,0.09603711252760744
0.036000000000000004,-0.03050000000000018,-0.685,0.03273909793186638,1.3015943081993084,0.1667167050636476,0.09510588488074476
0.037,-0.0566,2.315,0.03295896557886323,1.3079672843775807,0.16806725995881155,0.09603711252760747
0.038,-0.0036,-3.685,0.03302199863128302,1.3143093588905497,0.16845444560738448,0.09696382478256228
0.039,-0.0385,-1.685,0.03304638654471208,1.314309358890549,0.16860425034816529,0.09696382478256219
0.04,-0.0195,-0.685,0.03310383151200457,1.324442427263949,0.168957110729577,0.09844448203796376
0.041,0.0683,-2.685,0.033126328310785554,1.3244424272639468,0.16909529914489949,0.09844448203796342
0.042,0.105,-2.685,0.033174689533835455,1.283598476033647,0.16939236188886514,0.0924763102562389
0.043000000000000003,0.04779999999999979,-3.685,0.03334146368927732,1.3194265403599903,0.17041678569607524,0.09771155405771682
0.044,0.0169,-0.685,0.03334146930896316,1.3131091811197977,0.17041682021545237,0.09678845323087114
0.045,0.0075,-1.685,0.03336796021206581,1.3131091811197977,0.1705795427412595,0.09678845323087114
0.046,-0.035,0.315,0.03353265434018625,1.3131091811197972,0.17159118981155813,0.09678845323087107
0.047,-0.0272,0.315,0.03360734491038422,1.3169524288847398,0.17204998271074667,0.09735003364045423
0.048,-0.0478,1.315,0.03361507037970719,1.3106231441875988,0.1720974370340821,0.09642519025018118
0.049,-0.0414,1.315,0.0337225816080859,1.3144736606278982,0.17275783349420357,0.0969878327681512
0.05,-0.0004,-0.685,0.03373381875184962,1.305554165230127,0.17282685856326235,0.09568450438936524
0.051000000000000004,0.015199999999999835,1.315,0.033679038792361074,1.3042631453103934,0.1724903682089302,0.09549585886358951
0.052000000000000005,-0.00860000000000015,1.315,0.03368049368161385,1.2952733402954713,0.17249930498443627,0.09418225675122918
0.053,-0.0302,0.315,0.03378328207469798,1.2784223480311248,0.17313069104483197,0.09171996763627391
0.054,-0.0022,1.315,0.03376835520580617,1.269249531735443,0.17303900153922866,0.09037962367527588
0.055,-0.013,-0.685,0.03379238523407598,1.2679215463410458,0.17318660794132557,0.09018557670580676
0.056,-0.0031,-0.685,0.034065915574770164,1.2679215463410456,0.1748667902948743,0.09018557670580674
0.057,-0.0001,-1.685,0.03422337278263546,1.2626811552982862,0.17583398399420183,0.08941984388602515
0.058,-0.0404,0.315,0.034488826208230294,1.2626811552982862,0.17746455324016405,0.08941984388602515
0.059000000000000004,-0.02269999999999945,1.315,0.0358486944195997,1.2626811552982862,0.18581765427493838,0.08941984388602515
0.06,0.057,-0.685,0.03582365140083042,1.2771039009456677,0.18566382549635044,0.09152731441703091
0.061,0.0682,-0.685,0.03593013274120202,1.313109181119794,0.18631789578566652,0.09678845323087058
0.062,0.0164,0.315,0.03610501797400988,1.331971374743758,0.18739214254496317,0.09954462172919294
0.063,0.0072,-0.685,0.03564484108575813,1.350570162832149,0.18456546860016668,0.10226230106480687
0.064,-0.0179,-0.685,0.03852149207595425,1.3894468180514739,0.2022355311562244,0.10794300897035555
0.065,-0.0255,0.315,0.03958161826210884,1.3894468180514739,0.20874744243448115,0.10794300897035555
0.066,-0.0323,2.315,0.04252566038981452,1.435503548793135,0.2268314605310533,0.11467287893863992
0.067,-0.0641,0.315,0.04319337577575961,1.5091444825700255,0.2309329565691554,0.12543338887238603
0.068,-0.0347,-0.685,0.04328124903655768,1.5321961518277838,0.2314727252170027,0.12880172905108403
0.069,-0.0191,2.315,0.043473603722535274,1.5961957914004492,0.2326542795125216,0.13815344041672603
0.07,0.014,-1.685,0.04347831892500961,1.6292880827999856,0.23268324302702859,0.14298892948607944
0.07100000000000001,0.0008000000000004941,1.315,0.04355732220929735,1.6496418729601885,0.23316852712310282,0.1459630520287376
0.07200000000000001,0.03640000000000046,0.315,0.04360826867061874,1.6697475741240484,0.23348146990331034,0.14890092348151018
0.073,0.0694,1.315,0.043678847684218425,1.6697475741240484,0.23391500723185718,0.14890092348151018
0.074,0.056,-1.685,0.04358093173930434,1.6697475741240486,0.2333135505804372,0.14890092348151027
0.075,0.0437,-0.685,0.04352703771893558,1.6777352632530231,0.23298250217916816,0.15006809510484154
0.076,-0.0035,1.315,0.04407317830471252,1.6826842506625888,0.23633721512417596,0.15079124764312898
0.077,-0.0096,0.315,0.044159224121050444,1.6826842506625888,0.23686575854587016,0.15079124764312898
0.078,0.0197,1.315,0.04442142298108228,1.6796780373106026,0.23847633635829144,0.15035197580099002
0.079,-0.0182,0.315,0.04476913846698797,1.68362099557889,0.24061220699696237,0.15092812604024142
0.08,-0.0335,-0.685,0.04540690556307041,1.6885527325550955,0.2445297432300261,0.15164875792255655
0.081,-0.0285,1.315,0.045402325509337364,1.7042510608328028,0.24450160987764907,0.15394261826234065
0.082,-0.0239,0.315,0.04546673209240713,1.7052392807123893,0.24489723254989654,0.1540870182486748
0.083,-0.0278,0.315,0.04538449076730635,1.7130614865655152,0.2443920585249013,0.15523000923846014
0.084,-0.0168,0.315,0.044716914930616296,1.7285372441704883,0.24029141967944245,0.1574913472593099
0.085,-0.0005,0.315000000000111,0.04496375403336338,1.717908708464824,0.24180764893411644,0.15593829166677114
0.08600000000000001,0.03799999999999919,1.315,0.04499891775396772,1.7101718145140772,0.24202364494645856,0.1548077665641756
0.08700000000000001,-0.020399999999999894,1.314999999999889,0.04502323580725452,1.716990670124082,0.24217302056563647,0.15580414669904105
0.088,-0.0127,0.31499999999977796,0.044684738698057246,1.702399759074661,0.24009377455527744,0.15367210361868877
0.089,-0.0195,-1.684999999999667,0.04472369812273357,1.6637478659019054,0.24033308598844225,0.14802423823849653
0.09,0.0122,1.314999999999778,0.044577300397467004,1.6567098826162567,0.2394338260600251,0.14699583887995216
0.091,0.0179,-0.684999999999556,0.044711315239948604,1.6556926976415636,0.24025702312430597,0.14684720647589
0.092,0.0333,3.314999999999667,0.04451407712056691,1.635414215651207,0.2390454719421182,0.14388408806188913
0.093,-0.0002,0.315,0.04364900877241994,1.6148811115634816,0.2337317192904695,0.14088376393270285
0.094,-0.0133,0.315,0.043391298263075334,1.5814873860435814,0.23214871153701164,0.13600422891390002
0.095,-0.0332,0.31499999999977796,0.043452530696420556,1.5814873860435814,0.23252483673654303,0.13600422891390002
0.096,-0.0224,-1.684999999999778,0.04350423626146788,1.574081645303123,0.23284244237309618,0.13492209235319472
0.097,0.0072,0.31499999999977796,0.04345547529140137,1.5740816453031232,0.23254292415058475,0.13492209235319477
0.098,0.0269,-1.685,0.0435918557640113,1.579355469786778,0.23338065229023575,0.13569271051125795
0.099,0.0087,-0.685,0.04343068860294124,1.590909920080531,0.23239066990175838,0.13738106195913058
0.1,0.0119,0.315,0.04336563357467626,1.5856745252243334,0.23199106410218587,0.13661605918868938
0.101,0.0032,-0.685,0.04352999166245416,1.5898506369077154,0.23300064701736306,0.13722627811108398
0.10200000000000001,0.02739999999999968,-1.685,0.04352050846068804,1.584611742292301,0.23294239567960603,0.13646076395123083
0.10300000000000001,0.0044999999999996276,-0.685,0.04351405634812941,1.5846117422923012,0.23290276305370936,0.13646076395123088
0.10400000000000001,-0.02230000000000045,0.315,0.04345164486598687,1.5898506369077157,0.23251939545109315,0.137226278111084
0.105,-0.0547,-0.685,0.04348319638474831,1.5846117422923012,0.2327132032199721,0.13646076395123088
0.106,-0.0328,-0.685,0.0435278378320689,1.584611742292301,0.23298741693913239,0.13646076395123083
0.107,-0.0526,1.315,0.04390236007487669,1.584611742292301,0.23528795026124996,0.13646076395123083
0.108,-0.1066,1.315,0.04402700855351998,1.5982376856855223,0.23605361367424335,0.13845180469066035
0.109,-0.0362,2.315,0.04384203336331778,1.5992914137455334,0.23491738853141894,0.13860577681833014
0.11,0.0296,3.315,0.043856838039461894,1.5940835461841265,0.23500832745813624,0.13784479637234698
0.111,-0.0474,2.315,0.04378041575941624,1.5940835461841265,0.23453889739043407,0.13784479637234698
0.112,0.0251,2.315,0.0433824023408292,1.5982376856855223,0.23209406761144724,0.13845180469066035
0.113,0.1662,3.315,0.04406339862957007,1.5982376856855223,0.23627714267460392,0.13845180469066035
0.114,0.105,-0.685,0.045426803359420564,1.5971832624375455,0.24465196706163908,0.13829773098121226
0.115,0.16,-3.685,0.045755468164960955,1.6013293607316066,0.24667081734749782,0.1389035643077518
0.116,0.076,-4.685,0.04573875465939793,1.6013293607316066,0.24656815328090226,0.1389035643077518
0.117,0.0303,-2.685,0.046038662362646095,1.5856745252243332,0.24841036072820796,0.13661605918868935
0.11800000000000001,0.04389999999999948,-4.685,0.04710789091151215,1.6272187942881273,0.2549781840093694,0.14268656233175872
0.11900000000000001,0.006399999999999527,-3.685,0.04998182110907805,1.6475981478364357,0.27263153387551725,0.1456644202302515
0.12,-0.0277,-2.685,0.051935851526988465,1.6527027220368211,0.28463432456461746,0.14641030731469837
0.121,-0.0379,-2.685,0.052140286384285514,1.6657717771539686,0.28589008229448765,0.1483199748080358
0.122,-0.0285,0.315,0.052151421341882526,1.6688030416939592,0.28595847967671056,0.14876290716265808
0.123,-0.0031,0.315,0.05202423747918942,1.6767952302641358,0.28517724246108467,0.14993073625024558
0.124,-0.0262,-1.685,0.051567757201875564,1.6728361834041316,0.28237327524947914,0.14935223512484824
0.125,-0.0752,1.315,0.0514004749077672,1.6648249890713904,0.28134573015920245,0.1481816288902803
0.126,-0.0433,0.315,0.05136713761893611,1.6638127653380301,0.2811409531525018,0.1480337214293158
0.127,-0.0607,1.315,0.051450553830160735,1.6598227526972054,0.28165334401102166,0.147450695543367
0.128,-0.0557,1.315,0.05144174732427543,1.6648249890713906,0.28159924933272246,0.14818162889028036
0.129,-0.0797,1.315,0.05147273184943019,1.6648249890713906,0.2817895742972803,0.14818162889028036
0.13,-0.0403,2.315,0.051475991573805085,1.6728361834041316,0.2818095974192427,0.14935223512484824
0.131,0.0394,-0.685,0.05136772563352208,1.6876827065837297,0.28114456507989705,0.1515216285852798
0.132,0.0281,-1.685,0.05134473015261902,1.6906746867762887,0.28100331346910085,0.15195882065947514
0.133,-0.0028,2.315,0.051376730446398414,1.6916708375570215,0.2811998778750094,0.15210437951949804
0.134,0.0632,1.315,0.05151902976631588,1.6916708375570215,0.282073963015402,0.15210437951949804
0.135,0.0205,-1.685,0.05150214024347165,1.6995554933306594,0.2819702177483478,0.15325649577366512
0.136,-0.0339,-1.685,0.05150352319664957,1.6995554933306591,0.28197871265066626,0.15325649577366507
0.137,-0.0129,-0.685,0.0513631235348504,1.6946557765650208,0.2811162963146923,0.15254054272656045
0.138,0.019,-0.685,0.05132375195331341,1.68974185223068,0.2808744531745059,0.15182251365086255
0.139,0.0132,-0.685,0.05139160810435342,1.690738552619755,0.28129126509843294,0.151968152820378
0.14,0.0397,0.315,0.05152848587545369,1.6838133884667807,0.2821320479344872,0.15095623874163117
0.14100000000000001,0.05390000000000013,-0.685,0.05156224323768908,1.679870881779172,0.28233940527622237,0.15038015448794145
0.14200000000000002,0.05829999999999856,-0.685,0.05153207765812088,1.678867729547139,0.2821541107515037,0.1502335725666617
0.14300000000000002,0.006499999999999026,-1.685,0.05142832171569723,1.6508590205054867,0.281516781440636,0.14614090322616666
0.14400000000000002,-0.02859999999999983,-0.685,0.05143655782818201,1.6589376594236085,0.281567372431104,0.1473213645521049
0.145,-0.0225,-0.685,0.05142116914832682,1.6599528559536423,0.2814728462141166,0.14746970640202262
0.146,-0.0283,0.315,0.05131458303817423,1.6609674319875836,0.2808181323679038,0.14761795758423665
0.147,-0.0439,1.315,0.051296567359849464,1.652898713731089,0.280707469599263,0.1464389458784012
0.148,-0.0297,2.315,0.05146394071628546,1.6528987137310898,0.2817355740472898,0.14643894587840126
0.149,-0.0339,0.315,0.05149491619848794,1.6498382282665085,0.28192584346477817,0.14599174372391086
0.15,-0.0378,1.315,0.05175955538442573,1.6538523293148109,0.2835514111774558,0.14657828943958826
0.151,-0.0122,0.315,0.05189635223359271,1.6538523293148109,0.28439169694395655,0.14657828943958826
0.152,0.0042,1.315,0.05189616837561073,1.6528333857486222,0.28439056758135606,0.1464294000678277
0.153,0.0192,1.315,0.05193651860699897,1.6457487277559961,0.28463842215781027,0.14539418053981612
0.154,0.0167,0.315,0.05201831575871405,1.6528333857486222,0.2851408678116761,0.1464294000678277
0.155,0.0236,-0.685,0.052427970662487014,1.6739074584485165,0.2876572063597773,0.14950877124091386
0.156,0.0573,-0.685,0.05422646443203902,1.6739074584485165,0.29870460054244713,0.14950877124091386
0.157,0.0331,-2.685,0.05490194125053806,1.6937251346423121,0.30285377181095446,0.15240455610688494
0.158,0.0025,-0.685,0.054649711685705,1.6898057533304425,0.3013044312047159,0.15183185096346177
0.159,-0.0254,0.315,0.053618610220293454,1.6858772601403125,0.29497080663310155,0.1512578143804233
0.16,-0.0508,-0.685,0.053557024147734694,1.674978048331672,0.2945925091759529,0.149665207240321
0.161,-0.0344,1.315,0.05349728085348269,1.6418463511538752,0.29422553113435673,0.14482396014690851
0.162,-0.0789,0.315,0.05330208320519327,1.6337492908449518,0.29302651371172733,0.14364080706315915
0.163,-0.1107,0.315,0.05332790065013435,1.6184080831918455,0.2931850994660302,0.14139912965793977
0.164,-0.0576,1.315,0.05081317237243546,1.5925110217560696,0.2777381765929161,0.1376150170382007
0.165,-0.0223,0.315,0.04991862721709703,1.5914528042891465,0.2722433602568646,0.13746038891249837
0.166,0.0616,-0.685,0.04771181746593779,1.5489495549373764,0.2586878519643402,0.13124975831061247
0.167,0.1186,-3.685,0.04761386809114784,1.4829122586761685,0.25808618996719007,0.12160030187420513
0.168,0.1706,-2.685,0.04809769829183047,1.4590821733294315,0.2610581563064189,0.1181182185145282
0.169,0.1424,-2.685,0.04799576326520775,1.3827776964696357,0.2604320121188843,0.106968508168286
0.17,0.0482,-2.685,0.04833360982277702,1.3336404512891686,0.26250726206298364,0.09978850938549952
0.171,0.0108,-1.685,0.049731326524642065,1.3336404512891664,0.2710928505274078,0.0997885093854992
0.17200000000000001,-0.0006999999999997196,-1.685,0.04961693989116333,1.3172803525369956,0.2703902213325438,0.09739795027508436
0.17300000000000001,0.009400000000000783,-0.685,0.04953616059472972,1.3172803525369956,0.26989402793748796,0.09739795027508436
0.17400000000000002,0.03759999999999786,0.315,0.049543725368440664,1.3172803525369956,0.26994049517496316,0.09739795027508436
0.17500000000000002,-0.039599999999999726,0.315,0.04947480197739054,1.3070917622380018,0.2695171276425159,0.09590918008301495
0.176,-0.0295,-0.685,0.048985932282603624,1.300714496361602,0.2665142058010809,0.09497732561982948
0.177,-0.0012,1.315,0.048827088978399345,1.3273907410591408,0.26553849789231254,0.09887529352084201
0.178,-0.0266,1.315,0.04936729768087459,1.3473839408233375,0.26885677376192496,0.10179672612138192
0.179,-0.0191,-1.685,0.04977474940562202,1.3511296985829842,0.27135957910376096,0.10234406116338723
0.18,-0.0029,2.315,0.04913270798856187,1.346213250069428,0.2674157875066234,0.10162566325130815
0.181,-0.024,-1.685,0.04898238562593525,1.3275534238089295,0.2664924201741805,0.09889906493784296
0.182,-0.03,-0.685,0.0488754033767201,1.3262838183933476,0.26583527301157295,0.09871354852753106
0.183,-0.0473,0.315,0.04885602309940435,1.317444283754446,0.265716228082699,0.09742190411981928
0.184,-0.0104,-1.685,0.048882097256579625,1.3073395677238402,0.26587639071276914,0.09594538974597332
0.185,0.0038,0.315,0.04852436107446045,1.3022578076578781,0.2636789671330042,0.09520283629280324
0.186,-0.0005,0.315,0.0485556179991594,1.3022578076578781,0.26387096533390614,0.09520283629280324
0.187,0.0034,0.315,0.04844396175997529,1.3022578076578781,0.26318510780795623,0.09520283629280324
0.188,-0.0293,-0.685,0.048754049541743755,1.3073395677238402,0.265089847215132,0.09594538974597332
0.189,-0.0423,-0.685,0.04895380304737913,1.3060503126608807,0.2663168493618639,0.09575700210338667
0.19,-0.0223,-0.685,0.04894481018840782,1.3047597836639553,0.2662616099945849,0.09556842831189624
0.191,0.0031,0.315,0.04879729026350473,1.304759783663955,0.26535545686367457,0.09556842831189621
0.192,0.0064,1.315,0.048593222854907046,1.303467976949199,0.26410195621731086,0.09537966781859875
0.193,0.0092,-1.685,0.04837707781084596,1.3021748887139795,0.26277426771329776,0.09519072006784851
0.194,-0.0043,-0.685,0.048569636740720255,1.2918671713948453,0.26395707659355555,0.09368454287918286
0.195,0.0026,-0.685,0.04859348850723816,1.2905624597023369,0.2641035880083501,0.09349389669359202
0.196,-0.0178,0.315,0.048727914432891054,1.2905624597023369,0.26492931018442845,0.09349389669359202
0.197,-0.0421,0.315,0.04875814012841745,1.2905624597023369,0.2651149739763073,0.09349389669359202
0.198,-0.0323,1.315,0.04856626067480347,1.2841031066576076,0.26393633883421447,0.09255004754559013
0.199,-0.053,1.315,0.04849952086900698,1.2631941421639292,0.2635263841516957,0.08949480220038272
0.2,-0.0395,0.315,0.04864165107378975,1.2697598649597064,0.26439943048862574,0.09045419423607082
0.201,-0.0029,0.315,0.048596113432866135,1.3059676345120297,0.26411971182740546,0.09574492106372046
0.202,0.0342,-0.685,0.048581182190592494,1.3262024016429017,0.26402799545794875,0.09870165180505601
0.203,0.0295,-1.685,0.048642146279838504,1.360909312869103,0.2644024723320365,0.1037730712434714
0.20400000000000001,0.06910000000000222,-2.685,0.048646197416483974,1.356028322021115,0.2644273567682064,0.1030598544520409
0.20500000000000002,0.14889999999999842,-0.685,0.04888121201249603,1.3658519181788873,0.26587095302902236,0.10449529122095912
0.20600000000000002,0.0918999999999974,-2.685,0.049048024079415574,1.37438014702182,0.26689560971056603,0.10574144721702058
0.20700000000000002,-0.001700000000000344,-0.685,0.04935828429800189,1.37438014702182,0.2688014083249133,0.10574144721702058
0.20800000000000002,-0.014100000000000315,-0.684999999999778,0.04926704453174322,1.358510751666304,0.26824096064360425,0.10342259033121665
0.209,-0.0255,1.314999999999889,0.049321503901226825,1.3828557823079355,0.2685754817477696,0.10697991817350477
0.21,-0.0154,0.31499999999977796,0.04925657849833945,1.3828557823079355,0.26817667218261654,0.10697991817350477
0.211,0.0127,-1.684999999999889,0.049003773208911236,1.3828557823079355,0.26662379514125034,0.10697991817350477
0.212,-0.0301,-0.6850000000001111,0.048883783942138194,1.3865057133192098,0.2658867513159267,0.10751325088521776
0.213,-0.0379,-1.684999999999778,0.0482440844546891,1.3865057133192098,0.2619573452118053,0.10751325088521776
0.214,-0.0449,0.315,0.04697815753976504,1.3961148754083086,0.2541812862271245,0.10891735426647027
0.215,-0.0637,0.315000000000111,0.04664028593430516,1.3961148754083086,0.2521058824243209,0.10891735426647027
0.216,-0.0696,1.314999999999889,0.04696785571892741,1.3961148754083086,0.2541180064551736,0.10891735426647027
0.217,-0.0745,0.315,0.046824375152760556,1.4008561999958493,0.2532366654136682,0.10961016284054292
0.218,-0.0308,0.315,0.045474412975222235,1.358510751666304,0.2449444129969828,0.10342259033121665
0.219,0.0574,0.31499999999966694,0.04242852147201558,1.3522961331450598,0.2262347768318542,0.1025145021131219
0.22,0.1203,-2.684999999999889,0.03997855467924396,1.3669267993972622,0.21118565664449793,0.10465235427590303
0.221,0.0173,-1.684999999999778,0.04027548451698045,1.3410372465021707,0.2130095723108215,0.10086933881398745
0.222,0.0033,0.315,0.04043997706303969,1.3310305196488088,0.21401998114692217,0.09940714274737979
0.223,-0.0092,0.315,0.04045204946139345,1.327228038368787,0.21409413683519982,0.09885151919009952
0.224,0.0019,0.315,0.04048297742256551,1.3259581213965566,0.21428411435089573,0.09866595725472102
0.225,-0.029,0.31499999999966694,0.04071325693149782,1.327228038368787,0.21569862495439956,0.09885151919009952
0.226,0.0179,-2.685,0.04102581401051178,1.3284967414213074,0.21761853222064,0.09903690374593607
0.227,0.0948,-2.685,0.04104778266357186,1.337263219453001,0.21775347645793783,0.10031787302627956
0.228,0.0845,-1.685,0.04104878455698084,1.3310305196488088,0.21775963066964843,0.09940714274737979
0.229,-0.0009,-0.685,0.04096290041154465,1.3247684968972318,0.2172320803246107,0.09849212776090722
0.23,-0.0122,-0.685,0.04094807882472953,1.3410372465021707,0.21714103752272204,0.10086933881398745
0.231,-0.0225,0.315,0.04099486906809397,1.327309392206993,0.21742845039626166,0.09886340671975544
0.232,0.0245,-0.685,0.04144850825664067,1.3171983792775297,0.22021496598915705,0.09738597223478063
0.233,0.0162,-1.685,0.042218675799353296,1.3360028413020055,0.22494578272874685,0.10013370491598438
0.234,-0.0226,-0.685,0.04275245131158583,1.3422124518243224,0.22822454220432636,0.10104106135870039
0.23500000000000001,0.02689999999999948,-1.685,0.04306219543582274,1.3384417385257903,0.230127170667178,0.10049007978058662
0.23600000000000002,0.00809999999999821,-1.685,0.04306654284041962,1.344640086154346,0.23015387495332368,0.10139579047447811
0.23700000000000002,-0.05639999999999977,1.315,0.04358466791765931,1.3933894882021536,0.2333365003597041,0.10851911710948384
0.23800000000000002,-0.04809999999999892,0.315,0.04360156486339031,1.4183237445084877,0.23344029122244367,0.11216254337954938
0.23900000000000002,-0.00929999999999942,0.315,0.044165478623329056,1.4171354621566017,0.23690417733455768,0.11198891000208157
0.24,0.0116,0.315,0.044767347251006104,1.4253568831126393,0.24060120430718218,0.11319023482687234
0.241,0.0303,0.315,0.0447343667168211,1.424174468982577,0.24039861869489645,0.11301745892168236
0.242,0.0361,0.315,0.04473587021386064,1.4253568831126393,0.24040785404768417,0.11319023482687234
0.243,-0.0437,0.315,0.04473272627560423,1.4288982548246383,0.24038854215136704,0.11370770471123726
0.244,-0.0324,0.315,0.044737008103463205,1.420697327549441,0.24041484362706925,0.112509374449999
0.245,-0.0426,-0.685,0.0447715235667008,1.4381491292984205,0.240626857665838,0.11505945463570943
0.246,-0.0331,0.315,0.04483662754059787,1.4369772412836022,0.2410267641179345,0.11488821682029965
0.247,-0.0077,0.315,0.0449022637537363,1.4369772412836022,0.24142993989283784,0.11488821682029965
0.248,-0.0153,0.315,0.04493744127186737,1.4369772412836024,0.24164602065760957,0.11488821682029968
0.249,-0.0503,1.315,0.04510254224902047,1.4496669499689434,0.2426601668311649,0.1167424537149411
0.25,-0.0314,3.315,0.04483384858956758,1.4531490784625567,0.2410096941853244,0.11725126690244939
0.251,-0.0019,2.315,0.04477117480600035,1.454307935195071,0.24062471537488403,0.11742060056977888
0.252,0.0247,3.315,0.04479708534711854,1.46001446713263,0.24078387298002285,0.1182544465091498
0.253,0.0202,-0.685,0.04471949534325484,1.4679957664691514,0.24030727007384167,0.11942068444761808
0.254,0.0507,-1.685,0.04491375776575385,1.46001446713263,0.24150054279602712,0.1182544465091498
0.255,0.0468,-1.685,0.04444708566355439,1.4600144671326303,0.23863397147154775,0.11825444650914983
0.256,0.0796,-0.685,0.04205703362260249,1.46001446713263,0.22395288251783552,0.1182544465091498
0.257,0.014,-1.685,0.041482713668966734,1.4815571438089556,0.22042507551499707,0.12140229071054731
0.258,0.0233,-2.685,0.041491294937577305,1.4894230079148516,0.22047778665502618,0.12255166110155058
0.259,-0.0022,0.315,0.04146766295650061,1.4938682151503795,0.22033262529017103,0.12320120061934615
0.26,-0.0098,-0.685,0.04142533673663256,1.4882914937509242,0.2200726330438475,0.12238632276624369
0.261,-0.0029,-1.685,0.041461648814581205,1.4938682151503813,0.22029568293452934,0.12320120061934642
0.262,0.0033,0.315,0.0416233493504057,1.4848917778636406,0.22128894162079496,0.12188955181697973
0.263,-0.0141,-1.685,0.04174267574188949,1.4893505093487884,0.22202191368076785,0.12254106751588709
0.264,0.0124,1.315,0.041572765377875874,1.4803466781223773,0.22097822545745704,0.12122541587508762
0.265,-0.0597,0.315,0.04134300827348595,1.4859532163877787,0.21956692376632214,0.12204465060779156
0.266,-0.0495,1.315,0.04089309580199686,1.4859532163877784,0.2168032998359055,0.12204465060779153
0.267,-0.0401,1.315,0.04029807278039715,1.4859532163877793,0.21314832255510416,0.12204465060779165
0.268,-0.0483,2.315,0.03960371163051723,1.4859532163877793,0.2088831527459443,0.12204465060779165
0.269,-0.0095,3.315,0.0395090045296052,1.4949232801594643,0.20830140667966032,0.12335536810376999
0.27,0.0686,0.315,0.03915042875466134,1.5038398404857747,0.20609882583271757,0.12465826760606036
0.271,0.038,0.315,0.037429602011867485,1.4803466781223806,0.19552850767561938,0.1212254158750881
0.272,0.0099,1.315,0.03770919908389779,1.476928674318315,0.1972459554195771,0.120725972671412
0.273,0.0184,0.315,0.03773082396890735,1.5136744467088477,0.19737878803367895,0.12609531318017647
0.274,0.0573,-0.685,0.038176819140208824,1.5191579919430906,0.20011834962924793,0.12689657600967816
0.275,0.0642,-0.685,0.038200537036305854,1.520266532756456,0.2002640387340997,0.12705855744883698
0.276,0.0324,-1.685,0.03811834501893742,1.543152069312567,0.19975916758585874,0.1304026220990387
0.277,0.0031,0.315,0.03889927005081265,1.5213742658379994,0.2045560630771279,0.12722042086116145
0.278,-0.0017,0.315,0.03796370368560793,1.5158275053845165,0.19880927062477555,0.1264099209408231
0.279,-0.0156,-2.685,0.037142426477267516,1.508099366734657,0.19376450860925895,0.12528067517428887
0.28,-0.0198,1.315,0.03720216729517053,1.52455099014141,0.19413147143968013,0.12768460798740278
0.281,-0.0657,0.315,0.038095264270722365,1.5288940673806044,0.19961739221366706,0.1283192241360378
0.28200000000000003,-0.0856999999999998,2.315,0.04205252776552028,1.551652360445447,0.22392520492441778,0.13164469580022514
0.28300000000000003,-0.08229999999999835,1.315,0.042179886164009334,1.5505662583524622,0.22470751424035865,0.13148599313635026
0.28400000000000003,-0.052599999999996684,1.315,0.0422077253579504,1.5419199295915493,0.22487851875224604,0.13022258022520877
0.28500000000000003,0.007200000000003319,1.315,0.042150807669731616,1.5419199295915493,0.22452889722540814,0.13022258022520877
0.28600000000000003,0.06699999999999698,-3.685,0.042115776038082094,1.5343232199040835,0.22431371258020877,0.12911253903122527
0.28700000000000003,0.01260000000000353,-2.685,0.04224912283553439,1.5266887099215947,0.2251328061235904,0.12799697440850133
0.28800000000000003,0.07620000000000046,0.315,0.04187199614582402,1.52999555404791,0.22281627477465296,0.12848017481411234
0.289,0.0845,-1.685,0.041603578298299124,1.535420811787957,0.2211674963260015,0.12927292059843085
0.29,0.0142,0.315,0.041652365733459984,1.544103533297277,0.22146717711250635,0.1305416512657531
0.291,0.0048,-0.685,0.04165553686723784,1.5527377028367262,0.2214866560595247,0.13180328745548928
0.292,-0.0036,-1.685,0.041598658070393306,1.5527377028367262,0.22113727342611472,0.13180328745548928
0.293,-0.0111,-0.685,0.04146362726403675,1.5538222871182679,0.22030783572114215,0.1319617683347632
0.294,-0.0181,2.315,0.041282676631368996,1.5538222871182679,0.21919633175013753,0.1319617683347632
0.295,-0.0243,0.315,0.041155591142537265,1.5591646397384296,0.21841569880395215,0.13274239991410997
0.296,-0.0301,0.315,0.04097634288358257,1.5591646397384291,0.21731465180186935,0.1327423999141099
0.297,-0.0457,0.315,0.040983709697586385,1.5591646397384291,0.217359903055751,0.1327423999141099
0.298,-0.0503,2.315,0.0415286212604198,1.5591646397384291,0.22070706662741849,0.1327423999141099
0.299,-0.0198,-1.685,0.04175343884684279,1.5591646397384293,0.22208802692789809,0.13274239991410994
0.3,-0.0316,-0.685,0.04146147523933927,1.5591646397384282,0.22029461673449546,0.13274239991410977
0.301,0.0155,1.315,0.041344491607841614,1.5235164430405668,0.21957603526818506,0.12753343860667113
0.302,0.0218,-1.685,0.04192923193608487,1.5147870004571826,0.22316785026914338,0.12625788099466204
0.303,0.0511,-0.685,0.04260107392998622,1.479208221074086,0.2272946943320772,0.12105906303640152
0.304,0.0246,-2.685,0.04270943329628305,1.4870865097323476,0.22796030054830754,0.12221024891930983
0.305,0.0387,-0.685,0.04242886419602528,1.4870865097323476,0.2262368820419445,0.12221024891930983
0.306,0.0604,-3.685,0.04217522814584787,1.4780688871491714,0.22467890198514215,0.12089258206735186
0.307,0.0086,-1.685,0.041417153629205374,1.4825481384726917,0.22002236764125466,0.12154709615198465
0.308,0.0016,1.315,0.04149488034263045,1.4735027419788866,0.22049981029702995,0.12022537093973856
0.309,-0.0173,0.315,0.04143018790392095,1.4495179723670137,0.22010243173327765,0.11672068491214012
0.31,-0.0232,1.315,0.04146403601498073,1.4506797297645513,0.22031034650704376,0.11689044242845135
0.311,-0.0388,0.315,0.041454297003569326,1.4735027419788866,0.22025052383774527,0.12022537093973856
0.312,-0.0436,1.315,0.04146101831045977,1.4735027419788866,0.22029181001170847,0.12022537093973856
0.313,0.0045,0.315,0.04154181226517319,1.4825481384726917,0.22078809344643968,0.12154709615198465
0.314,0.0105,1.315,0.04151906037368002,1.4791352218389382,0.22064833810339557,0.121048396292314
0.315,-0.0189,0.315,0.04150428970089036,1.4735027419788866,0.2205576080450472,0.12022537093973856
0.316,-0.0035,1.315,0.041073479711622014,1.4825481384726917,0.2179113226645509,0.12154709615198465
0.317,0.0011,0.315,0.04079923595359685,1.4769286743183019,0.2162267580870515,0.12072597267141008
0.318,0.0141,-1.685,0.04065496810995853,1.4712877472331474,0.21534058112967824,0.11990171299921143
0.319,-0.0218,-1.685,0.04036801067542183,1.4622465386170287,0.21357792176068627,0.11858059972515153
0.32,-0.036,0.315,0.04035969263077086,1.4300012559319757,0.213526827495227,0.11386887668127767
0.321,-0.049,1.315,0.03978833789116757,1.431178856083963,0.2100172345606312,0.11404094916167057
0.322,-0.0132,3.315,0.03964327003056642,1.432355488081284,0.2091261434340288,0.1142128801740325
0.323,0.0589,1.315,0.03964481473964787,1.4277187736056842,0.20913563193513415,0.11353535736686932
0.324,-0.0136,-0.685,0.03961320192732168,1.4277187736056842,0.20894144766555103,0.11353535736686932
0.325,0.0146,-2.685,0.03919675102364974,1.4358795989360988,0.20638336413560976,0.11472782787928222
0.326,-0.0796,-0.685,0.03867663452262295,1.4439943035814462,0.20318850624673024,0.11591355917663682
0.327,-0.0424,2.315,0.038611564261360955,1.4358795989360988,0.20278880687723524,0.11472782787928222
0.328,-0.0312,-0.685,0.03873854479659189,1.4416590777663487,0.20356879513739584,0.11557233291439213
0.329,-0.0211,2.315,0.03874140953896148,1.4416590777663487,0.20358639205028173,0.11557233291439213
0.33,0.0829,1.315,0.03883801951047773,1.4171354621566001,0.20417982665394033,0.11198891000208135
0.331,0.1795,-2.685,0.03879481104626398,1.4171354621566,0.20391441515000389,0.1119889100020813
0.332,0.0409,0.315,0.038347467615393406,1.4229910723427002,0.20116657176042899,0.11284453945086825
0.333,0.0223,0.314999999999889,0.037583830556561004,1.4136410069413379,0.1964758690489497,0.11147829561782077
0.334,0.0055,-0.685,0.03672903283286377,1.4136410069413379,0.19122520454290337,0.11147829561782077
0.335,0.0207,-0.685,0.036370975229712,1.4089427059946993,0.18902580660831672,0.1107917737146466
0.336,0.0345,-0.6850000000001111,0.036366736509388445,1.4042286854516297,0.18899976992415515,0.11010295484340218
0.337,-0.0028,-1.684999999999667,0.035964930334499,1.357110983906951,0.18653164283125995,0.10321805442833024
0.338,0.0085,1.3149999999996669,0.03600467174896347,1.3372632194529994,0.18677575770026794,0.10031787302627934
0.339,-0.0222,-1.685,0.03522216832479024,1.3434670044206622,0.18196916680599765,0.10122437823130037
0.34,-0.0127,-1.684999999999778,0.03426158441687725,1.333478511149498,0.17606870206383307,0.09976484647966406
0.341,-0.0211,0.314999999999889,0.034479081409126804,1.3434670044206622,0.17740469501949643,0.10122437823130037
0.342,-0.0135,-0.684999999999889,0.03511490247819216,1.3483934662024588,0.1813102776234113,0.10194423929528212
0.343,-0.0203,0.315000000000111,0.03589249625131591,1.3446400861543444,0.1860867105869947,0.10139579047447787
0.34400000000000003,-0.0013000000000009547,1.314999999999778,0.03678487563215488,1.3433866290678904,0.1915682234771231,0.10121263367922081
0.34500000000000003,-0.01850000000000086,-0.684999999999889,0.036755332278704436,1.3296830303847464,0.1913867510269148,0.0992102458468667
0.34600000000000003,-0.03400000000000186,0.315,0.0389513018155431,1.3296830303847453,0.2048756724217521,0.09921024584686654
0.34700000000000003,-0.06749999999999881,0.315,0.039466157678544986,1.3396998221850691,0.20803821641391576,0.10067391261673951
0.34800000000000003,-0.04589999999999801,0.315000000000111,0.039541593523838625,1.3656147304298447,0.2085015872259644,0.1044606330356424
0.34900000000000003,-0.009999999999999218,1.314999999999889,0.039377249543001897,1.3521364273259375,0.20749209096382015,0.1024911656891386
0.35000000000000003,0.004100000000003648,0.31499999999977796,0.039341735632984404,1.3434670044206423,0.20727394388454012,0.10122437823129746
0.35100000000000003,0.06980000000000053,-1.684999999999889,0.03921598436915934,1.3422124518243008,0.20650150652392005,0.10104106135869724
0.352,0.0793,-0.6850000000001111,0.03921598436915934,1.3619880947979293,0.20650150652392005,0.10393070427534808
0.353,0.0365,-1.685,0.03919895861571894,1.377817439469419,0.20639692444935445,0.1062437089026157
0.354,0.0135,-1.685,0.03896941910168963,1.3765941923353058,0.204986959324698,0.10606496642526023
0.355,0.0067,0.315,0.03961783764134891,1.3508899259254894,0.20896992291580987,0.10230902526785352
0.356,0.0005,1.315,0.04112495955315346,1.3595120146956186,0.21822754177605827,0.10356889619971466
0.357,-0.029,0.315,0.04068032670606242,1.3107879079765044,0.21549634836769796,0.09644926575135028
0.358,-0.0026,0.315,0.0407142183701549,1.300548456393637,0.21570453066950798,0.09495306364170059
0.359,-0.0169,-0.685,0.04071685770203703,1.3044287124378209,0.21572074298015056,0.09552005174963822
0.36,-0.0039,-2.685,0.040686834136287264,1.3057195686543739,0.21553632078685625,0.09570867335489026
0.361,0.008,-1.685,0.04062255101514382,1.3006314790272109,0.21514145648952765,0.09496519501792682
0.362,0.0261,-1.685,0.04044163493209642,1.3108702821049967,0.21403016474237466,0.0964613023671625
0.363,0.0031,1.315,0.040236220379927155,1.310870282104997,0.2127683891571105,0.09646130236716254
0.364,-0.0056,0.315,0.04030399108610292,1.3108702821049967,0.2131846762290129,0.0964613023671625
0.365,0.0024,-1.685,0.04032242406790066,1.3045114881214372,0.2132979023181599,0.0955321470412124
0.366,-0.0143,0.315,0.040288626533335294,1.3108702821049945,0.2130902982146222,0.09646130236716217
0.367,-0.0208,0.315,0.04029880299070507,1.3045114881214348,0.21315280793128083,0.09553214704121205
0.368,-0.0027,-1.685,0.04041919934873721,1.3045114881214355,0.21389235234775675,0.09553214704121214
0.369,-0.0048,1.315,0.04080450047135013,1.3006314790272004,0.21625909581531433,0.09496519501792529
0.37,-0.0113,-0.685,0.04097879525017939,1.296739860508716,0.21732971566304818,0.09439654661032397
0.371,-0.0171,-0.685,0.04084140913249897,1.303136577530303,0.21648581026680078,0.09533124330038346
0.372,0.0105,-0.685,0.04057387093989859,1.2980383630567076,0.21484243517003204,0.09458628550756544
0.373,-0.0094,0.315,0.04082973053265332,1.2656027112173878,0.21641407351787187,0.08984674547291613
0.374,0.0014,-1.685,0.040854603334329845,1.269589776677932,0.21656685672413029,0.09042934071301269
0.375,-0.0085,-1.685,0.04096356149279652,1.2682621475508713,0.21723614106994096,0.09023534580179456
0.376,-0.0234,-0.685,0.041041564839066125,1.2416723491488413,0.2177152829654518,0.08635000954698543
0.377,-0.0315,1.315,0.04028369949172009,1.2510473807076914,0.2130600334609716,0.08771990146774551
0.378,0.005,0.315,0.0400670166721102,1.2309457856379762,0.21172904162693312,0.0847826300028406
0.379,0.0315,0.315,0.039974671557811786,1.2309457856379762,0.211161804255434,0.0847826300028406
0.38,0.0075,1.315,0.040010818485866746,1.2309457856379762,0.2113838396994685,0.0847826300028406
0.381,0.0294,1.315,0.03932834028761196,1.224171905132064,0.20719166188665517,0.08379282168923731
0.382,0.0393,-1.685,0.03517943375661793,1.2021312527239174,0.18170666624701973,0.08057221262006586
0.383,-0.0205,1.315,0.034951609291558265,1.2021312527239174,0.1803072359500791,0.08057221262006586
0.384,-0.0122,-0.685,0.03490344537389343,1.203531833775222,0.18001138517048054,0.08077686736224012
0.385,-0.0046,-0.685,0.03489951252773055,1.2021312527239179,0.17998722734321604,0.08057221262006592
0.386,-0.0398,-0.685,0.03484746127276311,1.2021312527239179,0.17966749827822673,0.08057221262006592
0.387,-0.0211,1.315,0.03467624765192901,1.2007290379768458,0.1786158046939517,0.08036731916012112
0.388,-0.0153,1.315,0.034675646419024986,1.2186548111649933,0.1786121115719633,0.08298665667484546
0.389,0.0216,0.315,0.034665216539358466,1.2118122275791605,0.17854804518824569,0.08198680937699726
0.39,-0.0412,-1.685,0.034600574092385386,1.200729037976854,0.17815097370279825,0.08036731916012231
0.391,-0.0667,1.315,0.03457737345688826,1.189542588716891,0.17800846191323055,0.07873274050649103
0.392,-0.0744,1.315,0.034629572882791185,1.1895425887168913,0.1783291011302362,0.0787327405064911
0.393,-0.0813,0.315,0.03483708193308724,1.189542588716892,0.1796037423405102,0.07873274050649119
0.394,-0.0105,1.315,0.03480979992522205,1.1895425887168918,0.17943616038938864,0.07873274050649116
0.395,0.1312,0.3149999999995559,0.034818537474709935,1.182531562583453,0.17948983149741105,0.07770828016242234
0.396,0.0703,-1.685,0.0347760255615472,1.203442112484745,0.17922869861492954,0.08076375716947189
0.397,0.0518,-2.684999999999112,0.03460976882772395,1.2048411697134682,0.17820745311207403,0.08096818924868976
0.398,0.0351,1.315,0.03411221906868854,1.2048411697134684,0.1751512132703726,0.08096818924868979
0.399,-0.0106,-0.684999999999778,0.03386729953853055,1.204841169713468,0.1736467751463731,0.08096818924868973
0.4,0.0032,0.315,0.0338967606513016,1.1979196844410287,0.17382774242652274,0.07995681273279698
0.401,0.0155,-2.685,0.03401143596605212,1.1993251838038206,0.1745321448695661,0.08016218614510345
0.402,-0.0185,-2.685,0.03329159047460622,1.1881255170378784,0.1701104354206635,0.07852567613214398
0.403,-0.0286,0.315,0.03233518291423968,1.188125517037878,0.16423562423280677,0.07852567613214391
0.404,0.0755,0.315,0.03213500480786267,1.188125517037878,0.16300601394150277,0.07852567613214391
0.405,0.1169,-1.684999999999778,0.03219099578804905,1.1782499387234238,0.16334994308891768,0.07708264366223898
0.406,0.0034,-0.685,0.03219320364977537,1.1782499387234238,0.16336350505905312,0.07708264366223898
0.40700000000000003,0.018699999999999235,0.3149999999995559,0.032221430197856796,1.1711713129327086,0.1635368889252365,0.07604830556749086
0.40800000000000003,0.004899999999999317,-1.685,0.03209222312042584,1.1711713129327086,0.16274322394861213,0.07604830556749086
0.40900000000000003,-0.007399999999999373,-0.685,0.03210555015846888,1.1726088735683768,0.1628250863631734,0.07625836381508637
0.41000000000000003,0.003899999999999439,-0.685,0.03206381576375293,1.1711713129327086,0.16256872945095732,0.07604830556749086
0.41100000000000003,-0.006200000000000522,-1.684999999999334,0.0321307652148762,1.148113644069015,0.1629799718969383,0.07267908871849614
0.41200000000000003,-0.015600000000000454,1.315,0.03215392312041798,1.1364093837292468,0.1631222212142817,0.07096884682999977
0.41300000000000003,-0.023799999999999575,0.315,0.032090696322299814,1.1245833162368808,0.1627338454670065,0.06924080632043346
0.41400000000000003,-0.016099999999999618,0.315,0.032107721684507644,1.1186716620295192,0.16283842513839425,0.06837698764567421
0.41500000000000004,-0.00919999999999895,1.314999999999778,0.0323353487495095,1.1201765992747124,0.16423664288943274,0.06859689105191874
0.41600000000000004,0.00969999999999773,0.315,0.03239941361086171,1.1096964843721397,0.16463016650825085,0.0670655229020037
0.417,-0.0312,0.31500000000022205,0.032654967215591975,1.1112135769340923,0.16619992529977598,0.06728720245909298
0.418,-0.0577,1.315,0.032629467457175106,1.112728601096167,0.16604329096077342,0.06750857977887632
0.419,-0.0436,1.315,0.032653087503381,1.1021776687824245,0.16618837901471448,0.06596686369585814
0.42,-0.0131,1.315,0.03265077486290835,1.0946072079506113,0.16617417343261198,0.06486065801912722
0.421,0.0149,-0.685,0.03268026089060155,1.0930670672756817,0.1663552937546963,0.06463561064150763
0.422,0.0475,-1.685,0.03268085303533451,1.0930670672756817,0.16635893105185515,0.06463561064150763
0.423,0.0606,-1.685,0.0326878939649801,1.0991164457386275,0.1664021805345746,0.06551955376532427
0.424,0.0328,0.315,0.03278488470797318,1.1006481215301676,0.1669979540579833,0.0657433642430686
0.425,0.0292,-0.685,0.03321652646503057,1.0899802572951098,0.16964934863973993,0.06418456191417668
0.426,0.0131,-1.685,0.03370828942371565,1.127479636454357,0.17267004258986868,0.06966402043346853
0.427,-0.0075,-0.685,0.03373922271686542,1.125984460143423,0.17286005285767114,0.06944554330775404
0.428,-0.0153,-0.685,0.03382211163397515,1.1421347023664514,0.1733692047692254,0.07180543790658976
0.429,-0.0271,2.315,0.03381843054991141,1.1652180165446107,0.1733465934111211,0.0751784020826064
0.43,-0.0382,0.315,0.033708898561354846,1.1652180165446104,0.17267378426733548,0.07517840208260637
0.431,-0.0362,1.315,0.03483070019900381,1.1595135524648699,0.17956454202011865,0.07434485830133496
0.432,-0.0087,0.315,0.03517302563501881,1.182348926031903,0.18166730383916796,0.07768159306970875
0.433,-0.0127,-0.685,0.03496402071671991,1.2005491697650568,0.18038347413808437,0.08034103658084822
0.434,-0.0017,0.315,0.03491796453487378,1.1950133728511634,0.1801005702970943,0.07953213866730975
0.435,0.0081,-0.685,0.03494465141728588,1.2047515459329723,0.1802644966417413,0.08095509330420801
0.436,-0.0006,0.315,0.034945200118555474,1.2047515459329723,0.1802678670838948,0.08095509330420801
0.437,0.0019,-2.685,0.03471841103125614,1.2144116326693597,0.17887479667901499,0.0823666378617862
0.438,-0.0002,0.315,0.03471608028827619,1.2185662033582658,0.17886047990078985,0.08297370918578473
0.439,-0.0067,0.315,0.03483239940369471,1.2117231194054818,0.17957497952306428,0.08197378877366064
0.44,-0.0008,0.315,0.0348068938243075,1.213112626361017,0.17941830942827822,0.08217682535442081
0.441,-0.0284,0.315,0.034594348294791834,1.2034421124847476,0.17811273123497218,0.08076375716947228
0.442,-0.0403,-0.685,0.03397635880927454,1.2076344217129913,0.1743166805825668,0.08137634289838935
0.443,-0.0149,0.315,0.03316524861515461,1.2021312527239347,0.16933437027839668,0.08057221262006839
0.444,0.0079,0.315,0.032186144396462495,1.2021312527239347,0.16332014302171782,0.08057221262006839
0.445,-0.0068,2.315,0.03277234051464122,1.2021312527239347,0.1669209003306989,0.08057221262006839
0.446,0.0014,-0.685,0.032852402661541026,1.2035318337752403,0.1674126885764448,0.08077686736224278
0.447,0.0337,0.315,0.03510854248494333,1.237595347533485,0.1812712108478636,0.08575427271786193
0.448,0.021,0.315,0.03568834161995535,1.2307703333939723,0.18483267416771948,0.08475699269057864
0.449,0.0173,0.315,0.035686379781476464,1.2253710727091023,0.1848206234153811,0.0839680456300966
0.45,0.0282,-0.685,0.03760030354110028,1.2253710727091034,0.1965770556956044,0.08396804563009677
0.451,0.0053,0.315,0.04236431840893117,1.2321383606143776,0.2258404042976613,0.0849568906242388
0.452,-0.0036,-0.685,0.04721849137279432,1.2575906590907309,0.25565755633373033,0.08867601389637494
0.453,-0.0065,-1.685,0.0472259389366317,1.229400783889428,0.25570330360002896,0.08455687231876131
0.454,-0.0233,-0.685,0.04714404967590488,1.2575906590907309,0.2552002921590708,0.08867601389637494
0.455,-0.0077,0.315,0.04657028600213329,1.2575906590907309,0.2516759021505191,0.08867601389637494
0.456,-0.0135,0.315,0.04534127346615056,1.2482647714717792,0.24412659273933002,0.08731330295263864
0.457,0.0031,0.315,0.045861925223774774,1.2535654300545893,0.24732473848537134,0.08808784214450348
0.458,0.0096,-0.685,0.04584391714001332,1.2535654300545904,0.24721412236695306,0.08808784214450364
0.459,-0.0042,0.315,0.04598563126164138,1.2428546315472313,0.24808461287928105,0.0865227662033705
0.46,-0.0211,1.315,0.04598887747551427,1.2414984128155908,0.24810455301188658,0.08632459374159314
0.461,-0.0146,0.315,0.04598952534349416,1.2401407109231024,0.24810853259361954,0.08612620455840529
0.462,-0.0166,0.315,0.045991790014723324,1.2360586573802075,0.2481224435207444,0.08552972953499666
0.463,0.0109,-0.685,0.04600416095445205,1.2401407109231115,0.24819843302368677,0.08612620455840662
0.464,0.0387,-0.685,0.045958274781849356,1.2468278376560684,0.24791657347829496,0.08710333629679833
0.465,0.0205,-0.685,0.04593082757281705,1.2468278376560684,0.24774797676557486,0.08710333629679833
0.466,0.0432,-0.685,0.04597717261106748,1.240140710923114,0.24803265493051002,0.08612620455840697
0.467,0.0163,-0.685,0.04606598288512166,1.2508747479897546,0.24857817925845468,0.08769467614833448
0.468,0.0127,-0.685,0.04610808765757553,1.2615174542700456,0.24883681124603468,0.0892498023638436
0.46900000000000003,0.0027999999999988507,0.315,0.04584789991245923,1.256250349133294,0.2472385868704697,0.08848016604557236
0.47000000000000003,-0.01789999999999805,0.315,0.045767438218322236,1.2496136466253462,0.24674434437333934,0.08751040236114582
0.47100000000000003,0.01719999999999974,-0.685,0.04575696412476437,1.242941507862324,0.2466800064021999,0.08653546068460012
0.47200000000000003,0.012499999999997813,1.315,0.04584445053830533,1.242941507862324,0.24721739880932278,0.08653546068460012
0.47300000000000003,-0.02690000000000147,-0.685,0.045598701136535545,1.2535654300546046,0.24570786313148588,0.08808784214450573
0.47400000000000003,-0.05340000000000026,-0.685,0.045221726388326305,1.2863046516102323,0.24339226509557077,0.09287174018468783
0.47500000000000003,-0.05799999999999831,3.315,0.04545873992095596,1.2863046516102323,0.24484813998705793,0.09287174018468783
0.47600000000000003,-0.02750000000000066,0.315,0.04546719115201536,1.2849942920571078,0.244900052360858,0.09268026872628814
0.47700000000000004,-0.03939999999999779,2.315,0.04546661902515998,1.281055171417301,0.24489653802513942,0.09210467924634912
0.47800000000000004,0.00040000000000086044,2.315,0.04556068683954509,1.2901440533327213,0.2454743572219629,0.09343275860549782
0.47900000000000004,0.015900000000004005,0.315,0.04576382868734794,1.2901440533327215,0.24672217253590364,0.09343275860549785
0.48,0.088,-0.685,0.04573557251887671,1.2706611101131973,0.246548606724068,0.09058588536123038
0.481,0.0571,-2.685,0.045652177477601946,1.2706611101131968,0.24603634590368617,0.09058588536123031
0.482,-0.0089,-2.685,0.045544882171433425,1.2654320641676693,0.24537727576329355,0.08982181030195233
0.483,0.0099,-0.685,0.04555375520794577,1.271986235337818,0.24543177911137773,0.09077951439893635
0.484,0.0183,-1.685,0.045622725162115345,1.2771884475751136,0.24585543266157142,0.09153966848153494
0.485,-0.005,-0.685,0.045817225874672796,1.2876136776567961,0.24705016909981195,0.09306301678935797
0.486,0.0019,-1.685,0.04604652678826389,1.286304651610219,0.24845866860188034,0.09287174018468587
0.487,0.0207,-1.685,0.046123870543151306,1.2876136776567972,0.2489337589037066,0.09306301678935812
0.488,-0.0323,0.315,0.04614234276051738,1.270661110113192,0.24904722600052162,0.0905858853612296
0.489,0.017,-0.685,0.046178192739552065,1.297955174556655,0.2492674374110595,0.09457412989471158
0.49,-0.0149,-0.685,0.04619364226894154,1.308214924019728,0.24936233740125785,0.09607329795726795
0.491,0.0145,-1.685,0.046203124158997584,1.308214924019728,0.24942058068172912,0.09607329795726795
0.492,0.0094,-0.685,0.04616585824865156,1.308214924019728,0.24919167179800744,0.09607329795726795
0.493,-0.0145,0.315,0.046306715455416425,1.3069265324773118,0.2500568986411279,0.09588503649343688
0.494,-0.0626,1.315,0.046769412755071724,1.3069265324773118,0.25289905441786004,0.09588503649343688
0.495,-0.1332,-0.685,0.04700430134231569,1.3132736330096666,0.2543418766595745,0.09681248315694349
0.496,-0.1424,3.315,0.047363223020495324,1.3346603721635089,0.25654658224526217,0.09993754156281036
0.497,-0.0824,2.315,0.04785714062380261,1.3333975337043573,0.2595805112751383,0.09975301394905702
0.498,0.0349,-0.685,0.047979939638005197,1.3333975337043573,0.26033481420245796,0.09975301394905702
0.499,0.1189,-0.685,0.04795154056899077,1.3333975337043573,0.2601603706124191,0.09975301394905702
0.5,0.1952,1.315,0.04792045154329133,1.333397533704357,0.25996940374477046,0.09975301394905699
0.501,0.2091,-3.685,0.048302984837371235,1.342132001341014,0.2623191456005616,0.1010293058284482
0.502,0.0203,0.315,0.050644537861699465,1.342132001341014,0.27670232540207973,0.1010293058284482
0.503,-0.0067,-2.685,0.05088369109119682,1.3470633454868,0.2781713435555171,0.1017498803098666
0.504,0.018,0.315,0.050885846563578536,1.3371017180770293,0.27818458371984445,0.10029427423317189
0.505,-0.0487,-0.685,0.051032238450766564,1.3371017180770293,0.27908380778738956,0.10029427423317189
0.506,-0.069,1.315,0.05163446127684384,1.338361061380417,0.282783010452481,0.1004782911301759
0.507,-0.0136,0.315,0.05162080245403937,1.3643013996267963,0.2826991100230512,0.1042687274143026
0.508,0.0364,0.315,0.0516208556422761,1.3740658504209984,0.2826994367361191,0.10569552178503828
0.509,-0.0092,0.315,0.05162493598741809,1.3825434124930598,0.28272450058785326,0.10693427428601476
0.51,0.0046,0.315,0.05174170138076058,1.3837614005177077,0.2834417415085545,0.10711224829538997
0.511,-0.0077,1.315,0.05171789400580883,1.3777390680740313,0.28329550277256377,0.10623225717142032
0.512,-0.0189,-1.685,0.05180184080846865,1.387408949072712,0.28381115283210706,0.10764523287946462
0.513,0.012,1.315,0.05177650413085219,1.3886226694468948,0.2836555202301782,0.10782258329415047
0.514,0.0026,0.315,0.05180095851533574,1.3886226694468948,0.2838057332748148,0.10782258329415047
0.515,-0.0226,0.315,0.05165885843335321,1.393389488202159,0.28293287196963396,0.10851911710948461
0.516,-0.0302,-1.685,0.05174278707535278,1.3981400550598384,0.2834484104758454,0.10921327617620501
0.517,-0.0369,-1.685,0.05230583986947597,1.4028745351217913,0.2869070080354478,0.10990508461921193
0.518,-0.0306,-0.685,0.05254629876390329,1.4016731556102546,0.28838404634185755,0.10972953746757946
0.519,0.0341,0.315,0.05262177353717856,1.4004707455079652,0.2888476562721979,0.10955383972467303
0.52,-0.0087,0.31499999999977796,0.05334694414095624,1.4016731556102546,0.2933020756564876,0.10972953746757946
0.521,-0.032,-0.685,0.05361975430359435,1.4028745351217913,0.2949778342577821,0.10990508461921193
0.522,0.0031,2.315000000000222,0.0538022865807753,1.4016731556102546,0.2960990536087842,0.10972953746757946
0.523,-0.0158,3.315,0.0538335693276122,1.396934603847995,0.2962912104242676,0.1090371340623776
0.524,-0.0568,0.315,0.05384946126204512,1.4016731556102546,0.2963888279234093,0.10972953746757946
0.525,-0.0305,0.315,0.05397818254230146,1.4016731556102546,0.29717950885139716,0.10972953746757946
0.526,0.0129,1.3149999999993338,0.05367044482523493,1.363145237932298,0.29528920490769445,0.10409978754946658
0.527,0.0302,-1.685,0.05360001120343104,1.363145237932298,0.29485656066007243,0.10409978754946658
0.528,0.0457,-0.685,0.05349437157898025,1.3434670044206694,0.2942076606792247,0.10122437823130141
0.529,0.0218,-0.685,0.0535485867736866,1.3297642340286566,0.29454068191997135,0.09922211142993494
0.53,-0.0264,0.31499999999977796,0.05360836936444673,1.3310305196488144,0.29490790134356315,0.0994071427473806
0.531,0.0182,-0.685,0.0533012175617914,1.3310305196488144,0.29302119642676144,0.0994071427473806
0.532,0.0125,1.315,0.053254757636346,1.3146379418310654,0.2927358125578917,0.0970118377532586
0.533,0.0281,1.315,0.05329314699250609,1.289005145774164,0.2929716222988535,0.09326633993766012
0.534,0.0422,-1.684999999999556,0.053293309727542634,1.2941389467760902,0.29297262191204454,0.09401649768072283
0.535,0.0466,0.315,0.05352583391026221,1.2850783195696498,0.2944009206067607,0.09269254693674858
0.536,0.0267,-0.6850000000002221,0.0537509329776604,1.2837667082819921,0.29578360992701264,0.0925008925732554
0.537,-0.0132,-1.685,0.053754397312797034,1.2733099815141777,0.2958048898872122,0.09097294192829976
0.538,-0.0182,-2.684999999999778,0.05391718249495697,1.2733099815141777,0.2968048111017664,0.09097294192829976
0.539,-0.0137,-1.685,0.05408669240718112,1.274632352938842,0.2978460395174069,0.09116616857714036
0.54,-0.0094,0.315,0.054067451100957425,1.2733099815141777,0.2977278482297631,0.09097294192829976
0.541,-0.0215,0.315,0.05404788517721769,1.271986235337813,0.29760766295263824,0.09077951439893564
0.542,-0.0541,0.315,0.054511433892378336,1.268006705220656,0.3004550486183253,0.0901980202331087
0.543,-0.0673,0.315,0.05468149028320475,1.2771884475751087,0.30149963382320455,0.09153966848153423
0.544,-0.0476,1.315000000000444,0.05469427796049428,1.2876136776567972,0.3015781831704917,0.09306301678935812
0.545,-0.0586,3.315,0.05434627864727789,1.2915327952836435,0.29944056909949185,0.09363568340277949
0.546,-0.0686,0.315,0.05269058885870682,1.2915327952836435,0.2892703599788219,0.09363568340277949
0.547,-0.0481,0.315,0.05075075835249622,1.2482647714717823,0.2773547934016774,0.08731330295263909
0.548,-0.013,0.315,0.05026859087544045,1.22811763202953,0.27439304047749274,0.08436937648421948
0.549,0.0012,0.315,0.05022532283477493,1.2335048706155456,0.2741272630203582,0.08515656685983192
0.55,0.0669,-1.685,0.04881670647864162,1.2335048706155456,0.2654747225435363,0.08515656685983192
0.551,0.1523,0.315,0.044753330509692706,1.2335048706155456,0.24051510533421538,0.08515656685983192
0.552,0.0494,1.315,0.03962338896128873,1.178158292120877,0.20900402234981827,0.07706925214034323
0.553,0.008,0.315,0.03958892978593655,1.1795873377702708,0.2087923540639614,0.07727806616696416
0.554,0.0451,-0.685,0.03966155088022263,1.1566974465645123,0.2092384350391293,0.07393336520963835
0.555,0.079,-0.685,0.03963590411948565,1.1681984570946877,0.20908089772642535,0.0756139079690908
0.556,0.0064,-2.685,0.03948924131674574,1.1681984570946877,0.20818000953807955,0.0756139079690908
0.557,-0.0032,-1.685,0.03900529473295507,1.161058552052041,0.20520732830614857,0.074570615669591
0.558,-0.0116,-1.685,0.03919148966619772,1.162508618216637,0.20635104581975433,0.07478250124149317
0.559,-0.035,-0.685,0.039052035203781914,1.162508618216637,0.20549443544782992,0.07478250124149317
0.56,-0.0141,0.315,0.03967430870694357,1.1625086182166369,0.20931680102687225,0.07478250124149313
0.561,-0.0329,-1.685,0.03983913145625912,1.1696396715626491,0.21032923816331772,0.07582450011945846
0.562,-0.0036,-0.685,0.03999411338118528,1.1639568778793858,0.21128122723597084,0.07499412284497346
0.5630000000000001,-0.019299999999998447,-0.685,0.04020667680393656,1.1524135374478996,0.2125869153399312,0.07330739478476248
0.5640000000000001,-0.0053000000000033975,1.315,0.040546012292524754,1.1466453739333395,0.2146713111638525,0.07246454315843813
0.5650000000000001,-0.035900000000005775,1.315,0.04054523386528058,1.1466453739333393,0.21466652961122523,0.07246454315843809
0.5660000000000001,-0.0878999999999961,1.315,0.04048954435366914,1.1582462025978213,0.21432445225903887,0.07415967147473626
0.5670000000000001,-0.05279999999999071,0.315,0.04057047196236548,1.1466453739333393,0.2148215566742252,0.07246454315843809
0.5680000000000001,0.030900000000006308,0.315,0.04042395238967577,1.1364093837292768,0.2139215482881062,0.07096884683000415
0.5690000000000001,0.08769999999999659,-0.685,0.04031574557043382,1.1349259717237867,0.21325687910456126,0.0707520887200476
0.5700000000000001,0.05689999999999896,-0.685,0.04025914863206149,1.1581529730668723,0.21290922780972962,0.07414604865326396
0.5710000000000001,0.04749999999999719,0.315,0.0406359962263788,1.1653106808438958,0.21522404479252696,0.07519194231168581
0.5720000000000001,0.022200000000000854,-0.685,0.040964967707692326,1.1638641057933228,0.2172447788592525,0.07498056686594853
0.5730000000000001,0.029900000000003906,1.315,0.04105595025130859,1.1407533953592364,0.21780364652957043,0.07160359951304464
0.5740000000000001,0.06509999999999357,-0.685,0.04120308220572198,1.0915247534655115,0.21870741652020886,0.06441024572251339
0.5750000000000001,0.007099999999999145,-0.685,0.04108884777169948,1.0930670672757086,0.21800572222287742,0.06463561064151156
0.5760000000000001,-0.0005999999999976574,0.315,0.04116650957084029,1.1052304130054802,0.2184827661373846,0.06641293468997263
0.577,0.0205,0.315,0.041270568958953,1.0992146824446207,0.21912195938806509,0.06553390824178842
0.578,-0.0241,1.315,0.04116104089221589,1.0946072079506464,0.21844917433437427,0.06486065801913235
0.579,-0.0299,-0.685,0.04090766454571096,1.1052304130054884,0.21689278952849197,0.06641293468997383
0.58,-0.0668,-0.685,0.04087520591503381,1.1037050963448114,0.21669340975092985,0.0661900534167807
0.581,-0.0526,-1.685,0.040901500837670725,1.1275754021030986,0.21685492845079454,0.0696780138358026
0.582,-0.0221,-0.685,0.040941035013523266,1.1334406182762373,0.21709777033978192,0.07053504692402823
0.583,-0.01,1.315,0.040923780893749366,1.1334406182762373,0.21699178550644843,0.07053504692402823
0.584,-0.0531,-0.685,0.04089700682415155,1.1275754021030988,0.21682732360742557,0.06967801383580263
0.585,-0.0494,0.315,0.04097500986896014,1.117164697478938,0.21730646365118764,0.06815678800690454
0.586,-0.0064,0.315,0.041046140036132016,1.1481136440690554,0.21774338648535607,0.07267908871850204
0.587,0.0467,-1.685,0.04096658007390344,1.1768192690328743,0.21725468294977676,0.076873592328592
0.588,0.0536,-0.685,0.04125320999293496,1.1768192690328745,0.21901533052815383,0.07687359232859205
0.589,0.009,0.315,0.04161789043196846,1.1481136440690594,0.22125540977052768,0.07267908871850262
0.59,0.0032,0.315,0.04209717783167721,1.1481136440690594,0.22419947158548095,0.07267908871850262
0.591,0.0724,1.315,0.042215143155339516,1.1481136440690594,0.22492408317571644,0.07267908871850262
0.592,0.0441,-1.685,0.042246799142427086,1.1495800388978175,0.22511853264978107,0.07289336025625161
0.593,0.0187,-1.685,0.04189908646997844,1.1495800388978175,0.22298267929299873,0.07289336025625161
0.594,0.0111,-1.685,0.04137749437459922,1.1611515482924069,0.21977875744585532,0.07458420440233698
0.595,0.0043,-0.685,0.04110290834373246,1.155427007807671,0.21809209042960234,0.07374772703040741
0.596,-0.0145,0.315,0.04078278850667838,1.1068511863731758,0.21612572830730856,0.06664976422252959
0.597,-0.0438,-0.685,0.0405627675663977,1.1068511863731758,0.21477423179568716,0.06664976422252959
0.598,-0.028,1.315,0.04027949815047208,1.1083721734645287,0.21303422638082023,0.06687201285336836
0.599,-0.0137,-0.685,0.04029034244219467,1.1203693708683886,0.21310083832428062,0.06862505909029509
0.6,-0.0092,1.315,0.040439368128708506,1.1277669090043554,0.21401624071829137,0.06970599707566208
0.601,-0.021,0.315,0.039885578681909284,1.1277669090043554,0.21061454402266278,0.06970599707566208
0.602,0.0118,-0.685,0.0371039182941314,1.1292597252979557,0.19352796896393723,0.06992412935254509
0.603,0.0249,1.315,0.036880000075474796,1.1337263803865256,0.1921525331030741,0.07057680285878813
0.604,-0.011,-1.685,0.03692656476591144,1.1337263803865252,0.19243856049941907,0.07057680285878806
0.605,-0.0348,-0.685,0.03701981894322575,1.1337263803865252,0.19301138186439293,0.07057680285878806
0.606,0.031,0.315,0.03683041566646378,1.1322394532295545,0.19184795683990702,0.07035953111028179
0.607,0.0405,-0.685,0.03721857284146266,1.108372173464522,0.1942322438414196,0.06687201285336739
0.608,0.0153,0.315,0.037231712827375016,1.0962436876173651,0.19431295727306228,0.06509978257672488
0.609,-0.0706,0.315,0.037262162689710734,1.0962436876173651,0.19449999802779033,0.06509978257672488
0.61,-0.0365,1.315,0.03717507689836907,1.0947058493066268,0.193965066475094,0.06487507162358394
0.611,0.036,-0.685,0.03775495073374023,1.1068511863731678,0.19752698864797846,0.06664976422252843
0.612,0.0454,0.315,0.037638967533830295,1.1022756326669705,0.19681455241402274,0.0659811783072942
0.613,0.0537,-0.685,0.03796144878280327,1.1082747484725186,0.1987954197009923,0.0668577769856172
0.614,-0.0007,0.315,0.03831801024226531,1.1187681816339778,0.20098562745134022,0.0683910912170076
0.615,-0.0077,-1.685,0.03840387288695752,1.1232765566150291,0.20151304572631018,0.06904986088871806
0.616,-0.0396,0.315,0.038250476103229174,1.117357988699442,0.20057079351232396,0.06818503197383524
0.617,0.0132,-0.685,0.03730818763000008,1.1114079031480784,0.19478270996497812,0.06731559766063021
0.618,-0.0079,0.315,0.037160679033286036,1.1129226627734645,0.1938766264183899,0.06753693632596527
0.619,-0.0266,2.315,0.03703680290865027,1.1129226627734645,0.19311570725267393,0.06753693632596527
0.62,-0.0559,1.315,0.036170959167414,1.112922662773463,0.18779719168594097,0.06753693632596505
0.621,-0.0609,0.315,0.03599531612267902,1.1114079031480757,0.18671829000527793,0.06731559766062982
0.622,-0.0275,0.315,0.03604867801391394,1.1188646929120738,0.1870460697600845,0.06840519357168191
0.623,0.0382,0.315,0.03693400641985794,1.1247753325778813,0.19248427146373254,0.06926886400029718
0.624,0.0478,-0.685,0.037208037394880066,1.11735798869944,0.19416752900433823,0.06818503197383495
0.625,0.0396,-1.685,0.0368356776400098,1.1232765566150271,0.19188027894016993,0.06904986088871777
0.626,0.032,-0.685,0.03698262713121193,1.1291641024985544,0.1927829281357004,0.06991015682354419
0.627,-0.0031,1.315,0.037119959343886934,1.1291641024985544,0.19362650241607,0.06991015682354419
0.628,0.0031,-1.685,0.038334617747730115,1.1365043969279631,0.2010876404037155,0.07098273028334816
0.629,-0.0145,0.315,0.03844813263017605,1.1306550740637655,0.2017849147969941,0.07012801954629286
0.63,-0.0302,2.315,0.03845294600621449,1.1291641024985544,0.20181448135059923,0.06991015682354419
0.631,-0.0256,1.315,0.03788032406827923,1.135021109099659,0.19829710454723623,0.07076599031832505
0.632,-0.0039,1.315,0.03752494916886808,1.1305595692830612,0.1961141853384588,0.07011406426233893
0.633,-0.0239,-0.685,0.037490652113679974,1.1290684716006942,0.19590351288888885,0.06989618311118587
0.634,-0.0492,-0.685,0.03753223379514504,1.1290684716006942,0.19615893174754703,0.06989618311118587
0.635,-0.0525,-2.685,0.03741670771440108,1.1275754021030944,0.19544930340522845,0.06967801383580198
0.636,-0.0078,-2.685,0.03713095876069537,1.1349259717237867,0.19369406722798066,0.0707520887200476
0.637,0.0503,-1.685,0.03743326821444149,1.1349259717237867,0.19555102762296322,0.0707520887200476
0.638,0.0579,-0.685,0.03719245609354274,1.1304640564338446,0.19407181959423822,0.0701001077994034
0.639,0.0648,-1.685,0.03691127221764127,1.1866157597525755,0.19234462477850733,0.07830506841530993
0.64,0.0329,0.315,0.03750194061109684,1.2088499944259568,0.19597285340193674,0.08155396397925023
0.641,0.027,-0.685,0.03754234823537211,1.2102428000853418,0.1962210605188651,0.08175748257094813
0.642,0.0005,0.315,0.03693626335483908,1.2033523845047143,0.192498134870325,0.0807506459992173
0.643,-0.0136,-1.685,0.036817421032302865,1.1921905506351052,0.1917681362432135,0.07911966417874446
0.644,-0.0006,-0.685,0.03687400893449433,1.1809232222096784,0.1921157320325696,0.0774732673552616
0.645,-0.0285,0.315,0.036943370785286395,1.1809232222096784,0.19254179283962503,0.0774732673552616
0.646,-0.054,0.315,0.037080121544911256,1.190776630140541,0.19338179549736662,0.07891306025960648
0.647,-0.0048,-0.6850000000002221,0.0372482493429198,1.201951594349127,0.19441453416408291,0.08054596070245072
0.648,0.016,-1.685,0.03704837880520182,1.211634004678468,0.1931868131382699,0.08196076721274208
0.649,0.0347,1.3149999999993338,0.0369467027984719,1.2061490843020723,0.19256226000148308,0.0811593034456635
0.65,0.0053,-1.685,0.036973271295222064,1.215798066990362,0.19272545915257783,0.08256922546515408
0.651,0.0422,-0.6850000000002221,0.03696255898304162,1.2089393143711862,0.1926596579041839,0.0815670155269239
0.652,0.028,-1.685,0.0369156215876789,1.2103320172444612,0.1923713411375326,0.08177051909938043
0.653,-0.0202,0.31499999999977796,0.03690176851187874,1.2103320172444612,0.19228624749328557,0.08177051909938043
0.654,-0.0522,-0.685,0.03714217188643735,1.2034421124847758,0.19376294476438843,0.0807637571694764
0.655,-0.0696,0.31500000000022205,0.037377475649794156,1.2144116326693877,0.19520831725912655,0.08236663786179028
0.656,-0.054,1.315,0.03741167914757124,1.2198594022645322,0.19541841502469381,0.08316267310793363
0.657,-0.0104,0.3149999999995559,0.037311519437991145,1.2641000683841697,0.19480317586641266,0.08962717732916195
0.658,0.019,-1.685,0.03717452192203847,1.2693346015213314,0.19396165748786814,0.09039205418408619
0.659,0.024,0.3149999999995559,0.037363216070958244,1.2798238093147287,0.19512072663693694,0.09192475099914747
0.66,0.0674,-1.685,0.03672782473011796,1.3069265324773165,0.19121778367357808,0.09588503649343756
0.661,0.0144,1.315,0.03660639276041768,1.3272280383687929,0.1904718779282437,0.09885151919010036
0.662,0.0495,1.315,0.03657810281858512,1.3521364273259633,0.19029810466079056,0.10249116568914236
0.663,0.0556,-1.685,0.03632253388097585,1.3582722819696522,0.18872825168580973,0.10338774482603208
0.664,0.0262,-1.685,0.0359800011210674,1.3582722819696524,0.1866242163628911,0.10338774482603211
0.665,0.0106,-0.685,0.03604004357267068,1.359512014695648,0.1869930320028366,0.10356889619971897
0.666,0.0246,-0.685,0.036036328856705865,1.359512014695648,0.18697021405804595,0.10356889619971897
0.667,-0.0411,-0.684999999999778,0.035833235215354836,1.3607506179445934,0.1857226948561543,0.10374988253273623
0.668,0.006,0.315,0.03581407500375335,1.359512014695648,0.18560500169881983,0.10356889619971897
0.669,-0.0368,-0.684999999999778,0.035820168345166804,1.3993444678482496,0.185642430543792,0.10938926655423709
0.67,-0.0444,0.315,0.0357298429377023,1.3801824487969143,0.1850875993857062,0.1065892871707976
0.671,-0.0514,1.315,0.035307425245019765,1.374144431310559,0.182492864369215,0.10570700412779731
0.672,-0.0834,1.315,0.03477905516043493,1.3801824487969143,0.17924730817237966,0.1065892871707976
0.673,-0.0541,0.31500000000022205,0.03481580374557015,1.3861941659927277,0.17947303934393954,0.10746772718081174
0.674,-0.0385,1.315,0.03466440095241036,1.3861941659927277,0.1785430353791162,0.10746772718081174
0.675,-0.0337,1.315,0.03435889040289576,1.3945980037154244,0.17666641199315222,0.10869570698305925
0.676,0.0319,0.315,0.03428041197650766,1.3945980037154244,0.1761843518793933,0.10869570698305925
0.677,0.0979,1.315,0.0343403810682666,1.3933894882021587,0.17655271690053131,0.10851911710948457
0.678,0.0381,-0.685,0.03435755403465585,1.3933894882021587,0.1766582032426025,0.10851911710948457
0.679,0.0305,0.315,0.034362098301591065,1.389757636218616,0.17668611677166468,0.10798842612904143
0.68,0.0095,1.315,0.03444627198692749,1.389757636218616,0.17720316047649284,0.10798842612904143
0.681,-0.0093,1.315,0.03439617109520976,1.3716902951585952,0.17689541167631384,0.10534840253100088
0.682,-0.0152,0.315,0.03443621186789545,1.3656147304298702,0.1771413653775311,0.10446063303564614
0.683,-0.0203,1.315,0.03467012405728765,1.3607506179445934,0.17857819001606776,0.10374988253273623
0.684,-0.0442,0.315,0.03472717347917298,1.3656147304298702,0.17892862072766128,0.10446063303564614
0.685,-0.0176,1.315,0.03468478790371596,1.3837614005177077,0.17866826388480736,0.10711224829538997
0.686,0.0479,0.315,0.034471723881736326,1.3643013996267963,0.1773595008093921,0.1042687274143026
0.687,0.0196,1.315,0.03459405418032439,1.3396192208064535,0.17811092461294675,0.10066213503746689
0.6880000000000001,0.02810000000000431,-3.685,0.03424990157294754,1.3296018217814474,0.17599693924527282,0.09919837953912605
0.6890000000000001,0.06689999999999453,2.315,0.03381786112222312,1.338361061380417,0.17334309565525585,0.1004782911301759
0.6900000000000001,0.01769999999999504,-0.685,0.03344837704467529,1.3296018217814474,0.17107350967281024,0.09919837953912605
0.6910000000000001,-0.02700000000000063,0.315,0.033327452233761684,1.3396192208064535,0.1703307191915509,0.10066213503746689
0.6920000000000001,-0.032699999999999445,0.315,0.03330583882186755,1.3445597809262866,0.17019795705199323,0.10138405616911361
0.6930000000000001,-0.027699999999994125,0.315,0.03339954408070843,1.3544665580050657,0.17077354922191335,0.10283164744342556
0.6940000000000001,0.025200000000000767,-1.685,0.03337898897371165,1.3544665580050654,0.17064728780621943,0.10283164744342552
0.6950000000000001,0.03210000000000068,-1.685,0.033467225197731265,1.3593531566464043,0.17118928598516103,0.10354568365298346
0.6960000000000001,0.03819999999999807,-1.685,0.033475007795350335,1.3593531566464043,0.1712370912236993,0.10354568365298346
0.6970000000000001,0.020799999999997067,-1.685,0.03304142793851535,1.365456582374471,0.16857379170650671,0.10443752423414342
0.6980000000000001,-0.005600000000001554,-0.685,0.03334427217275554,1.3703039903905343,0.17043403703414753,0.10514583385807891
0.6990000000000001,-0.019599999999997567,-1.685,0.0336819297005156,1.3666107886578032,0.17250812584727718,0.10460617837173236
0.7000000000000001,0.0022999999999986677,0.315,0.033526351595094414,1.3617502340537586,0.17155247468746862,0.10389594775109962
0.7010000000000001,-0.009699999999999601,-0.685,0.03518557224359615,1.377582311907437,0.18174437240229346,0.1062093517545373
0.7020000000000001,-0.006100000000004763,-0.685,0.03561827075485042,1.4240228244254216,0.18440225818261008,0.11299530041988208
0.7030000000000001,-0.04899999999999937,0.315,0.03553108020136864,1.4391700144942323,0.18386668311995177,0.11520862772093984
0.704,-0.0433,2.315,0.03574188528037471,1.4633244032078634,0.1851615704545179,0.11873809871439642
0.705,-0.0383,1.315,0.03552477963020448,1.4712877472331585,0.18382798134938974,0.11990171299921305
0.706,-0.0146,3.315,0.03484654680572079,1.472432328255935,0.17966188109008038,0.12006896068109171
0.707,0.0249,1.315,0.03442581503697414,1.4758607453609953,0.1770775019984175,0.12056992548998177
0.708,0.0405,-1.685,0.03447906723640661,1.4758607453609962,0.1774046079624105,0.12056992548998191
0.709,0.0166,-2.685,0.03446239287837636,1.4679222096428484,0.17730218436271739,0.11940993622757884
0.71,0.021,-2.685,0.034392623974500346,1.4679222096428495,0.17687362319900365,0.119409936227579
0.711,0.033,-2.685,0.03404868167056465,1.4599405081810601,0.174760929637313,0.11824363953003858
0.712,-0.0141,1.315,0.03417397679390217,1.4599405081810601,0.17553056511790774,0.11824363953003858
0.713,-0.0202,-0.685,0.03381413411274916,1.4553916791357295,0.17332020219658592,0.11757895865733958
0.714,0.0208,-0.685,0.03348837226490345,1.4644752081064487,0.17131918356435405,0.11890625583718017
0.715,-0.0057,-1.685,0.033440229688143974,1.4610200740421424,0.17102346387300152,0.11840138711112581
0.716,-0.0104,-0.685,0.03356052428926031,1.4598665454826116,0.17176238323935009,0.11823283200342855
0.717,-0.0061,0.315,0.0341052040175679,1.4587121047295666,0.17510812274859638,0.11806414360481728
0.718,-0.0103,3.315,0.03386071248095943,1.4632506115546369,0.1736063136097673,0.1187273161811388
0.719,0.0078,0.315,0.03425687179961191,1.4644014744426446,0.17603975442918254,0.11889548177741309
0.72,0.0111,0.315,0.03457292025711922,1.4723589930735532,0.17798110777163964,0.12005824484795326
0.721,0.0022,1.315,0.035091158494516085,1.481411373236388,0.1811644282734845,0.12138099052308753
0.722,0.0318,1.315,0.03487410505615094,1.499352180541054,0.17983115988361353,0.12400252484265727
0.723,-0.0202,0.315,0.0342932610289215,1.502719181915737,0.17626327822837076,0.12449451550438602
0.724,-0.0133,-1.685,0.03413451610599143,1.5203375570668358,0.17528817463457688,0.12706893561432434
0.725,-0.0321,-1.685,0.034073025213483855,1.520337557066832,0.17491046182863007,0.12706893561432378
0.726,-0.0379,0.315,0.034163858015880476,1.5159699666212019,0.17546840970133357,0.12643073756377862
0.727,-0.0113,1.315,0.0340540231698009,1.5214452384370314,0.17479374023059294,0.12723079147051877
0.728,-0.0064,1.315,0.03270438418957162,1.5214452384370316,0.16650347307965171,0.1272307914705188
0.729,-0.0281,0.315,0.03250060428841783,1.5257971560116212,0.16525173847113417,0.1278666993805691
0.73,0.0238,-0.685,0.03371743515722139,1.5345343311776045,0.1727262210014029,0.12914338688770044
0.731,0.0305,0.315,0.03533479071030756,1.5345343311775987,0.18266095896433932,0.1291433868876996
0.732,-0.0404,-0.685,0.035345413546546474,1.5378243046482907,0.18272621059948868,0.1296241221309598
0.733,-0.0311,1.315,0.035312766266831365,1.5464935319090531,0.1825256720298752,0.13089088100096494
0.734,0.0461,2.315,0.0352709254340165,1.5422000183199596,0.18226866131298394,0.13026350715795953
0.735,0.0358,1.315,0.03523929219983281,1.5508447855203353,0.18207435160048105,0.131526691891825
0.736,-0.0301,-0.685,0.03556141082522135,1.5454736733152035,0.18405299144260484,0.13074185792416115
0.737,0.0127,0.315,0.03527724385579653,1.5508447855203338,0.1823074727324051,0.13152669189182478
0.738,0.0203,-1.685,0.035232480077588384,1.5454736733152017,0.18203250758582348,0.1307418579241609
0.739,0.0414,-0.685,0.0351556868342063,1.5193001408878148,0.18156079884567092,0.12691734700012228
0.74,-0.0166,-1.685,0.03451723060916627,1.5071968166886855,0.17763902958196448,0.12514879337652673
0.741,-0.0242,1.315,0.0344985780983795,1.5115897565037153,0.17752445501815642,0.12579069551021219
0.742,0.025,-1.685,0.03440209775467431,1.5170808369471245,0.17693181666386498,0.12659305939437096
0.743,-0.0069,-1.685,0.03427180084590694,1.5181908944421179,0.17613145730966212,0.12675526245304067
0.744,-0.0243,1.315,0.03421884962289429,1.518190894442118,0.17580620011779488,0.1267552624530407
0.745,-0.0294,0.315,0.03428609606927305,1.5093591155511703,0.17621926688127607,0.12546475132540322
0.746,-0.0056,1.315,0.03420062823332116,1.5015976869863106,0.17569427375108831,0.12433064119277963
0.747,-0.0451,1.315,0.03414923561061943,1.4926677330514948,0.17537859038833267,0.12302578459882868
0.748,-0.0502,1.315,0.03455078102524263,1.4926677330514946,0.1778451157400947,0.12302578459882865
0.749,0.0126,-0.685,0.03472810865944105,1.500475353822199,0.17893436514848063,0.12416664439722047
0.75,0.1069,-2.685,0.03479631569334592,1.4926677330514921,0.179353332398929,0.12302578459882829
0.751,0.0696,-3.685,0.03510745356030625,1.4982281652533067,0.18126452203975946,0.12383828225298384
0.752,0.0128,-2.685,0.03523066364853115,1.5060069592445657,0.18202135002267822,0.12497492984451362
0.753,0.0437,-2.685,0.035322646854277474,1.504887914483431,0.18258636434147588,0.1248114135547151
0.754,0.0343,-1.685,0.03511573026758397,1.504887914483431,0.1813153623870431,0.1248114135547151
0.755,-0.0084,-0.685,0.03526077817310168,1.4870865097323145,0.18220633093792332,0.122210248919305
0.756,-0.0009,-1.685,0.03520448255477942,1.48262096966736,0.18186053052599413,0.12155773834177667
0.757,-0.0218,0.315,0.03554788410939851,1.4543079351950354,0.18396990249104897,0.11742060056977367
0.758,-0.0157,-0.685,0.03562225736845089,1.4497414330289362,0.18442674628073089,0.11675333727746323
0.759,-0.0098,0.315,0.035508247183500194,1.4646226642980664,0.18372642945155265,0.11892780232950878
0.76,-0.0468,-0.685,0.035472650073366564,1.4646226642980666,0.18350777130879573,0.11892780232950881
0.761,-0.0326,1.315,0.03545114984035296,1.4416590777663145,0.18337570437971226,0.11557233291438714
0.762,-0.0021,-0.685,0.03530098470445176,1.422991072342665,0.18245330282521147,0.11284453945086313
0.763,-0.03,2.315,0.03528430353305838,1.4171354621565653,0.18235083737388144,0.11198891000207624
0.764,-0.0191,1.315,0.035226523331134435,1.4218066907396925,0.18199591778649413,0.11267147605594821
0.765,0.0303,0.315,0.03517456784586741,1.4218066907396925,0.1816767769946749,0.11267147605594821
0.766,0.0655,0.315,0.0351859491224129,1.4135646216913405,0.1817466874110626,0.1114671341047976
0.767,-0.0052,1.315,0.03521413774734091,1.4135646216913405,0.18191983833119324,0.1114671341047976
0.768,-0.0523,-0.685,0.03520938119710855,1.4135646216913405,0.18189062083472138,0.1114671341047976
0.769,0.0594,-1.685,0.035278077144917465,1.3753698572516684,0.1823125912785702,0.10588606497529181
0.77,0.0747,-1.685000000000222,0.0352750537485737,1.3753698572516684,0.18229401982075058,0.10588606497529181
0.771,0.0335,-2.685,0.03525883586970476,1.3850562791836367,0.18219440018141397,0.1073014576662263
0.772,-0.0542,-1.6849999999991119,0.035384644778080565,1.3790396015491337,0.182967191628373,0.1064222928303978
0.773,-0.0429,2.315,0.03579121512846527,1.3742230077066602,0.18546458305653726,0.1057184858139661
0.774,-0.0326,1.3149999999995559,0.03596743142098903,1.3742230077066602,0.18654700595834336,0.1057184858139661
0.775,-0.0419,-0.685,0.03600411413354372,1.3644596815739165,0.18677233250222247,0.1042918557802394
0.776,-0.0164,1.315,0.03601512779683161,1.3546259891096315,0.1868399848242913,0.10285494372575715
0.777,-0.024,1.315,0.03775010477688783,1.3802606814567915,0.19749722196407496,0.10660071862977803
0.778,0.0111,1.3149999999993338,0.038245791557421874,1.3839174567798056,0.2005420183088864,0.107135051441309
0.779,0.0948,-1.685,0.03825376578676614,1.3778958064072402,0.20059100066087482,0.10625515998246562
0.78,0.1061,1.3149999999993338,0.03820074852735902,1.3778958064072402,0.2002653378350863,0.10625515998246562
0.781,0.0127,-1.685,0.0381306182960335,1.37789580640724,0.19983455718814094,0.1062551599824656
0.782,0.0004,-1.684999999999778,0.03800896560858773,1.387564595103307,0.19908729566611222,0.10766797608181783
0.783,-0.0108,-0.685,0.037840479204085814,1.411408572261679,0.19805235422985856,0.11115208933125073
0.784,-0.0416,-1.684999999999556,0.037801303336543066,1.4149848537203744,0.1978117132787917,0.11167466027363931
0.785,-0.0509,0.315,0.03765353680043102,1.4149848537203744,0.19690404531848285,0.11167466027363931
0.786,-0.0168,1.314999999999778,0.03778133603828168,1.4149848537203744,0.1976890625260391,0.11167466027363931
0.787,-0.0083,0.315,0.037809052212430416,1.413793765060271,0.19785931137885157,0.1115006168347301
0.788,-0.0158,2.314999999999778,0.037788961362915915,1.413793765060271,0.19773590170248295,0.1115006168347301
0.789,0.0053,1.315,0.038047407884359036,1.4043055785169232,0.19932343047008785,0.11011419055906316
0.79,-0.0136,1.315,0.03945931162771727,1.427870025640743,0.2079961639901772,0.11355745851282546
0.791,-0.008,1.315,0.03977648782021193,1.4429768315042586,0.20994444453646996,0.11576488482078118
0.792,-0.0132,-0.684999999999778,0.03972754066401151,1.438374356183958,0.20964378265049555,0.1150923650839462
0.793,0.0201,0.315,0.03965492881385974,1.438374356183958,0.20919775845817412,0.1150923650839462
0.794,0.0331,0.31499999999977796,0.039727087252098205,1.4348563726461603,0.20964099753095927,0.11457831271030416
0.795,0.0211,-0.685,0.04015313148154918,1.4383743561839581,0.21225800884435914,0.11509236508394623
0.796,-0.0333,0.3149999999995559,0.04012838434228503,1.4476392647331593,0.2121059975296841,0.1164461656859453
0.797,-0.0565,-1.685,0.04029465968299443,1.4430516598745549,0.21312735732685037,0.11577581884049824
0.798,-0.0355,-1.684999999999778,0.040046334323250915,1.4430516598745549,0.21160199861775503,0.11577581884049824
0.799,-0.0293,-0.685,0.03976111837563469,1.4372777808069952,0.209850036473741,0.1149321320500651
0.8,-0.0467,1.3149999999993338,0.03995097203391726,1.4372777808069952,0.21101622800332961,0.1149321320500651
0.801,-0.031,-1.685,0.03853513277746029,1.4126781094067968,0.20231932027410546,0.11133759576579282
0.802,-0.0262,0.315,0.03791749725876506,1.3658519181788495,0.1985254438916793,0.1044952912209536
0.803,0.0307,0.315,0.03836333039667313,1.3461330386903632,0.2012640101839573,0.10161394265928196
0.804,0.0538,0.315,0.03813439165219229,1.3299266264418417,0.19985773533509005,0.09924584042257016
0.805,0.0327,-0.685,0.037982206037209566,1.3211114659952827,0.19892292282358218,0.09795775760384672
0.806,0.0514,-1.685,0.03799190695778868,1.3261209798938627,0.19898251151684684,0.09868975435217998
0.807,0.0339,-0.685,0.0383418736223669,1.316000836263075,0.20113221020351665,0.09721098567713907
0.808,0.0288,-2.685,0.03837008203260832,1.316000836263075,0.2013054826565433,0.09721098567713907
0.809,0.0048,-2.685,0.03835869560063915,1.3248500017661946,0.20123554057254658,0.09850403735937566
0.81,-0.017,-0.685,0.038395773068792605,1.3248500017661944,0.20146329193478157,0.09850403735937563
0.811,-0.0052,1.315,0.0384547161725184,1.323577803170298,0.20182535474102142,0.09831814203015132
0.812,-0.009,0.315,0.03915914393289796,1.3185586271814609,0.2061523595235105,0.09758473344450339
0.8130000000000001,0.000599999999999023,1.315,0.039158740586939966,1.3172803525369554,0.20614988193817468,0.09739795027507848
0.8140000000000001,-0.008199999999997914,-0.685,0.03943751105194819,1.3033022877731237,0.20786225218130272,0.09535545709864136
0.8150000000000001,0.010600000000000767,-0.685,0.03965195331541417,1.303302287773124,0.2091794812170879,0.09535545709864139
0.8160000000000001,0.01749999999999827,-0.685,0.03953633430430906,1.3033022877731237,0.20846928204247148,0.09535545709864136
0.8170000000000001,0.0018999999999970913,0.315,0.03900271920580718,1.3045942585529922,0.2051915079212729,0.09554424156534846
0.8180000000000001,-0.024299999999998,-0.685,0.03900000360374229,1.2982047240648158,0.2051748271148325,0.09461059439650157
0.8190000000000001,-0.006299999999999634,0.315,0.038650433598921674,1.2982047240648158,0.20302756494296903,0.09461059439650157
0.8200000000000001,-0.0030000000000029864,-1.685,0.038262131420347775,1.2943058089879245,0.20064238724520927,0.0940408798062055
0.8210000000000001,-0.029900000000003618,0.315,0.037530046356649006,1.2852463581139242,0.19614549522876384,0.09271710094947193
0.8220000000000001,-0.0624999999999976,-0.685,0.037518553348164445,1.257676517488017,0.1960748984898575,0.08868855963811814
0.8230000000000001,-0.04089999999999779,0.315,0.037125256153180165,1.2483512712798601,0.19365903849774202,0.08732594241816935
0.8240000000000001,-0.02099999999999397,0.315,0.037177390877112984,1.2268331381143847,0.19397928027763653,0.0841816845468028
0.8250000000000001,0.03330000000000955,0.315,0.03761939116851509,1.2268331381143893,0.19669430299867177,0.08418168454680348
0.8260000000000001,0.11929999999999369,-2.685,0.037565037727070656,1.2254591884843933,0.19636043256609811,0.08398092122287781
0.8270000000000001,0.06239999999999195,-1.685,0.037592549306151905,1.2200364235998749,0.1965294246770766,0.08318853969788224
0.8280000000000001,-0.010100000000001054,0.315,0.03863240971557486,1.213201632477119,0.20291685177431332,0.08218983104497034
0.8290000000000001,-0.019599999999997203,0.315,0.04045302862065106,1.2063281175451135,0.21410015140053754,0.08118546401820663
0.8300000000000001,0.005599999999999145,-0.685,0.03979218072710676,1.1966027749613337,0.2100408394927796,0.07976438419052678
0.8310000000000001,-0.0020999999999976797,-1.685,0.03841451224131295,1.189633358299924,0.20157839882533302,0.07874600387714394
0.8320000000000001,0.01879999999999504,-2.685,0.0383936238034179,1.1797704018346884,0.20145008989749935,0.07730481572841927
0.833,-0.0259,-1.685,0.03851689426056355,1.16838330558753,0.20220728870142132,0.07564091827357027
0.834,-0.0318,2.315,0.0385250569072414,1.1669405394624313,0.20225742842219807,0.0754300993930244
0.835,-0.0474,1.315,0.0383005017265,1.1669405394624377,0.20087807996994914,0.07543009939302535
0.836,-0.0334,0.315,0.03796174565245299,1.1683833055875361,0.19879724324694886,0.07564091827357118
0.837,-0.0031,0.315,0.03795703853296897,1.1612445370852933,0.198768329382867,0.07459779204684748
0.838,0.0487,0.315,0.038065538237464454,1.1683833055875388,0.19943479763789096,0.07564091827357157
0.839,0.1125,-2.685,0.0381843746170492,1.1453637854608554,0.20016475975993991,0.07227727576811793
0.84,0.0528,-2.685,0.03836433982846616,1.1380806329869573,0.20127021070080472,0.07121305196588036
0.841,0.014,-0.685,0.038397682488713156,1.1307505707779972,0.20147502070186418,0.07014197365156322
0.842,-0.007,-1.685,0.03839390452802565,1.130750570777997,0.2014518142712231,0.07014197365156319
0.843,0.0249,1.315,0.0385639552154568,1.1365994021840866,0.20249636444253333,0.07099661257611446
0.844,-0.0632,-1.685,0.03860669090444831,1.1380806329869588,0.20275887188623426,0.07121305196588058
0.845,-0.0258,-1.685,0.03850515369630272,1.1497678806826812,0.20213517133103492,0.07292080794449145
0.846,-0.037,-0.685,0.03845898247381937,1.1483017257301218,0.2018515608435789,0.07270657145776757
0.847,-0.0062,1.315,0.038315120397017184,1.195194074161372,0.20096787634198224,0.07955854298001758
0.848,-0.0156,0.315,0.037906782528405104,1.20623860424517,0.19845962778942117,0.08117238421728827
0.849,-0.0409,-0.685,0.03824137863153213,1.1965125340908762,0.20051491155287302,0.07975119807604962
0.85,-0.0178,0.315,0.03965110677061239,1.1951037269215574,0.20917428124682563,0.07954534132271028
0.851,-0.0111,-0.685,0.03942493146986878,1.1895425887169235,0.20778498107576027,0.0787327405064958
0.852,0.0597,1.315,0.039303097167510084,1.2335924053920149,0.2070366039693651,0.08516935755630244
0.853,0.0126,-1.685,0.03925606354823507,1.2349573064586605,0.20674769613951027,0.08536879869227063
0.854,0.0043,-0.685,0.039136517168916654,1.23495730645866,0.2060133727863799,0.08536879869227057
0.855,0.012,1.315,0.0387978558116942,1.23632070067212,0.20393311786917415,0.08556801964487276
0.856,-0.0517,0.315,0.038661517595143344,1.236320700672121,0.20309564929080112,0.08556801964487291
0.857,-0.0263,0.315,0.038325195126076524,1.236320700672121,0.20102976118422433,0.08556801964487291
0.858,0.0126,-1.685,0.038175937056136644,1.2349573064586612,0.20011293135612818,0.08536879869227074
0.859,0.0195,0.315,0.03808694519030561,1.2062386042451603,0.19956629158593225,0.08117238421728684
0.86,0.0514,0.315,0.03847892042592542,1.1838641247340111,0.20197403133518677,0.07790299589351096
0.861,0.0808,-0.685,0.03847547036547001,1.204751545932981,0.20195283905837702,0.08095509330420927
0.862,0.0011,0.315,0.0392927719852147,1.2047515459329785,0.20697318069776074,0.08095509330420891
0.863,-0.0556,1.315,0.03933281875230822,1.2047515459329785,0.2072191712201154,0.08095509330420891
0.864,-0.0454,1.315,0.0394838433145958,1.1992351477910608,0.20814685187105902,0.08014902996470205
0.865,0.0017,0.315,0.039862278503600745,1.1992351477910608,0.21047142078328396,0.08014902996470205
0.866,0.01,-0.685,0.040150828170133435,1.2089393143711673,0.21224386056674707,0.08156701552692115
0.867,0.0024,0.315,0.040161513890894715,1.2362333590798196,0.2123094984751871,0.08555525717672664
0.868,-0.0045,-0.685,0.040345116330056524,1.2362333590798202,0.2134372913831522,0.08555525717672674
0.869,-0.0233,1.315,0.04074020524400272,1.2415853840281101,0.21586415715464374,0.08633730208935933
0.87,-0.0057,-0.685,0.04085016230489256,1.2415853840281095,0.21653957733979148,0.08633730208935923
0.871,-0.0322,0.315,0.041409648176188564,1.232138360614365,0.21997626478596544,0.08495689062423696
0.872,0.0011,-0.685,0.04143891802017511,1.2429415078622943,0.22015605718205764,0.08653546068459578
0.873,-0.0472,0.315,0.04096593962703929,1.2429415078622943,0.2172507489528505,0.08653546068459578
0.874,-0.0661,1.315,0.04077929638144167,1.242941507862293,0.21610427764416013,0.08653546068459558
0.875,-0.0367,0.315,0.04072673149832221,1.253651564126387,0.21578139357649317,0.08810042816816827
0.876,0.0218,-0.685,0.040605232369597066,1.253651564126386,0.21503507530138902,0.08810042816816811
0.877,0.0922,0.315,0.03882606707034999,1.2362333590798142,0.20410640781881764,0.08555525717672587
0.878,0.1205,0.315,0.038430770883993576,1.2253710727090859,0.20167826885969675,0.0839680456300942
0.879,0.0607,-0.685,0.0385747492524861,1.23213836061436,0.2025626676924549,0.08495689062423625
0.88,0.022,0.315,0.038729930115232715,1.23213836061436,0.20351587875684224,0.08495689062423625
0.881,0.001,-0.685,0.038758472966344014,1.2307703333939561,0.20369120554009948,0.08475699269057627
0.882,-0.0308,0.315,0.03876225665308959,1.2266570976268596,0.20371444714351775,0.08415596127962514
0.883,-0.0134,0.315,0.03872172282639848,1.197739394340034,0.2034654648179908,0.07993046850651941
0.884,0.0022,-1.685,0.038723827379880324,1.18652475932215,0.20347839220883646,0.07829177131293293
0.885,-0.0026,-0.685,0.03888928822157179,1.1653106808438705,0.2044947488795728,0.07519194231168211
0.886,-0.0157,0.315,0.038945529565195744,1.1596066726085836,0.20484021590475554,0.07435846513900081
0.887,-0.0299,1.315,0.03894736029814242,1.161058552052016,0.2048514613307045,0.07457061566958736
0.888,-0.034,0.315,0.038978141872585345,1.1625086182166122,0.2050405396540166,0.07478250124148954
0.889,-0.0375,0.315,0.03921829193123735,1.1625086182166122,0.20651568091157063,0.07478250124148954
0.89,-0.021,0.315,0.03803180238917897,1.1392756395573485,0.19922757244734202,0.071387667894985
0.891,0.0059,1.315,0.03778107183829361,1.1095991756572545,0.197687439656135,0.0670513040248187
0.892,0.0385,1.315,0.037782526959157535,1.115558908507172,0.1976963778543314,0.06792214801395527
0.893,-0.0271,-0.685,0.03808366240948532,1.1035094136799046,0.19954612683787973,0.06616146000885394
0.894,-0.0177,-1.685,0.038212133949466286,1.0959481521563599,0.2003352737159242,0.06505659854712587
0.895,-0.0095,0.31500000000066614,0.0378241978199142,1.0959481521563599,0.19795234450403779,0.06505659854712587
0.896,-0.002,3.315,0.03773718184138133,1.0852340881488043,0.19741784178219468,0.06349104544681641
0.897,-0.0089,2.314999999999334,0.037786292440366,1.0852340881488043,0.19771950762875798,0.06349104544681641
0.898,0.0617,-0.685,0.038063778695479264,1.0852340881488045,0.1994239895082102,0.06349104544681645
0.899,0.1088,0.31499999999977796,0.038183442569926056,1.086785329407303,0.20015903458471804,0.06371771485628215
0.9,-0.0198,-0.685,0.03856614863301836,1.086785329407303,0.20250983768821257,0.06371771485628215
0.901,-0.0012,-3.684999999999334,0.039302673165123904,1.0867853294073029,0.20703399950023996,0.06371771485628212
0.902,-0.0178,-0.685,0.03959879638970142,1.0852340881488043,0.2088529604796633,0.06349104544681641
0.903,-0.0024,0.31499999999977796,0.039220777719305176,1.077544594072533,0.206530950066852,0.062367446476115085
0.904,-0.016,-0.685,0.03995164808929819,1.0650651153546404,0.21102038072846493,0.06054392866034838
0.905,-0.0037,-0.6850000000002221,0.041667127721521584,1.0712726299480668,0.22155785382420662,0.06145097884318297
0.906,0.0073,-1.685,0.041652715651009885,1.0712726299480668,0.22146932650950213,0.06145097884318297
0.907,-0.0028,0.315,0.04134351262049397,1.0712726299480668,0.2195700217588183,0.06145097884318297
0.908,-0.0123,0.315,0.041261393265294204,1.0712726299480668,0.21906559694385522,0.06145097884318297
0.909,-0.055,1.315000000000222,0.0412512925836287,1.1094045326218849,0.21900355268562005,0.0670228625289249
0.91,-0.0162,2.315,0.041254110779374055,1.1168746979259625,0.2190208636820827,0.06811441289145546
0.911,-0.0799,1.314999999999778,0.04125022421549415,1.1168746979259625,0.21899699014750376,0.06811441289145546
0.912,-0.0199,0.315,0.04051574243934107,1.1168746979259625,0.21448537612997412,0.06811441289145546
0.913,0.0345,-0.685,0.04068333788188799,1.1183820532367206,0.21551484475999114,0.06833466962861523
0.914,0.0554,-0.685,0.04054671048903732,1.142040157586884,0.2146755998926887,0.07179162289926243
0.915,0.0492,-1.685000000000222,0.04033702527116446,1.165218016544615,0.21338759139616914,0.07517840208260705
0.916,0.0198,-2.685,0.0403505728425553,1.1766357458235377,0.21347080845474686,0.07684677567627847
0.917,-0.0385,0.31500000000022205,0.040477805419782645,1.175203111047167,0.21425234490335943,0.07663743720171116
0.918,-0.0616,1.315,0.04084226153266595,1.1752031110471668,0.2164910462041198,0.07663743720171112
0.919,0.0306,0.31499999999977796,0.0408719327222388,1.1737687276802728,0.21667330389810205,0.07642784322080066
0.92,0.0679,-0.685,0.041623354202960205,1.1737687276802728,0.22128897142800547,0.07642784322080066
0.921,0.0337,-1.684999999999778,0.042590053438305644,1.173768727680273,0.22722700006605118,0.07642784322080069
0.922,0.0028,-0.685,0.042996690713189185,1.175203111047167,0.22972480258338998,0.07663743720171116
0.923,0.0121,0.3149999999995559,0.04419925244395866,1.173768727680273,0.23711163577331723,0.07642784322080069
0.924,0.0035,-1.685,0.043950545312674456,1.175203111047167,0.2355839320014982,0.07663743720171116
0.925,0.011,0.3149999999995559,0.04349495298262909,1.179495795083331,0.23278541907817243,0.07726468982935329
0.926,-0.0101,-1.685,0.04345792050106922,1.1809232222096542,0.23255794404974556,0.07747326735525806
0.927,-0.029,0.31500000000022205,0.043665523235433955,1.18652475932215,0.23383316072202717,0.07829177131293293
0.928,-0.0348,1.315,0.04271509789419293,1.2157092509678475,0.2279950958014556,0.08255624755132915
0.929,-0.0398,0.315,0.04123066080976564,1.217094207127607,0.21887682033746755,0.08275861916383538
0.93,-0.0159,0.315,0.04083028448347997,1.2157092509678475,0.21641747620585636,0.08255624755132915
0.931,0.0058,1.315,0.04086488285555149,1.2170942071276067,0.2166299995188773,0.08275861916383535
0.932,-0.0063,0.315,0.04087024054633937,1.2170942071276067,0.2166629095700794,0.08275861916383535
0.933,0.0262,0.315,0.0408337280039377,1.2170942071276067,0.21643862831019867,0.08275861916383535
0.934,0.0479,-0.685,0.040819781026892946,1.2170942071276067,0.2163529578699233,0.08275861916383535
0.935,0.0518,-0.685,0.04084017946772901,1.2060595577143078,0.21647825695098938,0.08114622170311127
0.936,0.0336,-0.685,0.04084757446972946,1.2046619154846967,0.2165236813519318,0.08094199638542154
0.937,-0.0158,-0.685,0.040819087208706605,1.2046619154846967,0.21634869603531184,0.08094199638542154
0.9380000000000001,-0.06519999999999931,0.315,0.04071655981660835,1.1991451050180728,0.2157189131946892,0.08013587279648723
0.9390000000000001,-0.059099999999996745,1.315,0.040581167528750406,1.1991451050180726,0.2148872550602088,0.08013587279648719
0.9400000000000001,-0.02979999999999829,-0.685,0.04048864480834624,1.2005491697650612,0.21431892672876712,0.08034103658084886
0.9410000000000001,-0.014399999999993038,1.315,0.0404480567334131,1.201951594349103,0.21406961117900358,0.08054596070244723
0.9420000000000001,0.04829999999999908,0.315,0.04047227303736651,1.2061490843020486,0.21421836179462975,0.08115930344566002
0.9430000000000001,0.03999999999999915,0.315,0.04038720369428487,1.2061490843020486,0.21369581643929178,0.08115930344566002
0.9440000000000001,0.0322999999999961,-1.685,0.0403675924499352,1.2047515459329765,0.21357535277663622,0.08095509330420862
0.9450000000000001,-0.0027999999999950595,-0.685,0.040359761158162935,1.3068439097629394,0.21352724843030355,0.09587296355392946
0.9460000000000001,0.04169999999999023,-0.685,0.04084978886136503,1.3270653157305163,0.21653728343256567,0.09882774194454118
0.9470000000000001,-0.046299999999998634,1.315,0.04085495115431349,1.286304651610196,0.21656899323665482,0.0928717401846825
0.9480000000000001,-0.03400000000000376,-0.685,0.041604014493119734,1.286304651610208,0.22117017568814623,0.09287174018468425
0.9490000000000001,-0.0679000000000011,-0.685,0.04145620677090632,1.2849942920570836,0.2202622547388616,0.09268026872628461
0.9500000000000001,-0.07779999999999686,0.315,0.04001322257594261,1.2849942920570843,0.21139860701819282,0.09268026872628471
0.9510000000000001,-0.04959999999999718,0.315,0.03999955849021615,1.2940555076016098,0.2113146742608369,0.09400430543899244
0.9520000000000001,-0.02419999999998875,0.315,0.04080546156177433,1.2693346015213387,0.21626499939137392,0.09039205418408726
0.9530000000000001,0.07710000000000458,0.315,0.04114279041469447,1.2693346015213387,0.21833706929258073,0.09039205418408726
0.9540000000000001,0.1183999999999874,1.315,0.04114233453427151,1.2706611101132004,0.21833426901002326,0.09058588536123084
0.9550000000000001,0.004899999999998312,1.315,0.04124582851700382,1.2706611101132004,0.21896998921219168,0.09058588536123084
0.9560000000000001,-0.010299999999998456,0.315,0.04132982131926095,1.2706611101131993,0.2194859218280009,0.09058588536123068
0.9570000000000001,0.0035999999999986342,0.315,0.041324384634680356,1.261431857303174,0.2194525265510055,0.08923729482265583
0.9580000000000001,-0.008700000000001266,3.315,0.041949545808141954,1.2719862353378204,0.2232926298796098,0.09077951439893671
0.9590000000000001,-0.02010000000000344,1.315,0.043119235546717156,1.2719862353378202,0.23047754418525296,0.09077951439893668
0.96,-0.0511,0.315,0.042830023499941,1.2667626593637895,0.2287010356772981,0.09001623861907587
0.961,-0.0229,-0.685,0.04280631383554606,1.25625034913329,0.2285553971363456,0.08848016604557178
0.962,0.0369,-0.685,0.04205444645569314,1.2496136466253445,0.2239369906347788,0.08751040236114556
0.963,0.0445,-2.685,0.042209839131228666,1.2496136466253445,0.22489150277644068,0.08751040236114556
0.964,-0.0191,-2.685,0.04282421520339322,1.2482647714717894,0.22866535774358518,0.08731330295264013
0.965,-0.0106,-1.685,0.04287347908586736,1.2469144371458474,0.22896796514644324,0.08711599032794963
0.966,-0.0336,0.315,0.042677533765324696,1.2428546315472373,0.22776435508621845,0.08652276620337138
0.967,-0.0545,0.315,0.04263202086727114,1.2360586573802046,0.22748478841008896,0.08552972953499624
0.968,0.0162,0.315,0.04323691748750514,1.236058657380204,0.23120041507314618,0.08552972953499614
0.969,0.0821,1.315,0.0437906799994831,1.230682597891958,0.2346019463194456,0.08474417266382792
0.97,0.0904,-0.685,0.043731228491765584,1.2320507225308839,0.23423676060035742,0.08494408483241023
0.971,0.0672,-0.685,0.04320781095430081,1.241498412815588,0.23102162582680963,0.08632459374159271
0.972,0.1024,0.315,0.04338894302368683,1.2374208381223069,0.23213424428760557,0.08572877317357037
0.973,0.0059,-0.685,0.0434842204400933,1.2468278376560566,0.23271949356317623,0.08710333629679662
0.974,0.0196,-1.685,0.043515178445193786,1.2481782656691527,0.23290965562614482,0.08730066261117707
0.975,0.032,-0.685,0.04352897635037676,1.2387815209931414,0.23299441038039087,0.08592759794122817
0.976,-0.0478,1.315,0.04361030230547189,1.2401407109231022,0.2334939616707141,0.08612620455840526
0.977,-0.0171,-2.685,0.043606318476636666,1.2306825978919507,0.23346949067824024,0.08474417266382685
0.978,-0.0454,-0.685,0.043528923463744186,1.2306825978919502,0.23299408551995102,0.08474417266382678
0.979,-0.02,0.315,0.04342414496814921,1.2239072607386772,0.23235047509310303,0.08375415150299853
0.98,-0.0277,-0.685,0.04324444276692714,1.223907260738677,0.23124663971374101,0.08375415150299849
0.981,-0.0067,-0.685,0.04335586916566037,1.223907260738677,0.23193108542603724,0.08375415150299849
0.982,-0.0255,0.315,0.04336069683114128,1.2170942071276263,0.23196073975370438,0.08275861916383821
0.983,-0.0081,0.315,0.04341653024676601,1.2170942071276263,0.2323037010479906,0.08275861916383821
0.984,-0.0131,0.315,0.043666268070841986,1.2170942071276263,0.2338377359340702,0.08275861916383821
0.985,-0.0082,0.315,0.04378313515205749,1.2170942071276238,0.23455560148079788,0.08275861916383785
0.986,-0.0037,0.315,0.04380955308765125,1.2225300228436409,0.23471787579774994,0.08355290769346768
0.987,-0.0076,-0.685,0.04390345947892076,1.2211512316741526,0.23529470343996345,0.08335143691743449
0.988,0.0074,0.315,0.04412812848131482,1.2197708819628903,0.2366747510509666,0.08314973840523089
0.989,0.0256,-0.685,0.04370495198284191,1.2414114355099846,0.23407535500822318,0.08631188450349707
0.99,-0.0106,-0.685,0.04338343682777896,1.234694973809213,0.23210042203163167,0.08533046630109159
0.991,-0.0152,-1.685,0.043290148694746754,1.2346949738092108,0.2315273920909003,0.08533046630109126
0.992,-0.0282,1.315,0.04327778305720869,1.2346949738092108,0.23145143515709504,0.08533046630109126
0.993,-0.024,0.315,0.0438687247392267,1.24141143550998,0.2350813424777354,0.08631188450349639
0.994,0.0158,5.315,0.04370805142849719,1.24141143550998,0.23409439360512094,0.08631188450349639
0.995,-0.0638,2.315,0.04371622153712505,1.2373335741871,0.23414457916153225,0.08571602205278074
0.996,-0.0068,-0.685,0.04378786532702997,1.2359712972702281,0.23458465696509181,0.08551696436102298
0.997,-0.0791,2.315,0.043589345191976075,1.2413244521100455,0.23336523089741992,0.0862991743748891
0.998,-0.0508,0.315,0.04340536794999816,1.2413244521100455,0.2322351357326884,0.0862991743748891
0.999,0.0091,0.315,0.04330659315538403,1.2399665597392255,0.23162840352716824,0.08610075735875736
1.0,0.0168,-1.685,0.04278679396964043,1.2399665597392255,0.22843549477321087,0.08610075735875736
1.0010000000000001,0.0806999999999944,-2.685,0.04216143064391097,1.2507020914434666,0.2245941497078679,0.08766944734709349
1.002,0.0555,-0.685,0.04282498625357144,1.2507020914434666,0.22867009398198512,0.08766944734709349
1.0030000000000001,0.001399999999992295,-0.685,0.04428376963084294,1.2573330487210923,0.237630789464327,0.08863837153092193
1.004,-0.0333,-0.685,0.0445671004735464,1.2586722057553545,0.23937117219817036,0.08883405091507643
1.0050000000000001,-0.02659999999999345,-0.685,0.04298888074856718,1.2520483407903324,0.2296768292408115,0.08786616306927782
1.006,0.0029,-0.685,0.04392443091471871,1.2520483407903324,0.2354235221891628,0.08786616306927782
1.0070000000000001,0.07220000000000629,-1.685,0.045129563671773884,1.2626811552982597,0.24282614811705386,0.0894198438860213
1.008,0.1005,0.315,0.048115745663264826,1.2692495317354169,0.26116901375256174,0.09037962367527205
1.0090000000000001,0.023199999999993136,-0.685,0.049907360636473205,1.2360586573801524,0.2721741543694996,0.08552972953498861
1.01,-0.0077,-1.685,0.05023142920355907,1.2293129506432436,0.2741647718870139,0.08454403800950414
1.0110000000000001,0.0015999999999904743,0.315,0.05075038831107984,1.2306825978919063,0.2773525203921959,0.08474417266382035
1.012,-0.0413,0.315,0.05133080909118561,1.2293129506432436,0.2809178022175749,0.08454403800950414
1.0130000000000001,-0.08009999999999534,0.315,0.051263462132772185,1.2387815209930972,0.28050411805074993,0.0859275979412217
1.014,-0.0591,0.315,0.05107235043594845,1.221151231674111,0.2793301989171537,0.08335143691742841
1.0150000000000001,-0.027299999999993496,1.315,0.05103678650691817,1.1920999757633077,0.2791117445920215,0.07910642925955295
1.016,0.002,2.315,0.05106038899463339,1.1920999757633077,0.27925672479150615,0.07910642925955295
1.0170000000000001,0.08170000000000247,0.315,0.05100669606864736,1.1935123285285545,0.27892691162883043,0.07931280410002464
1.018,0.0928,-0.685,0.05085913412066149,1.1935123285285545,0.27802050036771797,0.07931280410002464
1.0190000000000001,0.02039999999999374,-0.685,0.05089569931542716,1.2004592255528213,0.2782451050490247,0.08032789381445996
1.02,-0.0078,-1.684999999999334,0.05027332255357725,1.2004592255528213,0.2744221051950957,0.08032789381445996
1.0210000000000001,0.05199999999999487,1.315,0.05002665852598471,1.205970024480432,0.2729069513537908,0.08113313898942053
1.022,0.0289,-1.684999999999778,0.04970805204411584,1.2045722783671224,0.2709498851387458,0.0809288984921084
1.0230000000000001,-0.020399999999992917,-0.685,0.04916580214832211,1.2045722783671222,0.2676190710732419,0.08092889849210837
1.024,0.0115,-0.685,0.04918104408802862,1.2100643460333067,0.26771269592693725,0.08173140663055527
1.025,0.0288,-0.685,0.04928024294216948,1.20588048459899,0.268322032952573,0.08112005530437873
1.026,-0.0082,-0.684999999999778,0.049267579453745096,1.2113666211627052,0.2682442464454856,0.08192169678234529
1.027,-0.0129,0.315,0.049203058172449285,1.20588048459899,0.2678479192300606,0.08112005530437873
1.028,0.0173,0.315,0.05031356875225624,1.1877619361647864,0.2746693207421763,0.07847254921758748
1.029,0.0051,0.315,0.05012348658849038,1.1975590770966982,0.2735017255990809,0.07990412031416733
1.03,-0.0349,0.315,0.050329650857889305,1.1989649991853257,0.27476810638337434,0.08010955549572796
1.031,-0.0087,0.315,0.05027794075857472,1.2086713347334093,0.2744504728947159,0.08152785799039569
1.032,-0.0229,0.315,0.050296137511526846,1.2183003412709914,0.2745622479289752,0.08293486106851627
1.033,-0.0535,0.315,0.05029116798159238,1.2183003412709914,0.2745317221873696,0.08293486106851627
1.034,-0.0576,-0.684999999999556,0.05053157637463878,1.2251066873567547,0.2760084502849417,0.0839294132952746
1.035,-0.054,1.315,0.050527010151177255,1.2359712972702024,0.27598040188613177,0.08551696436101922
1.036,-0.0442,0.315,0.05053007795751412,1.242680860696347,0.2759992461359441,0.08649737457847882
1.037,-0.0472,0.315,0.05053008735755818,1.242680860696347,0.2759993038764789,0.08649737457847882
1.038,-0.0231,2.314999999999556,0.05076330552663543,1.2480052360753413,0.27743186543881265,0.08727537929974215
1.039,0.0263,0.315,0.050932971841666654,1.2586722057553406,0.2784740545714099,0.08883405091507439
1.04,-0.0089,-0.684999999999556,0.05101627341660178,1.2639292184578488,0.27898574126720244,0.08960221251360263
1.041,0.01,1.315,0.051201587503861154,1.2625956372238483,0.28012404811275016,0.08940734787270338
1.042,0.0865,1.314999999999778,0.05118578005376288,1.253306992321483,0.28002694956550195,0.08805007888361423
1.043,0.0139,0.315,0.0520869532751517,1.2480052360753413,0.28556247933607687,0.08727537929974215
1.044,-0.0334,1.314999999999778,0.05277736949452844,1.27578409132415,0.2898034170889296,0.09133446210222972
1.045,-0.0252,0.315,0.05276087868207155,1.1609655483624075,0.28970212093284164,0.07455702584834827
1.046,-0.0022,1.315,0.05252183134216311,1.1377959644654974,0.28823375321481226,0.07117145582775594
1.047,-0.0233,1.315,0.052523072568136514,1.1480195916833233,0.2882413775462557,0.07266534566040846
1.048,-0.0173,0.31499999999977796,0.05192416473503881,1.1260803529469214,0.28456253749502375,0.06945955529010812
1.049,-0.0116,-0.685,0.05172993775519263,1.1378908618855366,0.28336948248221444,0.07118532236337202
1.05,-0.0272,-1.684999999999556,0.05172268314190453,1.1378908618855366,0.2833249204303501,0.07118532236337202
1.051,-0.09,0.315,0.0517766131748086,1.1334406182761805,0.28365619004154485,0.07053504692401992
1.052,-0.1153,1.3149999999995559,0.05147375390099318,1.1020796961898767,0.28179585233209065,0.0659525478119974
1.053,-0.092,-0.685,0.0512722735363025,1.1080798727909578,0.2805582428132317,0.0668293014951565
1.054,0.0142,0.31500000000022205,0.05168363374114484,1.1140477333646344,0.28308505631177894,0.06770133311796044
1.055,0.0903,1.315,0.05183769570581745,1.119983794501212,0.2840313944537892,0.06856871816526294
1.056,0.1041,-1.684999999999334,0.05177576238949981,1.125888559172615,0.28365096402362355,0.06943153013198199
1.057,0.1669,1.315,0.051783490664950894,1.1317625172297594,0.283698435583829,0.07028984059577656
1.058,0.1328,-1.684999999999556,0.05133902569212171,1.1317625172297594,0.280968273356769,0.07028984059577656
1.059,0.0604,0.315,0.050351952597710206,1.1390860675433916,0.27490509663317775,0.0713599673833983
1.06,0.0886,-0.685,0.050443247796097504,1.1376061458768123,0.27546588481084305,0.07114371928634619
1.061,0.0803,0.315,0.050470544750880676,1.1257926500324777,0.2756335585746234,0.06941751576249677
1.062,0.0259,-1.685,0.05065993347070531,1.1257926500324777,0.27679689418193837,0.06941751576249677
1.063,0.005,-1.685,0.05049425268619462,1.1257926500324777,0.2757791864945553,0.06941751576249677
1.064,-0.0012,0.315,0.05054456269337559,1.1257926500324777,0.27608821980346665,0.06941751576249677
1.065,-0.0188,-1.685,0.05254849050312784,1.1257926500324777,0.2883975092782152,0.06941751576249677
1.066,-0.0241,-0.685,0.05294113270550342,1.1198873796666766,0.29080934592498614,0.06855462990304831
1.067,-0.0383,0.315,0.05295037373628622,1.0973858580923184,0.2908661097077916,0.06526667802619056
1.068,-0.0252,1.315,0.052355913436724494,1.1095018584078893,0.2872145889928534,0.06703708390056426
1.069,-0.0211,1.315,0.05175825713016153,1.1317625172297592,0.2835434365451002,0.07028984059577653
1.07,-0.0755,1.315,0.05225033025030461,1.1376061458768123,0.2865660356871984,0.07114371928634619
1.071,-0.0366,0.315,0.05266975827911794,1.1735847274325157,0.28914240645033723,0.07640095686300677
1.072,-0.0716,0.315,0.05242392749340121,1.1664777917292832,0.2876323708649904,0.07536248208667079
1.073,-0.0136,1.315,0.05238670797553185,1.1564173608446302,0.28740374695082793,0.07389243871649769
1.074,-0.0369,1.315,0.05243581416138024,1.1664777917292866,0.28770538568934284,0.07536248208667128
1.075,-0.03,1.315,0.05256736367959985,1.1764521939851214,0.28851343929893325,0.07681995484064622
1.076,0.0406,-0.685,0.05258106153665684,1.1764521939851214,0.2885975794994323,0.07681995484064622
1.077,0.1065,-1.685,0.05260580254511737,1.1764521939851227,0.2887495531551477,0.07681995484064641
1.078,0.0123,-1.685,0.05271995132390242,1.1764521939851227,0.28945072130822,0.07681995484064641
1.079,0.0497,-0.685,0.05278438243081412,1.1764521939851227,0.28984649462016016,0.07681995484064641
1.08,0.0157,-1.685,0.052847363204313505,1.198874936122556,0.2902333591412146,0.08009639536274357
1.081,-0.0151,-1.685,0.05273669573013513,1.198874936122556,0.28955357518469116,0.08009639536274357
1.082,-0.0245,0.315,0.052862752552498386,1.198874936122556,0.2903278894634715,0.08009639536274357
1.083,-0.0499,1.315,0.05287471248852338,1.2002793169082084,0.29040135434275244,0.08030160532708976
1.084,-0.0112,-1.685,0.052623416367603114,1.201682056424414,0.2888577474916297,0.08050657546698937
1.085,0.0099,1.315,0.05236282019124331,1.2071872731531212,0.28725701429394923,0.08131100496371678
1.086,0.0037,0.315,0.05212439760882554,1.2113666211627212,0.2857924841995941,0.08192169678234762
1.087,-0.0492,1.315,0.051949017804555075,1.2113666211627212,0.28471519949488366,0.08192169678234762
1.088,-0.0422,-1.685,0.05190114035119268,1.211366621162721,0.2844211083455501,0.08192169678234759
1.089,-0.0388,1.315,0.052077882861839446,1.2113666211627296,0.28550676358495414,0.08192169678234885
1.09,-0.0448,0.315,0.05203882721200224,1.2331546693734985,0.2852668610809163,0.0851053949945311
1.091,0.0083,-0.685,0.052043266061419284,1.2532208345672158,0.28529412707430357,0.0880374893994359
1.092,0.1005,-0.685,0.05203733143307417,1.253220834567216,0.28525767313725575,0.08803748939943593
1.093,0.0884,-2.685,0.05138533010576206,1.2465680030901356,0.2812527019817343,0.08706536892886244
1.094,0.0087,-0.685,0.0521981664315174,1.247918712281734,0.2862456151897957,0.08726273632941482
1.095,0.0394,0.315,0.05216068270051873,1.2938886131104068,0.286015368325008,0.09397991859680602
1.096,-0.0077,-1.685,0.05213301873649401,1.3041803538645713,0.28584544017712654,0.09548376126882113
1.097,0.0006,-0.685,0.05214438656229603,1.3080498361341732,0.285915267971229,0.0960491750986709
1.098,0.0238,-1.685,0.05214756044242272,1.3016772641271,0.2859347637879184,0.09511800650983447
1.099,0.0028,0.315,0.052206263073192066,1.3080498361341744,0.28629534946947466,0.09604917509867107
1.1,-0.029,1.315,0.05231735058022151,1.3067612818245982,0.2869777135119312,0.09586088985108887
1.101,-0.0582,0.315,0.05228680647966351,1.2964900290423895,0.2867900938912619,0.09436004090843658
1.102,-0.0318,1.315,0.05153072925174558,1.2964900290423889,0.28214582805572874,0.09436004090843648
1.103,-0.0651,1.315,0.05024563098460946,1.2913655747602584,0.27425200748160744,0.09361124892034253
1.104,-0.052,1.315,0.049953562380767695,1.2913655747602606,0.27245795233966175,0.09361124892034287
1.105,-0.0081,1.315,0.04995471595234007,1.3182310215133823,0.2724650382468212,0.09753686327413875
1.106,0.0094,1.315,0.04919120294339986,1.3131914096390374,0.267775097521889,0.09680046857006817
1.107,0.0251,-1.685,0.04863393013705595,1.3042631453104128,0.2643520040070878,0.09549585886359234
1.108,-0.008,1.315,0.046171759855419464,1.3042631453104105,0.24922792289733284,0.095495858863592
1.109,-0.0382,0.315,0.04427040383706674,1.2939720630467544,0.23754868898952428,0.09399211241107458
1.11,-0.0183,0.315,0.044649909964704096,1.3003823952248434,0.23987983622935755,0.09492879856567879
1.111,-0.0438,0.315,0.04376391693008226,1.3054714556592781,0.2344375519900269,0.09567241875827545
1.112,0.0054,0.315,0.04316380222528646,1.3118255964137846,0.23075129863128035,0.09660089414828665
1.113,0.0832,0.315,0.04425866908448928,1.3079672843775807,0.23747660731787543,0.09603711252760747
1.114,0.1554,0.315,0.04463827428879679,1.3079672843775807,0.23980836314420928,0.09603711252760747
1.115,0.0699,-0.685,0.04465422426869764,1.318149107374279,0.23990633719235638,0.09752489387258002
1.116,-0.0101,-0.685,0.044665444407319316,1.3092546517529862,0.2399752578059478,0.0962252243388102
1.117,-0.0204,-1.685,0.044698486753407485,1.3079672843775794,0.24017822310287354,0.09603711252760727
1.118,-0.0489,2.315,0.0446900307274326,1.3181491073742695,0.24012628127591534,0.09752489387257862
1.119,-0.0744,1.315,0.04499814548654986,1.3181491073742695,0.24201890123106515,0.09752489387257862
1.12,-0.0668,3.315,0.04524954273387332,1.331971374743767,0.2435631292593403,0.09954462172919425
1.121,0.011,0.315,0.044750025198843114,1.331971374743767,0.24049480219362637,0.09954462172919425
1.122,0.0211,-0.685,0.04477732846541041,1.3381996924981043,0.24066251472805375,0.10045471169721562
1.123,0.0305,-1.685,0.04427588888865787,1.3381996924981046,0.23758238136481372,0.10045471169721566
1.124,0.0389,-1.685,0.04425762644978106,1.3381996924981021,0.23747020284942233,0.1004547116972153
1.125,0.0312,-0.685,0.04413559439578921,1.3319713747437623,0.23672061103754485,0.09954462172919357
1.1260000000000001,-0.0181000000000042,-0.685,0.04412127052460766,1.335760353334802,0.23663262549439573,0.1000982722558308
1.127,-0.037,0.315,0.04460724169017753,1.3605125408501977,0.23961774288448778,0.1037150943951088
1.1280000000000001,-0.03129999999999889,0.315,0.04352028528240528,1.3518968332220809,0.23294102478886153,0.10245615588409693
1.129,-0.0263,2.315,0.04359740780957752,1.3518968332220809,0.2334147561814633,0.10245615588409693
1.1300000000000001,0.0070000000000067725,0.315,0.04347944122555276,1.3518968332220787,0.23269013684934892,0.1024561558840966
1.131,0.0375,0.315,0.043551724350814947,1.3481532068988176,0.2331341418223134,0.10190913229037452
1.1320000000000001,0.025499999999997556,-0.685,0.04358058995681399,1.3381996924981039,0.23331145115370602,0.10045471169721557
1.133,0.0145,-0.685,0.04432282595850544,1.3381996924981039,0.23787069613196177,0.10045471169721557
1.1340000000000001,0.024099999999990074,1.315,0.04420999617819186,1.333235564058941,0.23717763003422454,0.09972934673180327
1.135,-0.0206,-1.685,0.04457599624596056,1.3231698367942102,0.23942581520337963,0.09825852944761905
1.1360000000000001,0.011299999999988253,0.315,0.04456757887310945,1.3168704352125111,0.23937411080637644,0.0973380526174108
1.137,-0.0416,0.315,0.04499257766742335,1.318149107374261,0.2419847004494613,0.09752489387257739
1.1380000000000001,-0.048699999999992936,2.315,0.044830882811042555,1.3131091811197984,0.2409914766496403,0.09678845323087124
1.139,-0.0169,2.315,0.0446328965689762,1.3041803538645775,0.23977533006304558,0.09548376126882203
1.1400000000000001,-0.01119999999999889,2.315,0.04446713681671915,1.3080498361341795,0.23875713730986106,0.09604917509867182
1.141,-0.0062,1.315,0.044266689162329224,1.3282528831292284,0.23752587129797567,0.09900127085211248
1.1420000000000001,0.027200000000014563,0.315,0.04426540893567466,1.3269839469286486,0.2375180074016778,0.09881585222837534
1.143,0.0928,-0.685,0.043204015497603124,1.3269839469286486,0.2309983119255037,0.09881585222837534
1.1440000000000001,0.026899999999998158,-3.685,0.042431087248327004,1.3002993566875343,0.22625053732142422,0.0949166648655779
1.145,0.0186,-1.685,0.04331097829811658,1.2990031142638736,0.23165533962288007,0.09472725622067121
1.1460000000000001,0.011099999999992206,-1.685,0.0434447878909447,1.2990031142638736,0.23247727592447925,0.09472725622067121
1.147,-0.024,0.31500000000022205,0.043442127636862234,1.3306248382595964,0.23246093509752028,0.09934786405012995
1.1480000000000001,-0.03020000000000129,1.315,0.04367254203458508,1.3355986702313802,0.23387627426638535,0.10007464690846953
1.149,-0.036,0.315,0.04377205087542261,1.3268211943547852,0.23448751541050483,0.09879207060858891
1.1500000000000001,-0.020499999999998957,0.315,0.04377527211381359,1.3268211943547852,0.23450730212918242,0.09879207060858891
1.151,-0.0158,0.31499999999977796,0.0436942695921229,1.326821194354785,0.23400973755483853,0.09879207060858887
1.1520000000000001,0.014600000000013278,-0.685,0.043309882615192176,1.333073574734075,0.23164860930144662,0.09970567663896246
1.153,0.0744,-0.6850000000004441,0.04320752916625554,1.3280902860588324,0.2310198949208344,0.09897751195469688
1.154,0.0146,-2.685,0.04275754551665042,1.3218143341856317,0.22825583377305383,0.09806046162668378
1.155,-0.0242,-0.685,0.04244653355936045,1.3155084417035785,0.22634541754260903,0.09713903633759324
1.156,-0.0734,-0.685,0.042564659623664076,1.3356795142295435,0.2270710164953008,0.100086459939629
1.157,-0.0672,1.314999999999778,0.042566233631589234,1.3555504672536398,0.22708068496693537,0.10299002968599595
1.158,0.021,0.315,0.04258098041484644,1.346903019202492,0.22717126828188858,0.10172645322269572
1.159,0.0838,1.315,0.04279001519032397,1.3506501107026598,0.22845528138311907,0.10227398315261718
