time_sec,bts_raw,diy_raw,bts_rms,diy_rms,bts_norm_rms,diy_norm_rms
0.0,0.0225,0.306,0.024098500043369418,0.7408197144432119,0.08755341834897905,0.0
0.001000000000000112,-0.01850000000000113,0.306,0.02411347673499394,0.7523956302918292,0.08761822957931566,0.0011131462163492386
0.0020000000000000018,-0.0236,0.306,0.02411347673499394,0.753053635941668,0.08761822957931566,0.0011764203891259804
0.0030000000000001137,-0.018899999999997114,0.306,0.024038961550505018,0.7644443169907686,0.08729576712188089,0.0022717543287694634
0.0040000000000000036,-0.0059,0.306,0.023819982229432116,0.7650919604218894,0.08634813999749175,0.002334032065090573
0.0050000000000001155,-0.0019000000000007993,0.306,0.023785027162433938,0.7681546465218755,0.08619687288487116,0.002628541587157642
0.006000000000000005,-0.0055,-0.694,0.02378074449968613,0.8137370164497284,0.08617833977697516,0.0070117664897023126
0.007000000000000117,-0.0022000000000033087,0.306,0.02369521899330149,0.8242895529575893,0.08580823044756401,0.008026504005094297
0.008000000000000007,-0.0171,0.306,0.023606075009320687,0.8347086930717442,0.08542246225364311,0.009028414052416339
0.009000000000000119,-0.019600000000001533,0.3060000000000017,0.023486869340013473,0.8353018594569669,0.08490660292472102,0.00908545324706935
0.010000000000000009,-0.0265,1.306,0.023492158489994912,0.8358946049203773,0.0849294915790598,0.009142451965657326
0.01100000000000012,-0.015300000000002175,0.306,0.023526372246543397,0.8364869303567873,0.08507755069064045,0.009199410294225864
0.01200000000000001,-0.0251,-0.694,0.023459353808767174,0.8370788366578431,0.08478753020304478,0.009256328318516116
0.013000000000000123,-0.0012000000000007326,-0.6939999999999982,0.023379339798532822,0.839879057871659,0.08444127172504,0.009525599077725402
0.014000000000000012,-0.0045,0.306,0.0232130749546753,0.8501071503204182,0.08372176508350071,0.01050913788007135
0.015000000000000124,-0.049100000000004175,2.306,0.023212938797481476,0.8602136375345482,0.0837211758669052,0.011480983058466851
0.016000000000000014,-0.0679,3.306,0.022580974906668595,0.8607892287448456,0.0809863691206124,0.01153633221496431
0.017000000000000126,-0.026899999999987056,0.306,0.022342974033986777,0.8613644353268095,0.07995642674305568,0.011591644385396917
0.018000000000000016,0.0314,-0.6940000000000034,0.022348498086623144,0.8713403615237791,0.07998033193231796,0.012550934747037066
0.019000000000000128,0.038999999999995316,-1.694,0.022404024345187894,0.8812033595004658,0.08022062032335872,0.013499365871034945
0.020000000000000018,0.0179,-0.694,0.02240567783891529,0.8817652493252579,0.08022777577300763,0.013553397495024953
0.02100000000000013,0.049799999999998706,-1.694,0.022498324126553143,0.8823267813233153,0.08062870009184028,0.013607394710206102
0.02200000000000002,0.044,-0.694,0.02206799266496823,0.9222835355831293,0.0787664522618722,0.017449657422164307
0.02299999999999991,0.0389,-0.694,0.022152189637144225,0.9228204127187719,0.07913081239521487,0.01750128381268065
0.02400000000000002,0.0436,-0.694,0.022122334561791874,0.9233569776923612,0.07900161535932147,0.017552880185528145
0.02499999999999991,0.0218,0.306,0.022154460290401846,0.9238932310477758,0.07914063858613767,0.017604446593006442
0.026000000000000023,0.0098,-0.6939999999999965,0.021893843941634274,0.9244291733273167,0.07801282834386737,0.017655983087263506
0.026999999999999913,0.0061,0.306,0.02197519390930769,0.9269655600773761,0.07836486814177068,0.01789988338430689
0.028000000000000025,-0.0037,0.306,0.021968362088116106,0.9294950256136398,0.07833530361924682,0.018143118133755604
0.028999999999999915,-0.0186,0.306,0.02192971539755271,0.9300277397815767,0.07816806110490203,0.01819434421108627
0.030000000000000027,-0.0052,1.306,0.022190117958094436,0.9392746839651034,0.07929494618437294,0.019083535275127638
0.030999999999999917,-0.0218,2.306,0.022669536910585448,0.9484314772888244,0.08136961881145388,0.01996405738460803
0.03200000000000003,-0.0105,0.306,0.022649940283854426,0.9489535611582839,0.0812848149361571,0.020014261246791017
0.03299999999999992,0.0033,-0.694,0.024060841288792024,0.9494753579518092,0.0873904511010517,0.020064437503599687
0.03400000000000003,-0.0023,0.306,0.024222973745387455,0.9643155953197395,0.08809207494781908,0.02149148261103363
0.03499999999999992,-0.0172,0.306,0.024198241408079534,0.9667473405434335,0.08798504642308122,0.021725320523323183
0.03600000000000003,-0.0155,-1.6939999999999862,0.02389274775244805,0.9691729843112316,0.08666303084194416,0.02195857171637311
0.03699999999999992,-0.0138,0.306,0.023591455948762198,0.9837161102360202,0.08535919866212938,0.023357046429628974
0.038000000000000034,-0.0026,0.306,0.023625802382850346,0.9861000145060457,0.0855078319321957,0.023586283930403875
0.038999999999999924,-0.0011,-0.694,0.023270513335613446,0.9884781695514377,0.08397032813270235,0.023814968582684434
0.040000000000000036,0.0026,0.306,0.023134851639227558,0.9889791129252873,0.08338325578903975,0.02386313956358116
0.040999999999999925,-0.0061,-0.694,0.023228913062404186,0.9976798188682604,0.08379030406886862,0.024699804068285963
0.04200000000000004,-0.0183,1.306,0.023036753656653457,1.006305299673773,0.08295873940694663,0.02552923488381803
0.04299999999999993,-0.007,-1.6939999999999862,0.023039586891876216,1.0148574734050289,0.08297100015619778,0.026351616452153812
0.04400000000000004,0.0036,0.306,0.022900736300750697,1.0153454020424606,0.08237012795628715,0.02639853592908405
0.04499999999999993,0.0239,-2.694,0.022906584096764566,1.017655215934996,0.0823954341363113,0.026620648859807704
0.04600000000000004,0.0152,-0.694,0.022923066574629742,1.0181418037986802,0.08246676161611925,0.026667439407222247
0.04699999999999993,0.0072,-0.694,0.023096353293843807,1.0186281592245314,0.0832166552344714,0.026714207603291316
0.04800000000000004,0.0003,0.306,0.023376148844798758,1.0324749095180499,0.08442746295854892,0.02804571846597644
0.04899999999999993,0.0249,-0.694,0.0232768821574659,1.0347464867566563,0.0839978890380345,0.028264154539749536
0.050000000000000044,0.0086,1.306,0.022633623056033874,1.0370130881171078,0.08121420257147427,0.028482112130436416
0.050999999999999934,-0.0001,0.30600000000000693,0.02255247588331408,1.0370130881171078,0.08086304036328035,0.028482112130436416
0.052000000000000046,-0.0027,1.3059999999999932,0.02247615120981604,1.0370130881171078,0.08053274739080918,0.028482112130436416
0.052999999999999936,0.0042,0.306,0.0223783507668583,1.0501460197622992,0.08010951860340611,0.029744981812766053
0.05400000000000005,-0.0162,-0.694,0.022298365132978625,1.0578758924724527,0.07976338292331325,0.030488290478161758
0.05499999999999994,0.0027,-2.694,0.022303200329821887,1.0578758924724527,0.07978430710765172,0.030488290478161758
0.05600000000000005,0.0146,1.306,0.02230804969209421,1.0596257182715976,0.07980529259250353,0.03065655465639704
0.05699999999999994,-0.001,1.306,0.02230297870889222,1.0578758924724527,0.07978334804903714,0.030488290478161758
0.05800000000000005,-0.0068,0.306,0.02230777528651189,1.0655496914392018,0.07980410510972381,0.031226207062609087
0.05899999999999994,-0.005,0.306,0.02232232632927418,1.0655496914392018,0.07986707435605327,0.031226207062609087
0.06000000000000005,-0.0129,0.306,0.022257967788527813,1.0672869360553368,0.07958856450133936,0.03139326142760387
0.06099999999999994,0.0038,0.306,0.02209959965836813,1.0596257182715973,0.07890323067601371,0.03065655465639702
0.062000000000000055,-0.0074,-0.694,0.02204839538817547,1.0672869360553368,0.07868164557345071,0.03139326142760387
0.06299999999999994,-0.0172,1.306,0.021908519723930625,1.067286936055337,0.07807633739717668,0.03139326142760389
0.06400000000000006,-0.0005,1.306,0.021910277291968573,1.0655496914392018,0.07808394322560631,0.031226207062609087
0.06499999999999995,-0.0026,0.306,0.021959215334650128,1.0731686195458605,0.07829572128954557,0.031958847236006435
0.06600000000000006,0.0033,0.306,0.021614915814872262,1.0483803717517743,0.07680577437466293,0.02957519616228078
0.06699999999999995,0.0051,1.306,0.020620978593401475,1.0032506774335164,0.07250453777208832,0.02523550078678553
0.06800000000000006,0.0165,1.306,0.0204564424935828,1.0050956077503372,0.07179251222389754,0.02541291026595365
0.06899999999999995,0.0028,0.306,0.020220659375698932,1.0032506774335161,0.07077216712060164,0.02523550078678551
0.07000000000000006,-0.021,0.306,0.020035026005167975,0.9913660589422044,0.06996884370063199,0.024092669560352737
0.07099999999999995,0.0088,-2.693999999999958,0.02078554539966745,0.997695416911483,0.0732166962016042,0.024701303984406876
0.07200000000000006,0.0208,0.306,0.020190521546237693,0.9838626057685886,0.07064174647390423,0.023371133517849304
0.07299999999999995,-0.0045,0.306,0.019706237816979943,0.9838626057685886,0.06854602165616132,0.023371133517849304
0.07400000000000007,-0.0143,0.306,0.019404442167864067,0.9958367767751739,0.06724000909879466,0.024522576161715038
0.07499999999999996,-0.0114,0.306,0.01894255104343508,0.9958367767751739,0.06524118767639288,0.024522576161715038
0.07600000000000007,-0.0193,-0.694,0.018827157646552507,0.997695416911483,0.06474182585389036,0.024701303984406876
0.07699999999999996,-0.0074,-0.694,0.018911531374200444,0.9958367767751739,0.06510695089178556,0.024522576161715038
0.07800000000000007,-0.0052,0.306,0.01919358697911691,1.0039848739048598,0.06632753893861694,0.02530610150942559
0.07899999999999996,-0.0352,1.306,0.01919765134222776,1.012067373291693,0.06634512736070326,0.026083318943342322
0.08000000000000007,-0.0483,1.306,0.019149515440157545,1.0138962604871158,0.06613682053869294,0.02625918570743578
0.08099999999999996,0.0035,0.306,0.01916571130178085,1.005828457530392,0.06620690769442024,0.025483381490044116
0.08200000000000007,0.0815,0.306,0.01905183325433751,0.9812271209167623,0.0657141035058738,0.023117703894705785
0.08299999999999996,0.0296,-1.694,0.019026782587448273,0.9950965685394654,0.06560569741843153,0.024451397344620585
0.08400000000000007,0.0202,-0.694,0.019054964792003838,1.0014023481211727,0.06572765515092922,0.02505776445840262
0.08499999999999996,0.0456,-0.694,0.01918992686287652,1.0095055244397566,0.0663116998839938,0.0258369701970587
0.08600000000000008,0.0224,-1.6939999999999862,0.01919916870193554,1.0175441734520314,0.06635169369404242,0.02660997095566754
0.08699999999999997,-0.0127,-0.694,0.01914307984834034,1.00398487390486,0.06610897068813353,0.02530610150942561
0.08800000000000008,-0.0065,-0.694,0.01910495531838812,1.0120673732916932,0.06594398780979462,0.026083318943342343
0.08899999999999997,-0.0123,0.306,0.019136756636124172,1.012067373291693,0.06608160715727614,0.026083318943342322
0.09000000000000008,-0.0279,1.306,0.020074205144879655,1.0102351751613763,0.07013839037435037,0.02590713379799093
0.09099999999999997,-0.0324,1.306,0.021178378119704883,1.0102351751613763,0.0749166692357297,0.02590713379799093
0.09200000000000008,-0.0366,1.306,0.022043018325305926,1.0083996480488906,0.07865837647845234,0.02573062853594603
0.09299999999999997,0.0154,0.306,0.02201816544899258,1.0002875132347386,0.07855082632440935,0.02495056134359798
0.09400000000000008,-0.0056,-0.694,0.02552229220429243,0.9947157042535849,0.09371484064480447,0.024414773232600884
0.09499999999999997,-0.0118,0.306,0.0260676278467536,0.996576435220558,0.09607476597547233,0.024593702110679887
0.09600000000000009,0.0291,0.306,0.026254914606468567,0.960233729043239,0.09688524439268219,0.021098968181873116
0.09699999999999998,0.0411,-1.694,0.026715358087242843,0.9667669297694579,0.09887780117609005,0.02172720423370217
0.09800000000000009,0.0254,-0.694,0.027435602531818048,0.964848712258898,0.10199463964524777,0.02154274741905889
0.09899999999999998,0.0014,-0.694,0.027623445076557188,0.964848712258898,0.10280752320720674,0.02154274741905889
0.10000000000000009,-0.0117,0.306,0.02755242227149086,0.962926673532021,0.10250017392782591,0.021357923154224984
0.10099999999999998,0.0002,0.306,0.027547121770478734,0.962926673532021,0.10247723615220704,0.021357923154224984
0.10200000000000009,0.011,-1.6939999999999584,0.027584413657096102,0.962926673532021,0.10263861578890114,0.021357923154224984
0.10299999999999998,0.0012,1.3059999999999863,0.027593083739718135,0.9544281206815177,0.10267613533834112,0.020540697798262175
0.10400000000000009,-0.0075,0.3059999999999861,0.027714439555747344,0.9629266735320211,0.10320129936939307,0.021357923154224995
0.10499999999999998,-0.005,-0.694,0.027680938290676138,0.9610007906610865,0.10305632354552403,0.021172729234456754
0.1060000000000001,-0.0028,0.306,0.02795251184701367,0.9379857465351075,0.10423155080895403,0.018959590367262552
0.10699999999999998,-0.0051,1.306,0.027920257745633986,0.9438924925793475,0.10409197205242839,0.019527586204142012
0.1080000000000001,-0.0189,0.306,0.02813783098702919,0.9371998481882475,0.10503351440481666,0.01888401796481227
0.10899999999999999,-0.0099,-0.694,0.028287340048858304,0.9371998481882475,0.10568051085012975,0.01888401796481227
0.1100000000000001,0.0014,0.306,0.02832605756143548,0.9458532108608947,0.10584805984483503,0.01971612991549698
0.11099999999999999,-0.003,1.306,0.02836665362487398,0.9458532108608947,0.10602373821788533,0.01971612991549698
0.1120000000000001,-0.0041,-0.694,0.028375269729725986,0.9458532108608947,0.1060610241799768,0.01971612991549698
0.11299999999999999,-0.003,0.306,0.028388977688361954,0.9458532108608947,0.10612034500241704,0.01971612991549698
0.1140000000000001,-0.0153,1.306,0.028375414854544725,0.9371998481882476,0.10606165220372801,0.01888401796481228
0.11499999999999999,-0.0302,0.306,0.0284308931840648,0.9304590659134312,0.10630173318311657,0.018235820761016763
0.1160000000000001,-0.0204,1.306,0.02845819608225897,0.9391745388330567,0.10641988574097667,0.019073905266039682
0.11699999999999999,0.0071,-0.694,0.0284653361032196,0.953655772429814,0.10645078398971473,0.02046642838015902
0.1180000000000001,-0.0049,0.3059999999999861,0.028463064456124613,0.9470321273246889,0.10644095349798748,0.019829495148816385
0.119,0.0278,-0.6939999999999722,0.028423708103002432,0.9383896360965077,0.10627063993799976,0.01899842860200571
0.1200000000000001,0.058199999999988455,1.306,0.028620995785981918,0.947032127324689,0.10712439708174853,0.019829495148816396
0.121,0.0062,0.306,0.028618806125139902,0.947032127324689,0.1071149213833267,0.019829495148816396
0.12200000000000011,-0.0005999999999958256,-0.694,0.028635097265455035,0.910746579619549,0.10718542085503119,0.01634025760905309
0.123,0.0182,-1.694,0.028566337437169576,0.912778500643457,0.10688786454682643,0.01653564821393157
0.12400000000000011,-0.011199999999998867,-0.694,0.028562735182627877,0.9127785006434572,0.10687227588714869,0.01653564821393159
0.125,-0.0061,-0.694,0.028532096412566876,0.941145086232986,0.10673968743347428,0.019263394150638834
0.1260000000000001,-0.020300000000002885,0.306,0.028528629803014786,0.941145086232986,0.10672468577384209,0.019263394150638834
0.127,-0.0333,1.306,0.02850323872646004,0.9391745388330565,0.10661480657272468,0.01907390526603966
0.1280000000000001,-0.005399999999995959,1.306,0.028633123536010968,0.9391745388330565,0.10717687959392838,0.01907390526603966
0.129,0.0128,-0.694,0.028670588028458215,0.9411450862329859,0.10733900617771051,0.019263394150638824
0.13000000000000012,0.009499999999999334,0.306,0.028643474360078382,0.9324480319506845,0.10722167250678426,0.01842708079156373
0.131,0.0065,-0.694,0.028285962835697186,0.9236690918488695,0.10567455099720324,0.01758289324859198
0.13200000000000012,0.004000000000001532,-1.694,0.02831216812235321,0.9236690918488695,0.10578795367064278,0.01758289324859198
0.133,0.0109,1.306,0.027168567722033812,0.9324480319506846,0.10083905368549684,0.01842708079156374
0.13400000000000012,-0.02279999999999898,1.306,0.02737895852816782,0.9196488859018396,0.10174951424240171,0.017196308109463175
0.135,-0.0182,1.306,0.02732059758589956,0.9176321781587023,0.10149695883384832,0.017002380421743887
0.13600000000000012,-0.005099999999997358,0.306,0.026938587988545124,0.9176321781587022,0.09984382257213927,0.017002380421743877
0.137,0.0068,1.306,0.026941756890156314,0.9046234329510122,0.09985753590866152,0.01575145257320383
0.13800000000000012,-0.011300000000010945,0.306,0.02723032310865647,0.9025731529886452,0.10110629846072967,0.0155542965630521
0.139,-0.0606,0.306,0.02724952288245955,0.9005182050062362,0.10118938496565075,0.01535669167361381
0.14000000000000012,-0.06749999999999864,0.306,0.027362540074000637,0.9095206312115429,0.10167846382342548,0.016222369758998073
0.14100000000000001,-0.0614,0.306,0.027253676114403377,0.909520631211543,0.10120735796522241,0.016222369758998084
0.14200000000000013,0.015100000000025359,0.30600000000002775,0.027184174964994715,0.9005182050062364,0.10090659360978842,0.01535669167361382
0.14300000000000002,0.1293,1.3059999999999445,0.026959151127868324,0.8935007305224067,0.09993280900469273,0.014681887600039346
0.14400000000000013,0.05319999999999693,-0.6939999999999722,0.02691721042043152,0.8955717807034146,0.09975131172089235,0.014881040885447313
0.14500000000000002,0.0394,0.306,0.027122242801992408,0.9324480319506848,0.10063858383952551,0.01842708079156376
0.14600000000000013,0.05170000000000249,1.306,0.027261526119787848,0.9344327644281935,0.10124132865246577,0.0186179337207571
0.14700000000000002,0.0629,0.306,0.0271073797887835,0.9489863587709447,0.10057426454947606,0.020017415082644364
0.14800000000000013,0.03219999999998952,0.306,0.026815396831292786,0.9431115163588585,0.09931071615128986,0.019452487115977867
0.14900000000000002,-0.015,0.306,0.026696059969545535,0.9431115163588585,0.09879428909061083,0.019452487115977867
0.1499999999999999,-0.0066,1.306,0.026696293816940938,0.9497625042042274,0.09879530105892712,0.02009204963974496
0.15100000000000002,-0.0143,0.306,0.026686124866099933,0.951711129146074,0.09875129519756862,0.02027943044913115
0.1519999999999999,-0.0074,0.306,0.026714632383854173,0.9789502313417544,0.0988746607141871,0.022898756983842757
0.15300000000000002,-0.0262,1.306,0.026731280047063967,0.9667669297694588,0.09894670302913265,0.021727204233702252
0.15399999999999991,-0.0088,0.306,0.026752678162445316,0.9667669297694589,0.0990393027981283,0.021727204233702262
0.15500000000000003,0.039,-1.694,0.0267700463638875,0.9751579551783679,0.09911446322290185,0.022534089693770038
0.15599999999999992,-0.0056,-1.694,0.026847085078751214,0.9815918294541959,0.09944784619018504,0.02315277446137398
0.15700000000000003,-0.0349,-0.694,0.026947715405726578,0.9898571920752118,0.09988332122458911,0.02394757612101436
0.15799999999999992,-0.0298,0.306,0.02750727891817827,0.9954561956950455,0.10230481728010549,0.024485979282910877
0.15900000000000003,-0.0156,1.306,0.02745154820991572,0.9973155450988734,0.10206364413849442,0.02466477530914404
0.15999999999999992,-0.0199,0.306,0.027686780758249957,0.9973155450988733,0.10308160666686712,0.02466477530914403
0.16100000000000003,-0.0079,0.306,0.027688838147700547,0.9991714344616108,0.10309050996439886,0.024843238615988198
0.16199999999999992,-0.0115,-0.694,0.028225455845205003,0.9909837609125002,0.10541270862266021,0.024055907578765433
0.16300000000000003,-0.0148,0.306,0.028617047135646233,0.9973155450988733,0.10710730940358563,0.02466477530914403
0.16399999999999992,0.0178,-0.694,0.02864211732369299,0.9973155450988733,0.10721579996831224,0.02466477530914403
0.16500000000000004,-0.0127,1.306,0.028608260883580365,1.0153487270626051,0.10706928713400082,0.02639885566478718
0.16599999999999993,0.0072,-1.694,0.02846948955415352,1.0409238779330754,0.10646875793696013,0.028858175756287793
0.16700000000000004,0.0036,-0.694,0.028402279648354043,1.0409238779330754,0.10617790887664169,0.028858175756287793
0.16799999999999993,0.0069,0.306,0.028413508410421846,1.0409238779330754,0.10622650104258975,0.028858175756287793
0.16900000000000004,0.0337,1.306,0.028592930039635683,1.05400808229712,0.10700294331902058,0.030116359797381722
0.16999999999999993,-0.0207,0.306,0.02845992562442568,1.0855153409528921,0.10642737028820203,0.03314611452425275
0.17100000000000004,-0.013,-0.694,0.028101815272626802,1.0855153409528921,0.10487765736907129,0.03314611452425275
0.17199999999999993,-0.0061,-0.6939999999999722,0.028890799245866346,1.098068337281653,0.10829196430036918,0.034353217318531894
0.17300000000000004,0.0002,0.3060000000000555,0.02957689729181346,1.098068337281653,0.11126103514753576,0.034353217318531894
0.17399999999999993,-0.0055,2.3059999999999445,0.02976515778183628,1.0855153409528921,0.11207572735647278,0.03314611452425275
0.17500000000000004,-0.0105,0.306,0.029782434127596954,1.0838073152068421,0.11215049027825429,0.03298186986132444
0.17599999999999993,-0.0151,0.306,0.029920511111011055,1.0946887938789152,0.11274801471159324,0.034028238629938964
0.17700000000000005,-0.0282,-0.694,0.03075389373990114,1.094688793878915,0.11635445563150124,0.034028238629938944
0.17799999999999994,0.0156,-0.694,0.030645104508144536,1.0872206833905818,0.11588367315601947,0.033310101158823935
0.17900000000000005,0.033,0.306,0.030672982049282475,1.0872206833905818,0.11600431246576869,0.033310101158823935
0.17999999999999994,0.0174,0.306,0.03065676434069968,1.085515340952892,0.11593413076791158,0.03314611452425273
0.18100000000000005,0.0127,0.306,0.030656698326315405,1.098068337281653,0.1159338450924385,0.034353217318531894
0.18199999999999994,0.0171,1.306,0.030652961347531975,1.098068337281653,0.11591767341722692,0.034353217318531894
0.18300000000000005,0.045,-0.694,0.030663728659934653,1.0855153409528921,0.11596426867215581,0.03314611452425275
0.18399999999999994,-0.0093,0.306,0.03067394417597616,1.077983680021309,0.11600847604316754,0.03242186600876111
0.18500000000000005,-0.0017,-0.694,0.030589184573286566,1.077983680021309,0.11564168114140433,0.03242186600876111
0.18599999999999994,-0.0227,-0.694,0.03053925337826359,1.0703990252893982,0.1154256052374098,0.031692521581283245
0.18700000000000006,-0.0415,0.306,0.030554954855929916,1.0721284122196857,0.11549355295985546,0.03185882034703345
0.18799999999999994,-0.0121,0.306,0.03054838660152731,1.0662409906700852,0.11546512901552455,0.03129268276382239
0.18900000000000006,-0.0277,1.306,0.030531203600619835,1.0662409906700852,0.11539077004108556,0.03129268276382239
0.18999999999999995,-0.0136,1.306,0.029923648556160053,1.079018242700995,0.1127615919211211,0.03252135010552967
0.19100000000000006,0.026,0.306,0.029279604956827514,1.079018242700995,0.10997451056098871,0.03252135010552967
0.19199999999999995,-0.0111,-0.694,0.028627809681911174,1.0790182427009947,0.10715388403318163,0.03252135010552965
0.19300000000000006,0.0032,-0.694,0.028984023842688465,1.1031182394399621,0.10869539123664813,0.03483881859224252
0.19399999999999995,0.0338,-2.694,0.026272522910241076,1.095707583771023,0.09696144385383478,0.034126206007076575
0.19500000000000006,0.03,-0.694,0.02584205691735887,1.1014375112719348,0.09509861384329474,0.0346771988789155
0.19599999999999995,-0.0025,-1.694,0.025611407593909497,1.1088098720198623,0.09410048509738511,0.03538612900413728
0.19700000000000006,0.0106,1.306,0.025640013626388708,1.1138110742551155,0.09422427693382722,0.03586704726738075
0.19799999999999995,-0.0021,-0.694,0.025647385110543437,1.1154731588350948,0.09425617683331454,0.03602687420337885
0.19900000000000007,0.0018,1.306,0.025540214480109513,1.1154731588350948,0.09379239881153839,0.03602687420337885
0.19999999999999996,-0.0091,-0.694,0.02571295075664809,1.1171327705468832,0.09453991040401176,0.036186463347058294
0.20100000000000007,-0.0123,2.306,0.025808318484948377,1.111483758282673,0.0949526116841415,0.03564325132735732
0.20199999999999996,0.0145,-0.694,0.026120833282934425,1.111483758282673,0.09630501107004506,0.03564325132735732
0.20300000000000007,0.0108,1.306,0.026604820232228894,1.111483758282673,0.09839945158047621,0.03564325132735732
0.20399999999999996,-0.0122,1.306,0.02662130059730424,1.1041292514349874,0.09847076991724299,0.034936038042665575
0.20500000000000007,-0.0209,1.306,0.026616742226046073,1.1041292514349874,0.0984510436881812,0.034936038042665575
0.20599999999999996,-0.0234,1.3059999999999168,0.026364327127619828,1.093341732911616,0.09735872413626134,0.03389870453185549
0.20700000000000007,-0.0554,-1.6939999999999722,0.026369075410289426,1.0824467127660211,0.09737927220185007,0.032851033607954785
0.20799999999999996,-0.0072,-0.694,0.026137714094800053,1.0807338372743565,0.09637806232953021,0.032686322590912316
0.20900000000000007,0.0374,-0.694,0.02621162403542014,1.0807338372743565,0.09669790561039539,0.032686322590912316
0.20999999999999996,-0.0036,-0.694,0.02646950715709123,1.0731686195458592,0.09781388788589214,0.0319588472360063
0.21100000000000008,0.0549,0.306,0.026902415034605963,1.0731686195458592,0.09968728508652612,0.0319588472360063
0.21199999999999997,0.0474,1.306,0.027617442967260892,1.0748935505091541,0.10278154924060179,0.0321247175136038
0.21300000000000008,0.0124,0.306,0.02762701406811554,1.0748935505091541,0.10282296792221836,0.0321247175136038
0.21399999999999997,-0.0064,2.306,0.027597218737124844,1.0766157178280402,0.10269402942844369,0.032290322037687086
0.21500000000000008,0.0111,2.306,0.028027758162500194,1.0766157178280402,0.1045571772161235,0.032290322037687086
0.21599999999999997,0.006,1.306,0.028849943721791865,1.0690213575147114,0.10811516311839264,0.0315600443163451
0.21700000000000008,0.0107,-0.694,0.0290253977364369,1.0578758924724516,0.10887443564945165,0.03048829047816165
0.21799999999999997,0.0324,-1.694,0.029023307752262344,1.0578758924724516,0.10886539129912828,0.03048829047816165
0.21900000000000008,-0.0034,-2.694,0.02916742527343974,1.0596257182715962,0.10948905599722991,0.03065655465639691
0.21999999999999997,-0.0368,1.306,0.02902693046091355,1.0536684396521598,0.108881068473415,0.030083699580247068
0.22100000000000009,-0.0673,-1.694,0.02898735527894695,1.0536684396521596,0.10870980793748657,0.030083699580247047
0.22199999999999998,-0.0633,-0.694,0.028978372701451365,1.0596257182715962,0.10867093607488312,0.03065655465639691
0.2230000000000001,-0.038,0.306,0.02898857174892716,1.0655496914392006,0.1087150721786195,0.03122620706260898
0.22399999999999998,-0.0151,0.306,0.02905584088480661,1.0672869360553354,0.10900617755551655,0.031393261427603736
0.2250000000000001,0.0294,-1.694,0.02906196023523811,1.050146019762299,0.1090326588799819,0.029744981812766032
0.22599999999999998,0.074,0.306,0.02904639078538971,1.0519087041045003,0.10896528250436856,0.029914482475331225
0.2270000000000001,0.0211,0.306,0.029011680173058076,1.0519087041045003,0.10881507326274494,0.029914482475331225
0.22799999999999998,0.0142,1.306,0.02899038795501618,1.050146019762299,0.10872293176163858,0.029744981812766032
0.2290000000000001,0.008,0.306,0.02898558825064374,1.050146019762299,0.10870216117001337,0.029744981812766032
0.22999999999999998,-0.0094,-1.694,0.028798896831117783,1.0519087041045003,0.10789425907146492,0.029914482475331225
0.2310000000000001,-0.0043,-0.694,0.028747473624531693,1.0519087041045003,0.10767172652754575,0.029914482475331225
0.23199999999999998,-0.009,0.306,0.02872047027049857,1.0519087041045003,0.10755487023898892,0.029914482475331225
0.2330000000000001,-0.0134,0.306,0.028677489173985216,1.0441346564112404,0.10736887069943203,0.029166925920097238
0.23399999999999999,-0.0015,1.306,0.028324097981679994,1.04413465641124,0.10583957981612911,0.029166925920097193
0.2350000000000001,-0.0052,0.30599999999997224,0.028351313879631107,1.0441346564112401,0.10595735588277651,0.029166925920097217
0.236,0.0111,-0.694,0.02852900546059378,1.0501460197622972,0.10672631142191512,0.029744981812765862
0.2370000000000001,0.0024,-0.6939999999999722,0.028585104946390254,1.050146019762297,0.10696908043838915,0.02974498181276584
0.238,0.0049,0.3059999999999445,0.028299487111022956,1.0501460197622965,0.10573307693505717,0.029744981812765796
0.2390000000000001,-0.002,-1.6939999999999444,0.028283757431681756,1.0631167295828847,0.10566500717062172,0.030992252158280303
0.24,0.0274,0.306,0.028176767544117912,1.0631167295828847,0.10520201130875634,0.030992252158280303
0.2410000000000001,-0.0006,0.306,0.028148468082473434,1.0683318574130602,0.105079546149359,0.03149374162035435
0.242,-0.0477,2.306,0.028028976874873143,1.0700645852058883,0.10456245116115072,0.0316603616452209
0.2430000000000001,-0.0415,0.306,0.028009891891122202,1.0683318574130602,0.10447986140709398,0.03149374162035435
0.244,-0.0241,1.306,0.02804428136746635,1.0665963147392874,0.10462868094136592,0.03132685091504107
0.2450000000000001,-0.01899999999998399,1.306,0.02784544745326118,1.032720640720809,0.10376823252356052,0.0280693481089496
0.246,0.0531,-1.694,0.02772976641935466,1.0441346564112353,0.10326762595957036,0.029166925920096745
0.2470000000000001,0.06319999999998109,-0.694,0.02775887723068212,1.0387980573116113,0.1033936022129066,0.028653755716235192
0.248,-0.022,0.306,0.027743397182819103,1.032720640720809,0.10332661272198132,0.0280693481089496
0.2490000000000001,-0.03329999999999774,-0.694,0.02774318207219218,1.0441346564112355,0.10332568183652685,0.029166925920096766
0.25,-0.0231,-0.694,0.02774442378768825,1.0363022916442957,0.10333105532695087,0.028413761564083626
0.2510000000000001,0.042800000000001844,0.306,0.027731625458868897,1.0345130162153633,0.10327567090308544,0.02824170388849499
0.252,0.0511,0.306,0.027709304388439014,1.0087753459593611,0.10317907707093216,0.025766755846562284
0.2530000000000001,0.027899999999992185,0.306,0.027692766772476906,1.0069371577547521,0.10310751098249218,0.025589994692485414
0.254,-0.0073,0.306,0.027899136474770977,1.0069371577547523,0.10400057032064254,0.025589994692485435
0.2550000000000001,-0.01339999999999869,-0.694,0.02825650176265157,1.0519087041044952,0.10554705899569897,0.029914482475330732
0.256,-0.0075,-0.694,0.02841730297159581,1.0519087041044952,0.10624292190404819,0.029914482475330732
0.2570000000000001,-0.002400000000007394,0.306,0.028459924484101777,1.0571791232404428,0.10642736535348102,0.030421288778734838
0.258,-0.0357,0.306,0.02794208334209897,1.0459074718478791,0.10418642173432006,0.029337400794084482
0.2590000000000001,-0.040000000000002665,0.306,0.028684935905306214,1.0571791232404433,0.10740109622900826,0.03042128877873488
0.26,-0.052,0.306,0.029031197422365283,1.1174719126045467,0.10889953363437437,0.03621907542745262
0.2610000000000001,-0.06289999999998905,-0.694,0.029061041424824487,1.115812805318102,0.10902868275262037,0.03605953478958214
0.262,-0.0136,-0.694,0.02867012911656297,1.1174719126045465,0.10733702024882232,0.0362190754274526
0.2630000000000001,0.007500000000009903,-0.694,0.028462852850735524,1.1101570764573243,0.10644003778135547,0.035515676898387825
0.264,0.0521,-0.694,0.028571950988416018,1.1118246234710238,0.1069121570389175,0.03567602910491374
0.2650000000000001,0.06959999999999181,0.306,0.02866151986892643,1.100443105821162,0.10729976396114639,0.03458157632260803
0.266,0.0327,-0.694,0.028666831000324813,1.0780031567643742,0.10732274773947599,0.032423738902719
0.2670000000000001,-0.0006999999999932276,-0.694,0.028683853504205704,1.0704186400386375,0.10739641216734759,0.031694407745988126
0.268,0.0298,-0.694,0.028800086054901815,1.0704186400386375,0.10789940540541644,0.031694407745988126
0.26900000000000013,0.017799999999999202,-0.694,0.028708864872659955,1.0592878768276148,0.10750464819186906,0.030624067643705056
0.27,0.0142,0.306,0.02872614491644766,1.0269762840969285,0.1075794271167631,0.027516967724982234
0.27100000000000013,0.010899999999995403,1.306,0.02863576947285411,1.0208284899991555,0.1071883298144775,0.02692579257924656
0.272,-0.0098,1.306,0.02793483174168437,1.0073134011307183,0.10415504062849493,0.02562617445535344
0.27300000000000013,0.019799999999993805,-0.694,0.02727396690961743,1.0190120446028819,0.10129516583596589,0.02675112222516753
0.274,-0.0081,1.306,0.027313252215212115,1.0208284899991555,0.10146517193968858,0.02692579257924656
0.27500000000000013,-0.0044999999999978234,-0.694,0.0273509315422685,1.0341669709918107,0.10162822821446564,0.02820842799600227
0.276,0.0053,0.306,0.02719418574315946,1.022641708978353,0.1009499149831431,0.02710015267934589
0.2769999999999999,0.026,0.306,0.0262051437059554,1.0305778990420646,0.09666986215886912,0.027863300931041605
0.278,-0.0146,-0.694,0.02615300830482844,1.0305778990420646,0.09644424761222264,0.027863300931041605
0.2789999999999999,0.0028,-0.694,0.02611553701355579,1.0226417089783528,0.09628209160670637,0.02710015267934587
0.28,-0.0023,0.306,0.026114871457444625,1.0305778990420644,0.09627921143052966,0.027863300931041585
0.2809999999999999,0.0023,0.306,0.02610248024510534,1.0171923555048648,0.09622558879228582,0.026576139955006017
0.28200000000000003,0.0067,0.3059999999999445,0.026130928670723988,1.015369405265554,0.09634869858927632,0.026400844091765602
0.2829999999999999,0.0027,-0.6939999999999444,0.02613777434502719,1.0153694052655537,0.09637832306076825,0.02640084409176558
0.28400000000000003,-0.0155,0.3060000000000555,0.026135748188533436,1.0171923555048648,0.09636955492301746,0.026576139955006017
0.2849999999999999,-0.0318,1.305999999999889,0.0261773888133268,1.0171923555048648,0.0965497536072465,0.026576139955006017
0.28600000000000003,-0.0289,-0.6939999999999444,0.026510804613757957,1.0427222881482465,0.09799260151927969,0.02903111183777293
0.2869999999999999,-0.01,0.30599999999988897,0.02838519931395736,1.048741747192651,0.10610399418876786,0.029609946216613756
0.28800000000000003,-0.0076,-1.6939999999998334,0.031109753517318685,1.046973730977279,0.1178944292505065,0.029439932838292555
0.2889999999999999,0.0129,1.306,0.03234698005683598,1.0547268529852998,0.12324849383576654,0.03018547716851962
0.29000000000000004,0.0052,-1.694,0.03239342981010396,1.043428711249631,0.12344950389416959,0.029099041858406394
0.2909999999999999,-0.0016,-0.694,0.040593092422857045,1.0564818944764205,0.15893332339189103,0.030354242890465528
0.29200000000000004,-0.0041,0.306,0.04320554103591185,1.0693757577451002,0.17023862452568794,0.0315941236307328
0.2929999999999999,-0.0142,0.306,0.043341165004465616,1.0575374920284144,0.1708255336031714,0.03045574971172753
0.29400000000000004,-0.0053,0.306,0.04325986967729104,1.0575374920284144,0.17047373026055773,0.03045574971172753
0.29499999999999993,0.016,-1.694,0.04319873922288722,1.0498051276279605,0.17020918986269976,0.029712201444069126
0.29600000000000004,0.013,1.306,0.04318158418514266,1.0420153861350459,0.17013495189809646,0.028963135764724854
0.29699999999999993,0.0051,-0.694,0.04285821605135343,1.0287786676665431,0.16873558499331115,0.02769028588634103
0.29800000000000004,-0.0018,-1.694,0.04240909631188969,1.028778667666543,0.1667920313959706,0.02769028588634101
0.29899999999999993,0.0032,0.306,0.042353737019219864,1.0287786676665434,0.16655246554535102,0.02769028588634105
0.30000000000000004,-0.0035,0.306,0.042237272312102045,1.0522688678285232,0.1660484676566091,0.02994911601032796
0.30099999999999993,-0.0053,0.306,0.04217461886260378,1.1352283803094672,0.1657773365384277,0.03792654679299651
0.30200000000000005,-0.0108,0.306,0.04196858626347263,1.142382692669949,0.1648857360051514,0.03861450926946891
0.30299999999999994,-0.0355,1.306,0.04170991239768659,1.1440032672418614,0.16376633180575742,0.03877034458104398
0.30400000000000005,-0.0464,3.306,0.04163087201032751,1.1559212747226666,0.16342428665456823,0.03991638651044043
0.30499999999999994,-0.0367,1.306,0.04162461758723173,1.1862840175106064,0.16339722080677985,0.04283608398357103
0.30600000000000005,-0.0281,-1.694,0.04183535868226689,1.2143641497086142,0.16430919722948648,0.04553628441000488
0.30699999999999994,0.0124,-0.694,0.04198698663790666,1.2143641497086142,0.16496536313079588,0.04553628441000488
0.30800000000000005,0.0653,-1.694,0.042075984245541924,1.2143641497086142,0.16535049788501696,0.04553628441000488
0.30899999999999994,0.0583,-3.694,0.042047701480356595,1.2143641497086142,0.16522810497909768,0.04553628441000488
0.31000000000000005,0.0137,0.306,0.04186617799691204,1.2143641497086142,0.1644425669849946,0.04553628441000488
0.31099999999999994,-0.0274,-0.694,0.041541997640069626,1.214364149708614,0.16303968520678433,0.04553628441000486
0.31200000000000006,-0.0325,0.306,0.04106465097001668,1.2128375938885283,0.16097398032623803,0.045389489991541875
0.31299999999999994,-0.0278,-0.694,0.04104228247296965,1.2113091142235761,0.16087718125667416,0.0452425105751347
0.31400000000000006,-0.0235,-1.694,0.04104055279606242,1.2097787034217846,0.16086969612636282,0.04509534545958337
0.31499999999999995,0.0124,-0.694,0.04070938530794488,1.2082463541449997,0.1594365777254179,0.044947993939247095
0.31600000000000006,-0.0115,0.306,0.040115232292344837,1.2149707788076525,0.15686539652501236,0.04559461818636889
0.31699999999999995,0.028,-0.694,0.03998257408690737,1.2201407605108736,0.15629132170767615,0.04609176637289642
0.31800000000000006,0.0229,-0.694,0.039986482481520064,1.218621441019254,0.15630823518028014,0.04594566780362218
0.31899999999999995,-0.0105,-0.694,0.03990507139144859,1.2171002249460119,0.1559559308768426,0.04579938685805178
0.32000000000000006,0.029,-0.694,0.03988228673210908,1.222261199444379,0.1558573308761471,0.046295668906976534
0.32099999999999995,0.0239,0.306,0.03985721170975341,1.2289089391484633,0.15574881939107868,0.046934919087752505
0.32200000000000006,0.0191,-1.694,0.03985266444729199,1.2237760001795355,0.15572914123503614,0.04644133295022922
0.32299999999999995,0.0408,-0.694,0.03984524634043532,1.2171002249460119,0.1556970395770597,0.04579938685805178
0.32400000000000007,0.0209,-1.694,0.03986649083055761,1.2267999904270634,0.1557889745368772,0.046732121458571294
0.32499999999999996,0.0027,-0.694,0.039876662780556994,1.2201407605108736,0.15583299337701295,0.04609176637289642
0.32600000000000007,-0.0137,1.306,0.03987456114537005,1.2252889281976038,0.15582389860724674,0.04658681691201205
0.32699999999999996,0.0131,0.306,0.03987183689680796,1.2252889281976038,0.1558121094948394,0.04658681691201205
0.32800000000000007,0.0022,0.306,0.03986861259746911,1.2252889281976036,0.15579815642614012,0.04658681691201203
0.32899999999999996,-0.0077,1.306,0.039901108578183755,1.2349243768392633,0.15593878190898458,0.04751336677109485
0.33000000000000007,-0.0049,0.306,0.04002478024292531,1.2349243768392635,0.15647396771307445,0.04751336677109487
0.33099999999999996,-0.0129,0.306,0.04003910191031766,1.2349243768392635,0.15653594434365756,0.04751336677109487
0.3320000000000001,-0.0108,0.306,0.040234205703598036,1.2459730070945614,0.15738025076345025,0.04857580892473195
0.33299999999999996,-0.013,-0.694,0.040467941289948434,1.2459730070945614,0.1583917352290857,0.04857580892473195
0.3340000000000001,-0.0148,1.306,0.04085050482004295,1.2654378521142924,0.16004726861983423,0.05044755876024289
0.33499999999999996,-0.0422,2.306,0.0411551098050842,1.2654378521142924,0.16136543850288518,0.05044755876024289
0.3360000000000001,-0.102,1.306,0.04103296491090152,1.2654378521142935,0.16083685975733952,0.050447558760243
0.33699999999999997,-0.1273,0.306,0.042205905471980915,1.2639729817584815,0.16591272849932465,0.05030669604878772
0.3380000000000001,-0.0887,1.306,0.0425793852476937,1.265437852114294,0.1675289521872152,0.05044755876024304
0.33899999999999997,0.0175,-0.694,0.04260169549852751,1.2654378521142964,0.16762549919785738,0.050447558760243275
0.3400000000000001,0.2462,-1.694,0.0425836852124364,1.2589830088257163,0.16754756016902886,0.049826857601235765
0.34099999999999997,0.148,-1.694,0.0426061345604209,1.254560656033507,0.16764470911885085,0.04940160180788121
0.3420000000000001,0.0588,-1.694,0.042608591788538236,1.254560656033507,0.16765534270746274,0.04940160180788121
0.34299999999999997,0.032,0.306,0.04267045795845944,1.2610381361081087,0.16792306689444148,0.05002447973225569
0.3440000000000001,0.0074,0.306,0.04292430073935205,1.2610381361081087,0.16902156470384938,0.05002447973225569
0.345,-0.0146,0.306,0.04328916344706533,1.2674825133984304,0.17060049826165352,0.05064417447531185
0.3460000000000001,0.0058,0.3059999999999445,0.043403834919094296,1.2630899195727006,0.171096735973762,0.050221780319979925
0.347,-0.0126,-0.6939999999999444,0.0438120666785282,1.2630899195727006,0.17286334793685182,0.050221780319979925
0.3480000000000001,0.0041,0.306000000000111,0.04444246520388411,1.2616223230341008,0.17559138060621654,0.050080655457339814
0.349,-0.0112,2.306000000000111,0.04445817662441157,1.2616223230341008,0.17565937135612644,0.050080655457339814
0.3500000000000001,0.0026,4.305999999999834,0.04445937043815598,1.2630899195727008,0.17566453755300807,0.050221780319979946
0.351,-0.0097,1.305999999999889,0.0444628022367527,1.2738942902857333,0.17567938856916684,0.05126073434629858
0.3520000000000001,-0.021,-0.694,0.0444908023551193,1.2802739565711638,0.1758005583285774,0.05187420644475428
0.353,-0.0108,-1.694,0.044582317966948164,1.286621989912411,0.17619658967824642,0.052484636702496014
0.3540000000000001,-0.0013,-2.694,0.04461070888443375,1.2866219899124107,0.17631945061033724,0.052484636702495986
0.355,-0.044,-2.694,0.044368349302370574,1.2545606560335067,0.1752706460351225,0.04940160180788118
0.3560000000000001,-0.0364,-0.694,0.04422190336760326,1.2495330958256543,0.17463690518981304,0.048918148947993005
0.357,0.0275,0.306,0.04415304818637441,1.2669010286963438,0.1743389362443094,0.05058825859751373
0.3580000000000001,-0.0322,0.306,0.044220468976547835,1.2669010286963438,0.1746306979010862,0.05058825859751373
0.359,-0.0089,0.306,0.043792872339543806,1.2575106192647607,0.17278028495096248,0.04968527183902018
0.3600000000000001,-0.002,0.306,0.043417892685390466,1.2094654450717421,0.1711575705794467,0.04506522237026157
0.361,0.0043,0.306,0.0435957057787652,1.2109962517575337,0.17192705196028146,0.04521242555422861
0.3620000000000001,-0.0015,0.306,0.04374798126414741,1.2310142748669313,0.17258602002914158,0.0471373692886528
0.363,-0.0064,0.306,0.04362704603834557,1.2325183178656487,0.17206267609099046,0.04728199886225573
0.3640000000000001,-0.0017,0.306,0.043585714040353274,1.2420976865056044,0.1718838129809452,0.04820315603858877
0.365,-0.006,1.306,0.04360065724296741,1.2310142748669302,0.17194847928848975,0.0471373692886527
0.3660000000000001,-0.002,1.306,0.0438989261957158,1.22950839199167,0.1732392301621461,0.04699256279154421
0.367,-0.0056,0.306,0.0439276813235554,1.283164806940547,0.17336366720475166,0.05215219215169902
0.3680000000000001,-0.0153,0.306,0.04384898123753866,1.283164806940547,0.17302309469847194,0.05215219215169902
0.369,0.0116,1.306,0.04378935064550672,1.2880611025391422,0.1727650449147025,0.05262302253704211
0.3700000000000001,0.000799999999997824,1.306,0.04384891190629543,1.292938856241056,0.17302279466938095,0.05309206992375211
0.371,-0.009,-0.694,0.04375365487063021,1.292938856241056,0.17261057240865335,0.05309206992375211
0.3720000000000001,-0.006099999999993383,0.306,0.043729577503234675,1.2943709456435355,0.1725063782486016,0.053229780401323895
0.373,0.0237,-1.694,0.04375971325637629,1.283738924793402,0.17263678991008163,0.05220739962936225
0.3740000000000001,-0.012099999999996868,0.306,0.043576160214884876,1.2822949614193724,0.17184246905809816,0.05206854734437956
0.375,0.002,1.306,0.043567043860686466,1.2822949614193722,0.17180301828041,0.05206854734437954
0.3760000000000001,-0.0023999999999938047,0.306,0.04362989326876473,1.291505178862911,0.17207499740407775,0.05295420674559691
0.377,0.0255,0.306,0.04365032912149286,1.291505178862911,0.17216343300731332,0.05295420674559691
0.3780000000000001,0.021800000000002175,-1.694,0.04370086655060373,1.291505178862911,0.17238213237302377,0.05295420674559691
0.379,0.0316,-0.694,0.04390303235667336,1.2915051788629108,0.17325699946329026,0.052954206745596887
0.3800000000000001,0.010999999999988764,0.306,0.04442807253702618,1.2851812658056956,0.17552909672735506,0.05234609590717873
0.381,-0.0396,-1.694,0.04464803633679072,1.2851812658056954,0.17648098415681324,0.05234609590717871
0.3820000000000001,-0.043900000000002645,0.306,0.044630784260870686,1.2866219899123985,0.17640632626211458,0.052484636702494813
0.383,-0.0558,2.306,0.04475831340898903,1.2880611025391422,0.1769582052218039,0.05262302253704211
0.3840000000000001,-0.05229999999998908,0.306,0.04584242379038586,1.2972303815523907,0.18164966374953168,0.05350474527705902
0.385,-0.0031,1.306,0.04642110257876481,1.3421374585204053,0.18415388064768334,0.05782303364991554
0.3860000000000001,0.10299999999998982,0.306,0.04623040451392164,1.3238008665989924,0.1833286398992487,0.05605977723159086
0.387,0.0572,-0.694,0.04509328810293993,1.319037244472143,0.1784077992036308,0.05560170479775805
0.3880000000000001,0.01579999999999727,-1.694,0.04336563342496753,1.32519960509972,0.17093142003502698,0.05619428066873643
0.389,0.0035,0.306,0.0424541589971807,1.319037244472143,0.16698703895499648,0.05560170479775805
0.3900000000000001,0.014799999999997803,1.306,0.042418250838056705,1.3279926623490337,0.1668316473618266,0.056462862537314175
0.391,0.0049,-0.694,0.03454980348391253,1.3279926623490337,0.13278115299056711,0.056462862537314175
0.3920000000000001,-0.023300000000005643,1.306,0.031242547314657122,1.3190372444721432,0.11846909083814858,0.05560170479775807
0.393,-0.0487,0.306,0.03125348093808082,1.3100206079892232,0.11851640579954946,0.05473466024453096
0.39400000000000013,-0.05629999999999534,1.306,0.031209607034163138,1.3162251837767898,0.11832654265995465,0.0553312955477158
0.395,-0.0353,1.306,0.031216752975091258,1.3176319643043175,0.11835746652719285,0.055466572310429854
0.39600000000000013,0.06110000000000304,1.306,0.031187545810762204,1.3238008665989927,0.1182310733088328,0.056059777231590883
0.397,0.0748,0.306,0.031565815159817906,1.3238008665989927,0.11986802374659068,0.056059777231590883
0.39800000000000013,0.011999999999996337,-1.694,0.03183579837367853,1.3285474084547468,0.12103636884571038,0.056516207217483294
0.399,-0.0045,-0.694,0.031954025311600534,1.3285474084547464,0.12154799274087748,0.05651620721748325
0.40000000000000013,0.006600000000002243,-1.694,0.0319390568788477,1.3100206079892212,0.12148321725058607,0.054734660244530775
0.401,0.0167,1.306,0.03193823354427644,1.2388221373940307,0.12147965429236537,0.047888177496268954
0.40200000000000014,-0.030500000000001866,1.306,0.03194184987702524,1.2388221373940318,0.12149530387510583,0.04788817749626906
0.403,-0.0389,1.306,0.03190572672047478,1.2373257570863494,0.1213389818863534,0.04774428477110597
0.40400000000000014,-0.00030000000000153206,-1.694,0.031898212065169726,1.2373257570863494,0.12130646241756242,0.04774428477110597
0.405,-0.0072,-0.694,0.031943408877059334,1.2082463541449966,0.12150205040583757,0.0449479939392468
0.4059999999999999,-0.0135,-2.694,0.031638922239877736,1.1784496066697316,0.12018439266996733,0.042082722876001566
0.40700000000000003,0.0274,-0.694,0.03143226282741731,1.1837790999859834,0.11929007961886134,0.04259520978395994
0.4079999999999999,0.0223,-0.6939999999998889,0.03134973293586566,1.1837790999859832,0.11893293373209882,0.04259520978395992
0.40900000000000003,-0.0111,1.305999999999889,0.03121003065744093,1.1837790999859832,0.1183283758782996,0.04259520978395992
0.4099999999999999,-0.0416,-0.6939999999998334,0.03128665954569175,1.185343079665898,0.11865998533193423,0.0427456029006611
0.41100000000000003,-0.0456,2.3059999999998335,0.031685216814284496,1.185343079665898,0.12038473119602064,0.0427456029006611
0.4119999999999999,0.0015,-0.6940000000000555,0.032005123689382235,1.19219669415899,0.12176911959687911,0.04340465011049489
0.41300000000000003,0.0204,-1.693999999999889,0.03200612294670997,1.19219669415899,0.12177344385609852,0.04340465011049489
0.4139999999999999,0.0262,0.306,0.03257700664101588,1.1937496456593548,0.12424392769423069,0.04355398275159311
0.41500000000000004,0.0526,0.30599999999977795,0.03279581440233903,1.2051758105804546,0.12519081239841542,0.04465272883921467
0.4159999999999999,-0.0196,-3.6939999999998334,0.03280985381375044,1.2097787034217815,0.12525156757382983,0.045095345459583075
0.41700000000000004,-0.0095,-0.694,0.032855006173717206,1.204564248659783,0.125446963197604,0.04459392072010242
0.4179999999999999,-0.0001,1.306,0.032850166687109154,1.211309114223573,0.12542602044942378,0.045242510575134405
0.41900000000000004,0.0252,1.306,0.032920675482533544,1.2180166301216444,0.12573114536589894,0.04588750886647326
0.41999999999999993,0.0021,-0.694,0.03314918877797469,1.2180166301216455,0.12672003050803293,0.045887508866473366
0.42100000000000004,-0.0189,-0.694,0.03316399893191561,1.255449717573929,0.12678412105102133,0.04948709443781775
0.42199999999999993,-0.025,0.306,0.0331805514903187,1.2539731793017932,0.12685575180247288,0.04934510973333157
0.42300000000000004,-0.0076,0.306,0.033176173415640185,1.2554497175739285,0.12683680580201206,0.04948709443781771
0.42399999999999993,0.0189,-1.694,0.03325942813442777,1.2444852250870784,0.12719708835915014,0.04843274301668287
0.42500000000000004,0.0236,-1.694,0.03345561734499522,1.2459730070945543,0.12804609189306976,0.04857580892473127
0.42599999999999993,0.0192,1.306,0.033464043002098876,1.240910654440789,0.1280825536976507,0.048089010404764716
0.42700000000000005,-0.0247,0.306,0.03348480428698225,1.2519064542533058,0.1281723975997884,0.04914637235496399
0.42799999999999994,-0.0421,0.306,0.033393550049435464,1.251906454253306,0.1277774973402977,0.04914637235496401
0.42900000000000005,-0.0685,0.306,0.033364090895285574,1.247459014700065,0.12765001364276307,0.04871870420534426
0.42999999999999994,-0.0445,0.306,0.03321493684827903,1.2889270567272628,0.1270045535145496,0.05270629315170828
0.43100000000000005,0.0037,-0.694,0.033196912868764326,1.2889270567272628,0.12692655522779867,0.05270629315170828
0.43199999999999994,0.0355,-0.694,0.032967846620896704,1.2846077925650978,0.12593527719890596,0.05229095041577252
0.43300000000000005,0.1,-1.694,0.032831622076581836,1.2860491591176382,0.12534576914596363,0.052429552989021556
0.43399999999999994,0.0746,-3.694,0.03236711591480778,1.2669010286963283,0.12333563121975988,0.05058825859751223
0.43500000000000005,0.0042,-0.694,0.03196543242359061,1.2669010286963283,0.12159735671131897,0.05058825859751223
0.43599999999999994,-0.0052,-0.694,0.03199935261357025,1.2604536784269484,0.1217441454214659,0.049968277971210805
0.43700000000000006,-0.0305,1.306,0.030298124807449624,1.2604536784269484,0.1143821278302786,0.049968277971210805
0.43799999999999994,-0.0072,0.306,0.02978216168162207,1.2604536784269484,0.11214931127562305,0.049968277971210805
0.43900000000000006,-0.0003,-1.694,0.029748997465983935,1.2495330958256385,0.1120057940241136,0.048918148947991485
0.43999999999999995,0.0058,-1.694,0.029909524242172195,1.2495330958256385,0.11270046933208983,0.048918148947991485
0.44100000000000006,-0.0115,-0.694,0.030247408481012088,1.2495330958256385,0.11416265429119687,0.048918148947991485
0.44199999999999995,-0.0593,-0.694,0.030569706253954665,1.2689433323513597,0.11555738923819638,0.05078464760171409
0.44300000000000006,-0.0273,1.306,0.030588965763423053,1.2625064117330984,0.11564073424760297,0.050165669896203746
0.44399999999999995,-0.0099,-0.694,0.03021769664026552,1.2689433323513597,0.11403407709920892,0.05078464760171409
0.44500000000000006,0.0057,1.306,0.031041289782270623,1.2639729817584688,0.11759815427782569,0.05030669604878651
0.44599999999999995,0.0491,0.306,0.031353853868235665,1.2589830088257008,0.1189507669561332,0.04982685760123427
0.44700000000000006,0.0433,1.306,0.030757221840440708,1.2633898817690628,0.11636885789710574,0.05025062484410181
0.44799999999999995,0.0278,0.306,0.029927513155830573,1.2648554274321855,0.11277831587229031,0.05039155249346676
0.44900000000000007,-0.0055,-0.694,0.029941397119187033,1.2554497175739243,0.11283839835042633,0.0494870944378173
0.44999999999999996,-0.0011,-0.694,0.030022681536129053,1.2539731793017888,0.11319015447930197,0.049345109733331144
0.45100000000000007,0.0109,1.306,0.030026877471475626,1.242995662306114,0.11320831227670088,0.048289505868509996
0.45199999999999996,0.0146,0.306,0.030018928186250377,1.236423663418015,0.11317391195861587,0.047657538964827585
0.45300000000000007,-0.0083,-1.694,0.0298763231881652,1.2298165450213439,0.11255679266352958,0.047022194950547755
0.45399999999999996,-0.017,0.306,0.02963378473333473,1.224687410037621,0.1115072140212236,0.04652897460626221
0.45500000000000007,0.0019,0.306,0.02973192056832203,1.224687410037621,0.11193189420861711,0.04652897460626221
0.45599999999999996,-0.0049,1.306,0.029737219319542558,1.229816545021344,0.11195482441205987,0.047022194950547776
0.4570000000000001,0.0154,0.306,0.02971019575726084,1.200555270515941,0.1118378806728506,0.04420841525249162
0.45799999999999996,0.0129,0.306,0.029584067617043346,1.200555270515941,0.11129206453718424,0.04420841525249162
0.4590000000000001,-0.0236,-0.694,0.02955111125060981,1.2103876306835823,0.11114944674751938,0.04515390022849896
0.45999999999999996,-0.0501,0.306,0.029653643470017907,1.2036376013817571,0.11159315217029118,0.04450481382567488
0.4610000000000001,-0.0453,1.306,0.02938534102690815,1.2088560532849273,0.11043208056140608,0.04500662293237361
0.46199999999999997,0.003,0.306,0.029028990506443392,1.1884648646082265,0.10888998326505829,0.04304579539879715
0.4630000000000001,0.0611,-0.694,0.02908351770334436,1.188464864608226,0.10912594824361013,0.04304579539879711
0.46399999999999997,0.0379,-1.694,0.029019804755503358,1.1768764661220108,0.10885023217483657,0.041931448845386514
0.4650000000000001,-0.0113,-1.694,0.028910218920470646,1.183779099985982,0.10837600242009521,0.042595209783959816
0.46599999999999997,-0.0173,-0.694,0.02843404498235053,1.1906417171489554,0.10631537250545772,0.043255122695310975
0.4670000000000001,0.0001,1.306,0.028416800527341267,1.1342450889339546,0.10624074759004555,0.03783199297206912
0.46799999999999997,-0.0264,1.306,0.0284285470097247,1.1342450889339546,0.10629158017673986,0.03783199297206912
0.4690000000000001,-0.0405,1.306000000000111,0.028439076241848046,1.1743514822549397,0.10633714514566105,0.04168864505562773
0.47,-0.0099,3.3059999999998335,0.028613336579208993,1.17435148225494,0.1070912520703668,0.04168864505562775
0.4710000000000001,-0.0138,0.3059999999999445,0.028629852607183932,1.1949835258403119,0.1071627247373727,0.043672633325147925
0.472,-0.0029,-0.6939999999999444,0.028567883323928924,1.193432179925417,0.10689455433021425,0.04352345507800126
0.4730000000000001,0.0334,0.3059999999999445,0.028487437504661976,1.1934321799254168,0.1065464272102307,0.04352345507800124
0.474,0.0382,-0.694,0.02852634828981426,1.200239604884509,0.10671481258680834,0.04417806067771281
0.4750000000000001,0.0078,-0.6940000000000555,0.028607645381720635,1.1955999884111288,0.10706662356625143,0.043731912693381045
0.476,-0.012,-1.693999999999889,0.028512299712127123,1.1840814221970848,0.10665401774458218,0.04262428124835263
0.4770000000000001,0.0062,0.3060000000000555,0.028455132269076686,1.1887659951550187,0.10640662717180509,0.043074752272116934
0.478,-0.0166,1.306000000000111,0.028604423510224443,1.2002396048845092,0.10705268100397602,0.04417806067771283
0.4790000000000001,-0.0017,3.3059999999998335,0.030317984819252932,1.2295083919916745,0.11446807149739424,0.04699256279154464
0.48,0.0007,0.306,0.029842490857986674,1.2580964441657818,0.11241038416430978,0.04974160507265307
0.4810000000000001,0.0075,1.306,0.02955682952122691,1.2595681489188246,0.11117419240987148,0.049883124983376034
0.482,0.0322,-0.694,0.029569314961690938,1.2788260807968235,0.11122822281779168,0.051734977941279695
0.4830000000000001,0.0095,-0.694,0.029400247223344594,1.2788260807968235,0.11049658672571161,0.051734977941279695
0.484,0.0125,0.306,0.027650025303809035,1.2680637314542764,0.10292254842599391,0.05070006471226586
0.4850000000000001,0.0151,0.306,0.02663919562435093,1.2137399191082503,0.09854821016565564,0.04547625806392468
0.486,-0.0016,0.306,0.026638066224609902,1.2189151214668237,0.09854332271864177,0.045973908271443736
0.4870000000000001,-0.0129,-0.694,0.026645413149222547,1.228600558476469,0.09857511633737102,0.046905265038542504
0.488,-0.0071,0.306,0.026474431520172006,1.233116016088236,0.09783519793472607,0.047339473840796724
0.4890000000000001,-0.0311,0.306,0.026464698628672102,1.239705549792011,0.09779307910844215,0.04797312690166786
0.49,-0.0474,1.306,0.026468569550437193,1.228600558476469,0.09780983041830564,0.046905265038542504
0.4910000000000001,-0.0445,2.306,0.026473909071174934,1.2173942723671205,0.09783293705073799,0.04582766261424375
0.492,-0.0257,0.306,0.026448888767918566,1.2158715209445694,0.09772466236110061,0.04568123402866833
0.4930000000000001,0.0109,1.306,0.02588100085584173,1.221037688831774,0.09526714269001907,0.04617801547662207
0.494,0.0907,-0.694,0.02573627640698011,1.2143468600428176,0.09464085152868207,0.04553462182655877
0.4950000000000001,0.05659999999998849,-0.694,0.025729706141452827,1.21282028246053,0.09461241888126318,0.0453878253154309
0.496,0.0048,-1.694,0.0257454712010417,1.2128202824605299,0.09468064175276916,0.04538782531543088
0.4970000000000001,-0.023499999999998113,-0.694,0.025709548526647672,1.2195194867649428,0.09452518734515847,0.04603202435950898
0.498,-0.015,-0.694,0.025690916613111646,1.2195194867649428,0.09444455824027541,0.04603202435950898
0.4990000000000001,-0.02249999999999316,0.306,0.025813439007123122,1.221037688831774,0.09497477060618058,0.04617801547662207
0.5,0.0083,0.306,0.025959599940201878,1.221037688831774,0.09560727811434543,0.04617801547662207
0.5010000000000001,0.015199999999998602,0.306,0.02702552810302309,1.221037688831774,0.10022005358004066,0.04617801547662207
0.502,0.0089,0.306,0.027047349832368964,1.2158715209445696,0.10031448652707836,0.045681234028668354
0.5030000000000001,-0.008500000000003465,-0.694,0.027109647636628254,1.2270917135000472,0.10058407860005009,0.04676017370421304
0.504,-0.0241,-1.694,0.027220895293377578,1.2158715209445696,0.10106549984358977,0.045681234028668354
0.5050000000000001,0.009199999999999023,1.306,0.027174004447589186,1.2158715209445696,0.10086258096916402,0.045681234028668354
0.506,0.0048,0.306,0.027400911891516368,1.2225540055538857,0.10184451683204683,0.046323825297985566
0.5070000000000001,0.0008999999999959587,-0.694,0.027425698562713215,1.2173942723671205,0.10195178048522817,0.04582766261424375
0.508,-0.0173,-1.694,0.027389529701579134,1.2189151214668237,0.10179526071111894,0.045973908271443736
0.5090000000000001,-0.026999999999996714,0.306,0.02738248335381975,1.2189151214668237,0.10176476783064076,0.045973908271443736
0.51,-0.0122,1.306,0.027525199555662162,1.2173942723671207,0.10238236835699659,0.04582766261424378
0.5110000000000001,0.001200000000003708,-0.694,0.02712341290943249,1.2240684439376992,0.10064364744801253,0.046469454497340655
0.512,0.0179,-0.694,0.026766331313475587,1.2189151214668237,0.09909838644212843,0.045973908271443736
0.5130000000000001,0.006699999999996958,0.306,0.026815263994682568,1.2189151214668237,0.09931014130443064,0.045973908271443736
0.514,-0.007,1.306,0.026121403356988163,1.2173942723671205,0.09630747805018541,0.04582766261424375
0.5150000000000001,0.0057000000000025095,1.306,0.025872214654778042,1.2060838679361607,0.09522912064114483,0.04474004811683823
0.516,0.017,-0.694,0.02585893776064126,1.1946663879926607,0.09517166523873506,0.043642137181275534
0.5170000000000001,0.012599999999995493,-0.694,0.025802675294059607,1.1999238562104708,0.09492819092729513,0.04414769811751289
0.518,-0.0077,3.306,0.025835204952896127,1.1931146297197164,0.09506896215130649,0.043492919281559815
0.5190000000000001,-0.04029999999999325,1.306,0.02570309299643184,1.1977638734307554,0.09449725121171508,0.0439399930261782
0.52,-0.0099,2.306,0.02538413816868768,1.202395140268153,0.09311698277018213,0.044385338105079115
0.5210000000000001,0.0021000000000024202,0.306,0.025430318712103876,1.1578320729420668,0.09331682783018967,0.040100129882105165
0.522,0.013,0.306,0.025480651587039143,1.1594310536127332,0.09353464199320492,0.0402538887126672
0.5230000000000001,-0.016700000000002643,1.306,0.025480890142784388,1.1578320729420664,0.09353567433677859,0.04010012988210512
0.524,-0.0286,1.306,0.025336243900194566,1.1594310536127326,0.09290972161098009,0.040253888712667135
0.5250000000000001,-0.0032000000000007105,0.306,0.02507022502261604,1.1578320729420655,0.09175853207053462,0.04010012988210504
0.526,-0.0064,-1.694,0.02512743777099753,1.1578320729420644,0.09200611870091377,0.04010012988210493
0.5270000000000001,0.038300000000015696,-1.694,0.0251341156305018,1.1459339384261649,0.09203501695837525,0.038955998947569
0.528,0.109,-2.694,0.025369997194907342,1.1459339384261646,0.09305578808634685,0.03895599894756898
0.5290000000000001,0.04289999999998672,-2.694,0.025421099132903663,1.1404275992509645,0.09327693034908154,0.038426506447885526
0.53,-0.0169,-0.694,0.025421404277931773,1.0990839945289668,0.09327825085598644,0.034450883458882246
0.5310000000000001,-0.009300000000001508,2.306,0.025421539707990062,1.0990839945289668,0.09327883692592248,0.034450883458882246
0.532,-0.0161,-0.694,0.025428947132563044,1.091645952668703,0.09331089235660348,0.03373563740301282
0.5330000000000001,0.002700000000001288,0.306,0.025254050548918185,1.0899475340720532,0.09255403209321043,0.03357231656867351
0.534,0.0085,0.306,0.025240405522236664,1.1007683162127988,0.09249498360711107,0.03461284872659768
0.5349999999999999,0.0034,1.306,0.025210714020052274,1.1024500645952953,0.09236649442970413,0.03477456654428992
0.536,0.0082,-1.694,0.025194949420982674,1.1148123890693857,0.0922982735510829,0.03596333423175191
0.5369999999999999,-0.0049,-1.694,0.025216034417465248,1.1164729830008435,0.09238951830646273,0.03612301782619645
0.538,-0.0009,1.306,0.02521157639823904,1.1148123890693857,0.09237022634812116,0.03596333423175191
0.5389999999999999,-0.0045,0.306,0.02521334678280419,1.122096878114533,0.09237788763972767,0.03666381456736283
0.54,-0.0078,0.306,0.025020635377268178,1.1452907429897268,0.09154393421357612,0.03889414893277905
0.5409999999999999,0.0009,0.306,0.024612914892495754,1.13978129651016,0.08977953477783757,0.03836435763305731
0.542,-0.0234,1.306,0.024243415172068874,1.1181311107016976,0.08818053467218763,0.03628246426659624
0.5429999999999999,-0.0006,0.306,0.0241110488470709,1.1181311107016976,0.08760772295960573,0.03628246426659624
0.544,0.0081,0.306,0.024143980350880494,1.1181311107016976,0.08775023315693395,0.03628246426659624
0.5449999999999999,-0.0106,1.306,0.02237742051647924,1.1237467075914356,0.08010549296990176,0.03682246304613999
0.546,-0.0471,1.306,0.021655831413601064,1.1237467075914354,0.07698283552809088,0.03682246304613997
0.5469999999999999,-0.0421,1.306,0.021753761660730658,1.1131493178699705,0.07740662603955765,0.03580341242190482
0.548,-0.0374,-0.694,0.02164849877569588,1.1131493178699707,0.07695110373470403,0.035803412421904844
0.5489999999999999,0.0281,-0.694,0.021600013649144427,1.1237467075914356,0.07674128565314052,0.03682246304613999
0.55,0.0752,-0.694,0.02148800450003859,1.1237467075914356,0.07625656907190176,0.03682246304613999
0.5509999999999999,0.0154,-0.694,0.02156194283420212,1.135877273616746,0.07657653522506279,0.03798894471807282
0.552,-0.0234,-1.694,0.021821783671657897,1.1478796533676485,0.07770098946298196,0.03914309992977469
0.5529999999999999,0.026,0.306,0.022055693745512486,1.1494924782544873,0.07871322901860049,0.03929819002751697
0.554,-0.0059,0.306,0.022340000675808363,1.1478796533676483,0.07994355961548133,0.03914309992977467
0.5549999999999999,-0.0352,1.306,0.022462515346728575,1.1430275245027135,0.0804737385599167,0.03867651664099875
0.556,0.0127,-0.694,0.02253489958888792,1.1587953498450843,0.08078697942171349,0.04019275910072708
0.5569999999999999,-0.0061,-0.694,0.02258919617216196,1.2048613555002752,0.08102194642599514,0.044622490671687276
0.558,0.0113,0.306,0.023485288187904012,1.203322744333269,0.08489976053147874,0.044474537004661426
0.5589999999999999,-0.0366,0.306,0.023503567496959702,1.191878814785014,0.08497886374995339,0.04337408266105724
0.56,-0.0178,1.306,0.023855354975957775,1.203322744333269,0.08650121460703764,0.044474537004661426
0.5609999999999999,0.0115,-0.694,0.023929579860137593,1.2079326984043361,0.08682242079768987,0.0449178326366321
0.562,0.0165,0.306,0.023954289824183118,1.2079326984043364,0.08692935250273622,0.04491783263663212
0.563,-0.0074,0.306,0.02389655991028939,1.2079326984043364,0.08667952785250757,0.04491783263663212
0.5640000000000001,-0.0117,0.306,0.02395911055914644,1.2079326984043364,0.08695021410367804,0.04491783263663212
0.565,-0.0077,0.306000000000111,0.02412781388937969,1.2011688735654913,0.08768027322944628,0.04426741964764095
0.5660000000000001,0.0032,1.305999999999889,0.024121199556563305,1.1943667450874549,0.08765164988201865,0.043613323360360834
0.567,0.013,0.30599999999977795,0.02406544763072621,1.1928145970026487,0.0874103849219242,0.043464067976129436
0.5680000000000001,0.0043,-1.694,0.02403276602084408,1.19126042655432,0.08726895613384836,0.04331461812034757
0.569,-0.0037,-1.693999999999889,0.024080812978602244,1.1446471861316094,0.08747687805173965,0.038832264163488464
0.5700000000000001,0.0183,-0.694,0.023743323551653633,1.1375071163149801,0.0860164016304771,0.038145671257597595
0.571,0.0212,-0.6939999999998889,0.023751047328724743,1.1141512274209648,0.08604982606808818,0.035899756576475254
0.5720000000000001,-0.0031,0.30599999999988897,0.02375554444088428,1.1141512274209648,0.08606928720004767,0.035899756576475254
0.573,-0.0194,-0.6939999999998889,0.023800502758867338,1.1141512274209648,0.08626384311235447,0.035899756576475254
0.5740000000000001,-0.0107,0.30599999999988897,0.02411789434705316,1.1141512274209646,0.08763734667672848,0.035899756576475234
0.575,-0.0186,-0.6939999999998889,0.024045721145768906,1.1084870208802913,0.08732501908864455,0.03535508346707938
0.5760000000000001,0.0134,0.306,0.024117401151316102,1.1084870208802913,0.08763521238543662,0.03535508346707938
0.577,0.0351,0.306,0.024109187226437526,1.0977423270111493,0.087599666846367,0.034321867997765564
0.5780000000000001,0.0232,-0.694,0.023966148657739172,1.0977423270111493,0.08698067128610933,0.034321867997765564
0.579,-0.0021,1.306,0.02175644627162883,1.0648579434211973,0.07741824362104013,0.031159688205787864
0.5800000000000001,0.0011,0.306,0.021426094240861396,1.0327206407208107,0.07598865408985311,0.02806934810894977
0.581,0.0097,0.306,0.021488348028197997,1.038798057311613,0.07625805568077539,0.02865375571623534
0.5820000000000001,0.0122,0.306,0.02154203520201904,1.021179055221263,0.07649038548203402,0.026959503117201026
0.583,-0.0045,-1.694,0.021740201832687902,1.0193632345118107,0.07734794624827687,0.02678489283333853
0.5840000000000001,-0.0023,-0.694,0.02173857806035009,1.0193632345118107,0.0773409194171423,0.02678489283333853
0.585,-0.0121,-1.694,0.022687022348570555,1.0193632345118107,0.0814452865742149,0.02678489283333853
0.5860000000000001,-0.0104,-0.694,0.023366986736148145,1.0248010444564406,0.084387814179699,0.02730779552581224
0.587,-0.012,0.306,0.023448215162828134,1.0248010444564408,0.08473932801222107,0.027307795525812265
0.5880000000000001,-0.0077,1.306,0.023468989922098372,1.0131692463605486,0.08482923022440565,0.026189275642884185
0.589,0.0013,2.306,0.023796227943274677,1.0186401222293537,0.0862453439628114,0.02671535797218897
0.5900000000000001,0.0151,-0.694,0.02465697005040844,1.0266072470361889,0.0899701822892225,0.027481480925213898
0.591,0.0134,-0.694,0.025298233418923143,1.0266072470361887,0.09274523227524095,0.027481480925213873
0.5920000000000001,-0.0047,0.306,0.025393041002110726,1.0345130162153648,0.09315550954245573,0.02824170388849514
0.593,-0.0166,1.306,0.02530424241474758,1.0284102773773862,0.09277123604311127,0.02765486128047161
0.5940000000000001,-0.001,1.306,0.027134177711534417,1.0302101521357878,0.10069023183968244,0.02782793819321166
0.595,0.0047,-0.694,0.02779010333432507,1.0302101521357878,0.10352873233686563,0.02782793819321166
0.5960000000000001,0.0212,-0.694,0.027772012609176507,1.0222711071491033,0.10345044521017872,0.027064515410606525
0.597,0.0099,-0.694,0.027505234495931695,1.022271107149103,0.1022959700978005,0.027064515410606504
0.5980000000000001,0.0041,-1.694,0.02725225827348855,1.014269922387558,0.10120122229678406,0.026295117234246317
0.599,-0.005,0.306,0.027092003707148506,1.0204572296591574,0.10050772496960728,0.026890091987763872
0.6000000000000001,0.0197,-1.694,0.02699176187875216,1.0266072470361887,0.10007393115235859,0.027481480925213873
0.601,-0.0368,-1.694,0.026022177938293107,1.0266072470361887,0.09587808271859151,0.027481480925213873
0.6020000000000001,-0.0332,-0.694,0.02599394609431989,1.0248010444564406,0.09575591017284855,0.02730779552581224
0.603,-0.0365,0.306,0.02593286697693084,1.0113390444468122,0.09549159193454174,0.026013282454779404
0.6040000000000001,-0.0336,1.306,0.025822905281042408,1.0131692463605484,0.09501573565205275,0.026189275642884164
0.605,-0.0202,2.306,0.025859843161230734,1.0131692463605484,0.0951755833354431,0.026189275642884164
0.6060000000000001,0.0164,3.306,0.025664623992495614,1.0186401222293535,0.09433077763147202,0.02671535797218895
0.607,0.0643,0.306,0.025637574373508214,1.0248010444564408,0.09421372113256947,0.027307795525812265
0.6080000000000001,0.0197,0.306,0.025630394717491997,1.02299165283535,0.09418265136419401,0.027133803466501304
0.609,0.049,-1.694,0.02565167853024111,1.0363022916442972,0.09427475649162183,0.028413761564083775
0.6100000000000001,0.0225,-1.694,0.02541922356280398,1.0380884830376613,0.09326881386990239,0.028585522677174135
0.611,-0.0109,-0.694,0.025364722902636472,1.04342871124963,0.09303296372835111,0.02909904185840631
0.6120000000000001,-0.0065,-0.694,0.02540582147123354,1.041651677151174,0.09321081667896458,0.028928161315658032
0.613,-0.0185,0.306,0.025404396503140535,1.0416516771511737,0.09320465016785427,0.02892816131565801
0.6140000000000001,-0.0293,0.306,0.025394771333069825,1.049444118361546,0.09316299750315894,0.029677486601266914
0.615,0.0004,0.306,0.025380043830855483,1.0571791232404433,0.09309926463329508,0.03042128877873488
0.6160000000000001,0.0044,0.306,0.025370210073416475,1.0589301004143956,0.09305670931237159,0.03058966367378318
0.617,0.0008,0.306,0.025379505540116903,1.0512079796652303,0.09309693519459655,0.029847100441073426
0.6180000000000001,0.0171,0.306,0.02534657238316064,1.0529688862735058,0.0929544178433206,0.030016430155800095
0.619,-0.0036,0.306,0.02534447143805966,1.039871606287837,0.09294532605988284,0.028756988755985907
0.6200000000000001,-0.01159999999999629,0.306,0.02534637398576513,1.0284102773773898,0.09295355928392571,0.027654861280471954
0.621,0.0051,0.306,0.025293932060106914,1.0345130162153684,0.09272661826061153,0.028241703888495482
0.6220000000000001,-0.019500000000005086,0.306,0.025206861353394613,1.032720640720815,0.09234982211832721,0.028069348108950176
0.623,-0.0424,1.306,0.02524453413237021,1.0405799646459666,0.09251285005646076,0.028825104871935854
0.6240000000000001,-0.021699999999990987,-0.694,0.025201796333067888,1.0519087041045019,0.0923279033790432,0.029914482475331374
0.625,0.0189,0.306,0.02519025322400747,1.0596257182715993,0.09227795088493627,0.03065655465639721
0.6260000000000001,0.0014000000000058842,-0.694,0.025125521832424624,1.0578758924724556,0.0919978275282521,0.030488290478162035
0.627,0.0279,-1.694,0.025092195418634285,1.0655496914392044,0.09185360836859993,0.031226207062609344
0.6280000000000001,0.042099999999995155,0.306,0.024926722024103835,1.0672869360553394,0.09113752670274437,0.031393261427604124
0.629,0.0203,-0.694,0.024823455246501074,1.0783351347436494,0.09069064249913474,0.032455662081530424
0.6300000000000001,-0.023499999999998734,1.306,0.024911718102558735,1.0783351347436496,0.09107259763565857,0.032455662081530445
0.631,-0.0178,1.306,0.024919108953229293,1.0909707515415001,0.09110458134322244,0.03367070970399967
0.6320000000000001,-0.0333999999999926,0.306,0.024902921207444396,1.0926675796724437,0.09103452930856765,0.03383387759831192
0.633,-0.0001,0.306,0.024981539254025496,1.0926675796724434,0.09137474679139532,0.0338338775983119
0.6340000000000001,0.06549999999999792,0.306,0.0249827015153709,1.0800518143917055,0.09137977644611862,0.032620738908272016
0.635,0.0561,-1.694,0.024982283364110253,1.0783351347436494,0.09137796690778072,0.032455662081530424
0.6360000000000001,-0.02109999999999776,-1.694,0.02496247929366431,1.0655496914392044,0.09129226532538501,0.031226207062609344
0.637,-0.011,-0.694,0.025024427864451332,1.063809609835319,0.09156034609989512,0.03105887989136566
0.6380000000000001,-0.03930000000000564,-1.694,0.025047501110864075,1.063809609835319,0.09166019495339098,0.03105887989136566
0.639,-0.0647,1.306,0.025235930181522762,1.057875892472456,0.09247561669049721,0.030488290478162077
0.6400000000000001,-0.057099999999992185,0.306,0.02523603802022269,1.0459074718478845,0.09247608335957176,0.029337400794084992
0.641,-0.0219,1.306,0.025521895729525873,1.0459074718478851,0.09371312491091197,0.029337400794085058
0.6420000000000001,0.01000000000001954,-0.694,0.02573934345667738,1.0571791232404475,0.09465412410378525,0.030421288778735286
0.643,0.098,-0.694,0.025827661492312547,1.0589301004144003,0.09503631802844714,0.030589663673783633
0.6440000000000001,0.060599999999987345,0.306,0.0257881490773291,1.052968886273509,0.09486532911495074,0.030016430155800397
0.645,0.0036,0.306,0.025933737415071007,1.0582340253009752,0.0954953587321904,0.0305227287211685
0.6460000000000001,-0.027299999999989544,1.306,0.026029253015762956,1.0693757577451022,0.0959086999261193,0.03159412363073299
0.647,0.0198,0.306,0.02594327439980929,1.0693757577451013,0.09553662977723062,0.031594123630732905
0.6480000000000001,-0.022999999999991406,1.306,0.025948021325314517,1.067641912021394,0.09555717196972702,0.03142739610503924
0.649,0.0157,1.306,0.02595522238986319,1.0676419120213905,0.09558833438295111,0.0314273961050389
0.6500000000000001,0.022599999999992893,-0.694,0.02597172292018433,1.0676419120213898,0.09565973998427686,0.031427396105038835
0.651,-0.0094,0.306,0.025908171806745515,1.0676419120213863,0.09538472424952761,0.03142739610503849
0.6520000000000001,-0.01519999999999889,0.306,0.025644947514364577,1.054726852985293,0.09424562820138856,0.030185477168518958
0.653,-0.0102,-0.694,0.025430014181216362,1.0659052459559744,0.09331550998096166,0.03126039737378853
0.6540000000000001,-0.01499999999999325,0.306,0.025208803742024253,1.0676419120213827,0.09235822775289824,0.03142739610503815
0.655,0.0154,-1.694,0.025055792001023577,1.0676419120213825,0.09169607355764448,0.03142739610503813
0.6560000000000001,-0.0045999999999991785,1.306,0.02501504699827389,1.0444975007865287,0.09151975065372944,0.029201817227943436
0.657,-0.0009,0.306,0.025013746890348472,0.9910049475123398,0.09151412447163736,0.024057944893458905
0.6580000000000001,0.015399999999999357,-1.694,0.024253869087384288,0.9910049475123398,0.0882257737096475,0.024057944893458905
0.659,0.0125,-0.694,0.024213754842989498,0.9910049475123398,0.08805218039555451,0.024057944893458905
0.6600000000000001,-0.006400000000002665,-1.694,0.023733261622028965,1.003628302809907,0.08597285890055488,0.02527181344354839
0.661,-0.0184,0.306,0.023696270011093076,0.9898784027872685,0.0858127786987991,0.023949615754351426
0.6619999999999999,-0.0162,0.306,0.023682073490726117,0.9880050573536875,0.08575134363860364,0.02376947386246346
0.663,-0.0025,1.306,0.024070099314396604,0.9943558092856112,0.08743051495794105,0.024380165541328585
0.6639999999999999,-0.0079,1.306,0.023998596686317604,0.9943558092856112,0.08712108925737358,0.024380165541328585
0.665,0.0032,-0.694,0.023825304581755805,1.0025159432706456,0.0863711723340739,0.025164848359442618
0.6659999999999999,0.0076,0.306,0.023849116214909732,1.016094845183388,0.08647421653633972,0.026470602779569308
0.667,0.001,-0.694,0.024094285874015044,1.0160948451833878,0.08753518164440162,0.026470602779569287
0.6679999999999999,-0.0027,0.306,0.024189552390074323,1.0179164962591298,0.08794744493127964,0.026645773714550902
0.669,0.0049,-0.694,0.02413790405438486,1.0179164962591298,0.0877239381472185,0.026645773714550902
0.6699999999999999,-0.0082,1.306,0.024163797511133983,1.0197348931485446,0.0878359913851199,0.02682063172524688
0.671,-0.0028,0.306,0.024140017205358046,1.0197348931485446,0.08773308275124005,0.02682063172524688
0.6719999999999999,-0.0141,1.306,0.024135268712445552,1.021550053229348,0.08771253377583085,0.026995178482707615
0.673,-0.0127,-1.694,0.024103011420343514,1.021550053229348,0.08757294121154001,0.026995178482707615
0.6739999999999999,0.0076,1.306,0.02382766353949051,1.0135431762885556,0.08638138066024707,0.026225232943367708
0.675,0.0047,0.306,0.02377781571879655,1.0117136508186906,0.08616566555641975,0.02604930480246488
0.6759999999999999,-0.0033,1.306,0.023727308858865197,1.0197348931485444,0.08594709847801173,0.02682063172524686
0.677,-0.02,-0.694,0.024005101344152055,1.0197348931485444,0.08714923798926569,0.02682063172524686
0.6779999999999999,0.0048,-1.694,0.023940161681844357,1.014269922387548,0.08686821334661934,0.026295117234245356
0.679,0.0211,1.306,0.023568422969491822,1.0160948451833878,0.08525952406360947,0.026470602779569287
0.6799999999999999,0.0062,-1.694,0.023486845839652975,1.0276935308526873,0.0849065012275428,0.02758593855396913
0.681,0.0036,-0.694,0.023408943296011397,1.0330874939718777,0.08456938006444865,0.028104624912420093
0.6819999999999999,-0.0232,0.306,0.02334374071598211,1.0269762840969185,0.08428721765243104,0.027516967724981273
0.683,-0.0051,0.306,0.023133824478328915,1.0348792340893234,0.08337881077786748,0.02827691959376524
0.6839999999999999,-0.0018,0.306,0.02328102804662516,1.0348792340893234,0.08401583026190337,0.02827691959376524
0.685,0.007,0.306,0.022448268774828365,1.036667877431106,0.0804120869030568,0.028448916487517836
0.6859999999999999,0.0205,0.306,0.021737855227026367,1.0251707317073113,0.07733779137536823,0.02734334484820892
0.687,-0.0161,0.306,0.021851005542365555,1.0135431762885556,0.07782744632280003,0.026225232943367708
0.688,-0.0317,-0.694000000000111,0.022101364085554635,1.0135431762885558,0.0789108661872243,0.026225232943367732
0.6890000000000001,0.0015,-1.693999999999889,0.021748639453481055,1.0135431762885556,0.07738445982540244,0.026225232943367708
0.69,0.041,-0.694000000000111,0.02077067532244578,1.0190120446028716,0.07315234634222949,0.026751122225166547
0.6910000000000001,0.036,-1.693999999999889,0.01999499984339559,1.0190120446028716,0.06979563156171922,0.026751122225166547
0.692,0.0219,-0.694,0.019875052056844648,1.0190120446028716,0.06927656074037772,0.026751122225166547
0.6930000000000001,-0.0085,-0.694000000000111,0.019857313744293444,1.0427222881482365,0.0691997986697308,0.029031111837771968
0.694,0.0275,-1.694,0.01762505145108526,1.0487417471926408,0.05953974361324916,0.029609946216612774
0.6950000000000001,0.0228,-1.693999999999889,0.016711804443554162,1.0487417471926408,0.055587691742033526,0.029609946216612774
0.696,0.001,-0.6939999999998889,0.016709648237838597,1.0564818944764094,0.05557836081977191,0.03035424289046446
0.6970000000000001,-0.011,0.30599999999977795,0.016931270603717352,1.050506787818567,0.05653742564949657,0.02977967346067244
0.698,-0.0073,-1.693999999999778,0.017365080216888075,1.0634730975202449,0.058414725086937444,0.031026520688415483
0.6990000000000001,-0.0105,0.30599999999977795,0.017218425767879145,1.0686864862970502,0.05778008190185358,0.03152784292219378
0.7,-0.0075,-1.693999999999778,0.0173081679494275,1.061035374029606,0.05816843877966473,0.03079210790280124
0.7010000000000001,0.0004,0.30599999999977795,0.017644405837819302,1.059287876827605,0.05962349920147199,0.030624067643704116
0.702,0.0027,-1.693999999999889,0.017689299256316123,1.0610353740296057,0.05981777426299699,0.03079210790280122
0.7030000000000001,0.0147,-0.6939999999997779,0.018042601011242592,1.06868648629705,0.061346678108447995,0.03152784292219376
0.704,-0.019,1.306,0.018291376270034024,1.0797203642342519,0.06242324635221019,0.03258886648508729
0.7050000000000001,-0.0143,-0.694,0.018418746588081424,1.0797203642342519,0.06297443797903785,0.03258886648508729
0.706,0.0162,0.306,0.019479537078898167,1.0797203642342519,0.06756498030726696,0.03258886648508729
0.7070000000000001,-0.0196,0.306,0.01997018488107442,1.0797203642342519,0.06968824547945802,0.03258886648508729
0.708,0.0139,0.306,0.02013134464792812,1.0797203642342519,0.07038566003752013,0.03258886648508729
0.7090000000000001,0.0097,2.306,0.020315832156077004,1.0669515204758484,0.07118402476883944,0.03136100768733012
0.71,-0.0181,0.306,0.020848614962437152,1.0652137288345067,0.07348962803878,0.031193900720100923
0.7110000000000001,-0.0072,0.306,0.021167410873900176,1.0522688678285097,0.07486920877437898,0.029949116010326658
0.712,-0.0435,1.306,0.021612255195749587,1.065213728834507,0.0767942606169439,0.031193900720100944
0.7130000000000001,0.0,0.306,0.022840706111895846,1.065213728834507,0.08211034892801022,0.031193900720100944
0.714,0.0057,1.306,0.02381193031394298,1.059287876827605,0.08631329554969909,0.030624067643704116
0.7150000000000001,0.0107,-1.694,0.024539982582147554,1.0533286874904508,0.08946392216568909,0.030051028831923683
0.716,0.0346,0.306,0.024540950389745006,1.053328687490451,0.08946811032704624,0.030051028831923704
0.7170000000000001,0.0215,-0.694,0.024558828322039747,1.053328687490451,0.08954547659837946,0.030051028831923704
0.718,-0.0064,0.306,0.024810177267845523,1.053328687490451,0.09063318240349917,0.030051028831923704
0.7190000000000001,0.0118,-0.694,0.024971139185521483,1.0533286874904508,0.09132974077456407,0.030051028831923683
0.72,-0.0045,0.306,0.025066151821683754,1.0848556778607819,0.09174090540301365,0.03308268097094686
0.7210000000000001,-0.0016,-0.694,0.025057475408874614,1.0899667970316378,0.09170335845985914,0.033574168905098345
0.722,-0.015,0.306,0.02513909514481754,1.0899667970316376,0.09205656567269568,0.033574168905098324
0.7230000000000001,-0.0219,0.306,0.025148601592309642,1.084176247907981,0.09209770456862411,0.03301734662581814
0.724,-0.0153,0.306,0.02512338684946303,1.073188183674987,0.09198858844688769,0.031960728533054386
0.7250000000000001,0.0108,1.306,0.025245841385853503,1.0899667970316378,0.09251850716076242,0.033574168905098345
0.726,-0.0364,-0.694,0.02528702742375906,1.0916651856588713,0.09269673863245666,0.03373748685756267
0.7270000000000001,0.0216,1.306,0.025290718465734146,1.0858836933465934,0.0927127115173652,0.033181535486075026
0.728,-0.0017,-0.694,0.02521250246336202,1.0858836933465934,0.09237423387004234,0.033181535486075026
0.7290000000000001,0.0052,-1.694,0.025299194787379124,1.0731881836749873,0.09274939257138654,0.03196072853305441
0.73,-0.0137,-1.694,0.02521146187112507,1.067306607997926,0.09236973073511465,0.03139515309205167
0.7310000000000001,0.0037,-0.694,0.025204947420421963,1.0561430473793918,0.09234153962484673,0.03032165917364251
0.732,-0.0119,1.306,0.025255991196602524,1.0620864459315011,0.09256243019388749,0.030893179535146028
0.7330000000000001,-0.0261,0.306,0.025188561692821968,1.0697300405631307,0.09227063082921011,0.031628191654685764
0.734,-0.0218,-0.694,0.02518480800264919,1.0697300405631305,0.09225438683591043,0.03162819165468574
0.7350000000000001,-0.0019,-0.694,0.02518427621130834,1.0824661092060193,0.09225208552318082,0.032852898779927094
0.736,0.0307,-0.694,0.025188204515046133,1.0950540605267112,0.09226908515198838,0.034063362864796054
0.7370000000000001,0.035,-0.694,0.02512393192177703,1.0967445711852186,0.09199094723267152,0.03422592326760344
0.738,-0.0009,-1.694,0.025081641203398907,1.0967445711852186,0.0918079352859331,0.03422592326760344
0.7390000000000001,-0.0057,-1.694,0.024916280712261662,1.102469109103664,0.09109234220647608,0.03477639787432982
0.74,-0.0101,0.306,0.024931249625310667,1.0899667970316387,0.09115711977523629,0.03357416890509843
0.7410000000000001,0.0018,1.306,0.0245994489971409,1.1121653841883306,0.08972126147773817,0.035708796836479074
0.742,0.0054,2.306,0.024346859656352065,1.099773305681839,0.08862818789667892,0.034517167985458064
0.7430000000000001,0.0351,1.306,0.024254178433144993,1.10548215996186,0.08822711239510979,0.03506613444518346
0.744,0.0231,0.306,0.024294149522897913,1.1054821599618594,0.08840008621133899,0.035066134445183396
0.7450000000000001,-0.0023000000000080604,1.306,0.024278493438275834,1.094707973409223,0.08833233492607184,0.03403008294376025
0.746,-0.0386,-0.694,0.024755248430507783,1.0896190940879757,0.09039547933675586,0.03354073360535943
0.7470000000000001,-0.0432999999999893,-1.694,0.024763232448629723,1.1118246234710183,0.09043002996051747,0.03567602910491321
0.748,0.0049,-1.694,0.02494038944796103,1.124083854191,0.09119667211201929,0.036854883242223656
0.7490000000000001,0.023599999999985657,0.306,0.024943604151836447,1.1134896731917594,0.09121058365660853,0.035836141170421845
0.75,-0.041,0.306,0.024921756719170806,1.1151522368057658,0.09111603947914558,0.03599601417058643
0.7510000000000001,-0.015699999999987918,-0.694,0.02491466995617891,1.1044723863930235,0.09108537170283532,0.034969034082480484
0.752,0.0387,1.306,0.02493650468946888,1.104472386393024,0.09117986092409146,0.034969034082480525
0.7530000000000001,0.0317999999999871,-1.694,0.024986755208189042,1.093688252362845,0.09139731869280014,0.03393202602633345
0.754,-0.0263,0.306,0.025056621573232817,1.0936882523628466,0.0916996635090758,0.033932026026333606
0.7550000000000001,-0.06519999999999533,-1.694,0.025003240837752433,1.087917511235534,0.09146865981149736,0.03337710849450252
0.756,-0.0442,1.306,0.02500222301856287,1.087917511235534,0.09146425522631997,0.03337710849450252
0.7570000000000001,-0.02540000000000131,0.306,0.024970215247595018,1.087917511235534,0.0913257424580286,0.03337710849450252
0.758,-0.0313,0.306,0.024940079598651077,1.0953808708867925,0.0911953312474612,0.0340947891226011
0.7590000000000001,0.04849999999999749,0.306,0.024907473520084253,1.0970708779531604,0.09105422931912158,0.034257301099720874
0.76,0.0372,0.306,0.024928861590796447,1.085534682562358,0.09114678562008151,0.033147974423691946
0.7610000000000001,0.047400000000006284,-1.694,0.025014834141678852,1.085534682562358,0.09151882952253736,0.033147974423691946
0.762,0.0757,0.306,0.025392695865552855,1.0980874577838415,0.09315401597328098,0.034355055956177855
0.7630000000000001,0.06739999999999834,-0.694,0.025720033708654704,1.0980874577838413,0.09457056168838567,0.034355055956177834
0.764,0.0599,-0.694,0.02612532345399792,1.121777851022986,0.09632444216459807,0.03663313675279399
0.7650000000000001,-0.0038000000000018206,-0.694,0.026182101302901606,1.1144912767688946,0.09657014677917986,0.03593245590238347
0.766,-0.012,0.306,0.026491611670929806,1.1257307716328577,0.09790954457521898,0.03701325169816422
0.7670000000000001,-0.03519999999999849,-0.694,0.027595931189171523,1.125730771632857,0.10268845759929317,0.037013251698164155
0.768,-0.0284,0.306,0.027891967367548717,1.1362108207323633,0.1039695462018893,0.03802101878586833
0.7690000000000001,-0.022299999999996135,-2.694,0.028154018273634382,1.136210820732363,0.10510356445238364,0.03802101878586829
0.77,-0.0049,-1.694,0.028196532823176673,1.1362108207323625,0.105287545022467,0.03802101878586825
0.7710000000000001,-0.020399999999998957,0.306,0.028195255262849838,1.1362108207323622,0.10528201641450155,0.03802101878586822
0.772,-0.0157,-0.694,0.02821417747585425,1.1345791158844316,0.10536390178252897,0.03786411318103959
0.7730000000000001,0.006000000000004441,-0.694,0.028256281047183217,1.1417374966483695,0.1055461038554439,0.038552466877349194
0.774,0.026,2.306,0.028303329524433964,1.1417374966483693,0.10574970487578485,0.03855246687734917
0.7750000000000001,0.015199999999997845,-0.694,0.02834988470996867,1.141737496648369,0.10595117118948745,0.03855246687734915
0.776,0.0055,-0.694,0.028408375354867944,1.1362108207323616,0.10620428788268933,0.03802101878586816
0.7770000000000001,0.0026000000000041966,-0.694,0.028436364959162956,1.1465950846299253,0.10632541214273782,0.0390195751176789
0.778,0.0215,0.306,0.02855125917645344,1.1465950846299242,0.10682261377897667,0.03901957511767879
0.7790000000000001,-0.000599999999999356,-0.694,0.028568374525977457,1.1449781784598752,0.10689667999387266,0.03886409256157531
0.78,0.0023,-0.694,0.028836075499815903,1.1401137014809781,0.10805514876065747,0.0383963218716023
0.7810000000000001,-0.01639999999999949,1.306,0.029008485261690132,1.1296698603381639,0.10880124736969965,0.037392036560244854
0.782,-0.0141,1.306,0.029411154631496152,1.1296698603381632,0.11054378824122713,0.03739203656024479
0.7830000000000001,-0.002699999999999578,0.306,0.02960223203126552,1.12243452027486,0.11137067055135595,0.03669628241683263
0.784,-0.0008,-1.694,0.02958460227758258,1.12243452027486,0.1112943782662927,0.03669628241683263
0.7850000000000001,0.008300000000000333,-1.694,0.03066981752341779,1.12243452027486,0.1159906180651718,0.03669628241683263
0.786,0.0098,-0.694,0.030995563061109795,1.12243452027486,0.11740027312142666,0.03669628241683263
0.7870000000000001,-0.006900000000001443,0.306,0.03107504579895012,1.1224345202748602,0.11774423253243026,0.03669628241683265
0.788,-0.0134,1.306,0.030883511148328963,1.1224345202748602,0.11691537148153412,0.03669628241683265
0.7889999999999999,0.0088,0.306,0.030905293549281416,1.1224345202748602,0.11700963423600669,0.03669628241683265
0.79,0.0059,2.306,0.030945271264579365,1.110157076457307,0.11718263672410387,0.03551567689838616
0.7909999999999999,-0.0075,0.306,0.031083020431890065,1.1101570764573068,0.11777874254206912,0.03551567689838614
0.792,-0.0052,1.306,0.031282771839118435,1.1027937220334747,0.11864316138626442,0.03480761282607291
0.7929999999999999,-0.0163,-0.694,0.031435787455614,1.0862132628101422,0.11930533235261813,0.033213227060734964
0.794,-0.026,-0.694,0.031307105037290915,1.078686474955937,0.11874846264712505,0.032489447142952245
0.7949999999999999,-0.0534,1.306,0.03135332877217521,1.0804025963505806,0.1189484946170495,0.03265447028774917
0.796,0.0064,2.306,0.03199423043120356,1.0745605092769306,0.12172197931499079,0.03209269209182414
0.7969999999999999,0.0317,-1.694,0.031918462643893405,1.0728350428417623,0.12139409625252508,0.031926770322966896
0.798,0.0084,-0.694,0.031655451575017125,1.059983259892752,0.12025592292336962,0.030690936048589267
0.7989999999999999,0.0015,-0.694,0.03166526419769455,1.0487417471926324,0.12029838678418059,0.029609946216611963
0.8,-0.0046,-0.694,0.03161140578819556,1.0617296125667193,0.12006531596512957,0.030858866249262776
0.8009999999999999,-0.0104,0.306,0.03146638562333312,1.0617296125667193,0.11943774510074971,0.030858866249262776
0.802,0.0161,-0.694,0.03151653075671497,1.067641912021374,0.11965474681724024,0.031427396105037315
0.8029999999999999,0.0238,-0.694,0.031557098587907145,1.0845063362454113,0.11983030301600363,0.033049088095666104
0.804,0.0098,-0.694,0.03140192767663786,1.0717945117698746,0.11915880506946464,0.0318267123024342
0.8049999999999999,0.0142,-0.694,0.031647651495681606,1.0717945117698746,0.12022216828976079,0.0318267123024342
0.806,0.0101,0.306,0.031011525213409778,1.0717945117698746,0.11746934890634086,0.0318267123024342
0.8069999999999999,-0.0153,1.306,0.030979551136571335,1.0659052459559644,0.11733098194848861,0.03126039737378757
0.808,-0.0054,-0.694,0.031003994724283345,1.0659052459559644,0.11743676091711357,0.03126039737378757
0.8089999999999999,-0.0141,-1.694,0.031357683139268906,1.0786864749559373,0.11896733802357444,0.032489447142952266
0.81,-0.0275,0.306,0.030982759698281563,1.091318023835988,0.11734486691302314,0.03370410359228526
0.8109999999999999,-0.0442,-1.694,0.030778903101734072,1.0913180238359879,0.11646268297242288,0.03370410359228524
0.812,-0.0597,1.306,0.03058064211338188,1.102793722033475,0.11560471387584234,0.03480761282607294
0.813,-0.0458,2.305999999999778,0.03060500050530914,1.1511030433943843,0.11571012416199938,0.0394530628267931
0.8140000000000001,-0.0181,0.30600000000022204,0.030438510512453096,1.17214437663079,0.11498964319422246,0.04147640860654375
0.815,0.0418,2.305999999999778,0.031051282436205023,1.170562762400621,0.11764139721906086,0.04132431974212383
0.8160000000000001,0.0847,0.30599999999977795,0.031078852008925975,1.1759280006967059,0.1177607038037657,0.04184024390632829
0.817,0.0459,-1.693999999999778,0.0326461541028284,1.2319203296542327,0.1245431614761018,0.04722449599823494
0.8180000000000001,0.0389,0.30599999999988897,0.03446479592670625,1.241504312341928,0.13241328507229955,0.0481460968638493
0.819,-0.0194,-0.6939999999998889,0.03515147022941294,1.269822323952542,0.13538484965509973,0.05086917190094486
0.8200000000000001,0.0037,0.306,0.0351011399572137,1.2524949003728616,0.13516704675535465,0.049202957646363385
0.821,0.0105,0.306000000000111,0.03516742161138068,1.241504312341928,0.13545387883169074,0.0481460968638493
0.8220000000000001,-0.0215,1.305999999999889,0.035118655651465484,1.2429956623061136,0.13524284545129622,0.048289505868509955
0.823,-0.0273,0.306,0.03513773699271153,1.2524949003728616,0.13532541944251092,0.049202957646363385
0.8240000000000001,-0.0223,0.30599999999988897,0.03515065401191944,1.2524949003728616,0.13538131749584173,0.049202957646363385
0.825,0.0212,-0.694000000000111,0.035056544872726386,1.2328257185444567,0.13497406272623466,0.04731155867480042
0.8260000000000001,0.0386,-1.6939999999996669,0.03511030924042348,1.2328257185444567,0.13520672658191643,0.04731155867480042
0.827,0.0335,1.305999999999889,0.03511059153323389,1.2328257185444567,0.13520794819646367,0.04731155867480042
0.8280000000000001,-0.01,0.306000000000111,0.03513036681144528,1.2328257185444567,0.1352935251812385,0.04731155867480042
0.829,-0.0395,1.305999999999778,0.03507247999059404,1.2343275542791978,0.13504302152036984,0.04745597599672704
0.8300000000000001,-0.0344,-0.694,0.03516821341089498,1.2328257185444564,0.1354573053228003,0.0473115586748004
0.831,-0.0486,-0.6939999999998889,0.03523461500771944,1.2379211341633338,0.13574465644776182,0.04780153654705296
0.8320000000000001,-0.0356,0.306,0.03539929269740374,1.2379211341633338,0.13645729472228924,0.04780153654705296
0.833,0.0241,0.306,0.03593053684299181,1.2424027170176606,0.13875623947910762,0.048232487934639745
0.8340000000000001,0.0838,-0.694,0.03601130739183368,1.2438929898512476,0.1391057718575959,0.048375793361849946
0.835,0.0449,-0.694,0.036027821153682506,1.2328257185444564,0.13917723471800195,0.0473115586748004
0.8360000000000001,0.0379,-0.694,0.03602692619998083,1.2283091937537651,0.13917336182992,0.046877247252054
0.837,0.006,-0.694,0.03610148624972746,1.2267999904270517,0.13949601844055123,0.046732121458570156
0.8380000000000001,-0.0116,-1.694,0.036165745494482905,1.23342326780534,0.1397740985945341,0.04736901932910486
0.839,-0.0167,0.306,0.03614280568910678,1.228309193753765,0.13967482720353647,0.04687724725205398
0.8400000000000001,-0.0309,0.306,0.03619514548872204,1.2298165450213436,0.13990132627914553,0.047022194950547734
0.841,-0.0353,0.306,0.03622771841069895,1.2097787034217728,0.14004228472323377,0.04509534545958224
0.8420000000000001,-0.0314,1.306,0.03628209265314892,1.2113091142235644,0.1402775877955113,0.04524251057513357
0.843,-0.0205,0.306,0.03627833882618585,1.2113091142235644,0.1402613432102553,0.04524251057513357
0.8440000000000001,0.0287,-0.694,0.03624414850759958,1.2097787034217726,0.14011338552582595,0.04509534545958222
0.845,0.0638,-0.694,0.03615640298903806,1.219536703097154,0.13973366915340737,0.046033679891158565
0.8460000000000001,0.0318,0.306,0.03576077219238395,1.2128375938885165,0.1380215875179533,0.045389489991540743
0.847,0.0144,0.306,0.03577412420770877,1.1977814024677025,0.13807936800528453,0.04394167862768127
0.8480000000000001,0.0093,-0.694,0.035711411920461365,1.1931322270615548,0.13780798226832564,0.043494611451297516
0.849,-0.0146,-1.694,0.03575129530909174,1.1983964257942548,0.137980576560305,0.04400081959742147
0.8500000000000001,-0.0277,0.306,0.03578054904222669,1.1968495036587659,0.1381071713039205,0.043852066743252094
0.851,-0.0237,1.306,0.035875838662269594,1.202097423885358,0.13851953457266644,0.044356709539582664
0.8520000000000001,-0.0418,2.306,0.03586086125523408,1.2088560532849242,0.138454720246408,0.045006622932373314
0.853,-0.0056,0.306,0.03582547099155556,1.214052074528594,0.1383015698318541,0.04550627509494085
0.8540000000000001,0.0474,0.306,0.03575003140714736,1.219225951893562,0.1379751070586224,0.04600379789037106
0.855,-0.0164,-1.694,0.03622799731179326,1.2465642541269915,0.14004349166022076,0.048632663553401
0.8560000000000001,-0.0419,-0.694,0.036323259097867946,1.245077178619451,0.1404557344782176,0.04848966558276163
0.857,0.0283,0.306,0.03631434569919211,1.2516037399156181,0.14041716198509666,0.04911726318347049
0.8580000000000001,0.0565,-1.694,0.03633834137918657,1.2516037399156181,0.1405210026451165,0.04911726318347049
0.859,-0.0033,-1.694,0.036334563873463045,1.2610381361080927,0.14050465559066128,0.05002447973225416
0.8600000000000001,-0.011,0.306,0.036353836262476354,1.2501226591109178,0.14058805633595226,0.04897484166664022
0.861,-0.032,2.306,0.03627973719302528,1.2516037399156184,0.14026739460515597,0.04911726318347051
0.8620000000000001,-0.0766,3.306,0.03600933961062466,1.2406052570718624,0.1390972563373203,0.04805964323156223
0.863,-0.0593,2.306,0.03552516756040852,1.2355209111021805,0.1370020148076273,0.04757072982265576
0.8640000000000001,-0.0857,0.306,0.035256150391003584,1.2252889281975963,0.13583785023991618,0.046586816912011324
0.865,-0.0136,1.306,0.03521200813895318,1.2319203296542363,0.1356468258309919,0.04722449599823528
0.8660000000000001,0.1007,-3.694,0.03498706081105271,1.217100224946008,0.13467337231751436,0.0457993868580514
0.867,0.116,-1.694,0.033950621180553246,1.2186214410192504,0.13018820768260264,0.04594566780362183
0.8680000000000001,0.0748,-2.694,0.03364027887382324,1.2186214410192535,0.12884520969419921,0.04594566780362214
0.869,0.0121,-1.694,0.0334433907874735,1.2252889281976038,0.12799318179412197,0.04658681691201205
0.8699999999999999,-0.0221,0.306,0.03338931595671179,1.223776000179536,0.1277591744178753,0.04644133295022926
0.8710000000000002,0.008699999999987476,-0.694,0.03341084779994362,1.223776000179536,0.12785235289054844,0.04644133295022926
0.8720000000000001,-0.0195,-1.694,0.033410780817367536,1.2252889281976038,0.12785206302525134,0.04658681691201205
0.873,-0.0112,-0.694,0.03339919606968886,1.2252889281976052,0.1278019303411434,0.04658681691201218
0.8739999999999999,-0.0036,-0.694,0.03330475689289446,1.2252889281976052,0.12739324734269006,0.04658681691201218
0.8750000000000002,-0.024599999999991563,-0.694,0.03397435601284949,1.2252889281976054,0.1302909195312217,0.046586816912012205
0.8760000000000001,-0.0056,-0.694,0.03699512741579137,1.2304155556832066,0.14336322655994704,0.04707979613394656
0.877,0.0121,-0.694,0.0392907988616432,1.22589015120548,0.15329768301965366,0.046644630835778564
0.8779999999999999,0.0074,-0.694,0.03915006459189602,1.2406052570718809,0.152688659251153,0.048059643231564
0.8790000000000002,-0.025899999999998133,0.306,0.04337783728965236,1.2406052570718804,0.17098423193133327,0.04805964323156396
0.8800000000000001,-0.0217,1.306,0.044654861658359156,1.2406052570718828,0.1765105205523927,0.0480596432315642
0.881,0.0379,1.306,0.04544355340916739,1.2391110301043173,0.17992356289897588,0.04791595757273045
0.8819999999999999,0.0632,-1.694,0.045733243016626055,1.2376149990921947,0.18117718688655818,0.04777209843601391
0.8830000000000002,0.024299999999984365,-0.694,0.045892698125441396,1.2486398215155539,0.1818672245827913,0.04883225121588664
0.8840000000000001,-0.0109,0.306,0.04634699966886183,1.2595681489188328,0.18383320229743466,0.049883124983376825
0.885,0.0079,1.306,0.04564365282503688,1.2860491591176582,0.18078948774120893,0.05242955298902348
0.8859999999999999,0.0252,0.306,0.04545807292596455,1.311995791747693,0.17998639571753883,0.05492459496382989
0.8870000000000002,-0.02259999999999165,1.306,0.04530351972773413,1.3209989464461607,0.17931757090756748,0.05579034310150345
0.8880000000000001,-0.0038,-0.694,0.04530313494090718,1.3209989464461607,0.17931590575291936,0.05579034310150345
0.889,-0.0213,-0.694,0.045290356340016345,1.3119957917476919,0.17926060670113417,0.05492459496382979
0.8899999999999999,-0.0164,-0.694,0.045262130137856044,1.3181910706022228,0.1791384585701849,0.05552033626899601
0.8910000000000002,-0.021199999999990362,-0.694,0.04531452467953022,1.328547408454757,0.1793651945405821,0.05651620721748427
0.8920000000000001,0.0005,1.306,0.04517661696981052,1.3299411548862077,0.17876840263460453,0.056650230614596724
0.893,0.0044,0.306,0.04507087089529652,1.3238008665990024,0.17831078934027078,0.05605977723159183
0.8939999999999999,-0.0065,-1.694,0.04504014013739767,1.3238008665990022,0.17817780281170129,0.056059777231591806
0.8950000000000002,-0.003199999999993383,0.306,0.04504450912686965,1.3238008665990015,0.1781967094961751,0.056059777231591744
0.8960000000000001,0.0117,1.306,0.04465679071148989,1.3224006486160154,0.17651886847795073,0.05592513152664638
0.897,-0.0235,1.306,0.04458610088135964,1.328547408454756,0.17621296013865334,0.05651620721748417
0.8979999999999999,-0.0188,1.306,0.044563647105375845,1.3346658598928915,0.17611579202678346,0.05710456075748427
0.8990000000000002,-0.01450000000000533,0.306,0.044564021795540636,1.334665859892891,0.17611741348839755,0.05710456075748422
0.9000000000000001,-0.0265,1.306,0.04454366783946087,1.3243573685630365,0.17602933229070586,0.05611329075602968
0.901,-0.0012,1.306,0.04454936309141545,1.3304950885737974,0.1760539783404148,0.05670349717220759
0.9019999999999999,0.0021,1.306,0.04483142136552007,1.3243573685630352,0.17727457793808613,0.05611329075602955
0.9030000000000002,0.005000000000024203,1.306,0.045025832993225046,1.304351546770896,0.1781158890299611,0.05418952030675343
0.9040000000000001,0.0595,-2.694,0.04536725565916381,1.3105829613631566,0.1795933864372031,0.054788736443652605
0.905,0.0299,0.306,0.045133366110161256,1.330495088573793,0.17858123570232995,0.05670349717220716
0.9059999999999999,-0.006,1.306,0.04590406014323366,1.3215566282875566,0.18191639340930418,0.055843970083575084
0.9070000000000003,-0.02019999999999036,1.306,0.04592392791508703,1.321556628287556,0.18200237065782787,0.05584397008357502
0.9080000000000001,0.0015,-1.694,0.04594679428099636,1.3215566282875555,0.18210132424150743,0.05584397008357497
0.909,-0.0184,0.306,0.045668369886164406,1.3215566282875542,0.18089645015868683,0.05584397008357485
0.9099999999999999,-0.0148,-0.694,0.04600970030305288,1.3125572988721508,0.18237354836064398,0.05497858978715249
0.9110000000000003,0.0016000000000038637,0.306,0.046007238770407466,1.3125572988721506,0.18236289614430254,0.05497858978715247
0.9120000000000001,0.0103,-0.694,0.04592150448631101,1.2938015457044358,0.18199188333495678,0.05317502660075321
0.913,-0.014,-1.694,0.04528425011303024,1.2575106192647472,0.17923418216802595,0.049685271839018885
0.9139999999999999,-0.0042,1.306,0.044917645542981374,1.2429956623061154,0.17764771074779684,0.04828950586851012
0.9150000000000003,-0.012799999999996403,1.306,0.04421837266956837,1.2429956623061151,0.17462162618899463,0.0482895058685101
0.9160000000000001,-0.0047,-0.694,0.044371177571947716,1.257510619264747,0.17528288529567573,0.049685271839018864
0.917,0.0024,-1.694,0.04325675606552203,1.2027102401537813,0.170460256189341,0.044415638277440946
0.9179999999999999,0.0138,1.306,0.04175930366388598,1.1912604265543054,0.1639800711822846,0.04331461812034616
0.9189999999999998,0.0041,0.306,0.041223120479273886,1.1727728445552172,0.1616597528668825,0.04153684241595648
0.9200000000000002,-0.0125,0.306,0.041541882218376805,1.1912604265543054,0.16303918572251191,0.04331461812034616
0.921,-0.0104,-0.694,0.04150008531322483,1.2207445190206576,0.1628583107392328,0.04614982411187307
0.9219999999999999,0.0197,1.306,0.041526520457905856,1.2207445190206578,0.1629727081170955,0.0461498241118731
0.9229999999999998,-0.0108,0.306,0.04168424283444532,1.2207445190206576,0.1636552474609916,0.04614982411187307
0.9240000000000002,-0.0707,0.306,0.04183092612201046,1.2304155556831957,0.16429001544415212,0.04707979613394552
0.925,-0.1479,1.306,0.04183560695459419,1.2289089391484533,0.16431027162130774,0.04693491908775155
0.9259999999999999,-0.1378,1.306,0.041836197100639745,1.2289089391484533,0.164312825462453,0.04693491908775155
0.9269999999999998,0.004,2.306,0.04187847167272485,1.2274004732648456,0.1644957675365425,0.04678986420718843
0.9280000000000002,0.1871,0.306,0.041864765859575166,1.2325183178656396,0.1644364559986365,0.04728199886225485
0.929,0.1132,1.306,0.041865304068216216,1.2310142748669228,0.16443878508206017,0.04713736928865199
0.9299999999999999,0.0911,0.306,0.041877648052151537,1.2325183178656396,0.16449220334065562,0.04728199886225485
0.9309999999999998,0.0708,0.306,0.041823757225618236,1.2274004732648456,0.1642589922377602,0.04678986420718843
0.9320000000000002,0.0523,-1.694,0.04165204567700524,1.2207445190206578,0.1635159151278336,0.0461498241118731
0.933,0.0691,-1.694,0.041172007076748174,1.2109962517575217,0.16143856099170512,0.045212425554227456
0.9339999999999999,0.0234,-2.694,0.04112617484558549,1.2094654450717295,0.16124022324360984,0.04506522237026035
0.9349999999999998,-0.0179,-2.694,0.041227129365285844,1.2109962517575217,0.16167710121331497,0.045212425554227456
0.9360000000000002,-0.0055,-1.694,0.041242597629505696,1.204249633887832,0.16174403971084125,0.04456366719652945
0.937,0.0057,-0.694,0.04117253779702467,1.2042496338878317,0.16144085766943253,0.04456366719652942
0.938,-0.0044,-0.6939999999997779,0.041122261470442865,1.1974650056127683,0.1612232882178965,0.043911253738062116
0.9389999999999998,0.005,1.305999999999667,0.04112320021231346,1.1959168786830365,0.16122735059810214,0.043762385030238445
0.9400000000000002,-0.0378,-1.693999999999889,0.04106779925725253,1.1943667450874402,0.16098760445460522,0.043613323360359425
0.9410000000000001,0.001,-0.6939999999998889,0.04103720007874682,1.2042496338878317,0.16085518733232188,0.04456366719652942
0.942,-0.0058,0.306,0.04099052461166574,1.2094654450717293,0.16065320050346127,0.04506522237026033
0.9429999999999998,-0.012,0.30599999999988897,0.04099292578687509,1.224377966101296,0.1606635915246209,0.04649921831298942
0.9440000000000002,-0.0293,-0.6939999999998889,0.04103205919503439,1.2310142748669228,0.1608329402962759,0.04713736928865199
0.9450000000000001,-0.0242,0.306000000000111,0.04111717461999811,1.226491079495283,0.16120127500936363,0.04670241641929862
0.946,-0.0194,1.306,0.04126834807537841,1.226491079495283,0.16185547407302,0.04670241641929862
0.9469999999999998,0.0025,1.305999999999778,0.041351165912664266,1.2198301631906447,0.16221386603720553,0.04606189916961485
0.9480000000000002,-0.0094,-0.6939999999998889,0.04128709272661362,1.2146588594853025,0.1619365910472652,0.045564623858661196
0.9490000000000001,-0.0057,0.306000000000111,0.041527812831805094,1.2094654450717295,0.16297830083039724,0.04506522237026035
0.95,-0.0286,1.305999999999889,0.04185555605420422,1.2109962517575217,0.1643966008135117,0.045212425554227456
0.9509999999999998,-0.0555,0.306,0.0418073937731872,1.233423267805342,0.16418817983731832,0.04736901932910505
0.9520000000000002,-0.0591,0.306000000000111,0.041865374284345766,1.2379211341633325,0.16443908894047293,0.04780153654705283
0.9530000000000001,-0.0558,1.306000000000111,0.04186488265720057,1.232825718544455,0.16443696143722014,0.047311558674800275
0.954,-0.0112,2.305999999999667,0.04186352539084019,1.2277091553788582,0.16443108790353755,0.04681954724322301
0.9549999999999998,0.0854,-0.694,0.04144577699880826,1.1983964257942523,0.16262329296874725,0.04400081959742124
0.9560000000000002,0.0441,-0.6939999999998889,0.041341913700933826,1.199941353693857,0.1621738273397002,0.04414938068480879
0.9570000000000001,0.0318,0.30599999999977795,0.0413381642170644,1.1931322270615508,0.1621576015490652,0.043494611451297134
0.958,-0.0252,-1.693999999999889,0.041293487590874076,1.1862840175105895,0.1619642646504178,0.042836083983569403
0.9589999999999999,-0.056,-0.6939999999998889,0.04131819308785349,1.1762501907557146,0.16207117702435567,0.041871225873528206
0.9600000000000002,0.01,0.306,0.04127770263125421,1.1831564783682014,0.16189595566206272,0.042535338158499386
0.9610000000000001,-0.0154,-0.694,0.0412607052538071,1.1884648646082154,0.16182239996815773,0.043045795398796084
0.962,-0.0078,1.306,0.04126658617906476,1.188464864608216,0.16184784951409364,0.043045795398796154
0.9629999999999999,-0.0146,1.306,0.04128577793513415,1.193749645659342,0.16193090132248775,0.04355398275159188
0.9640000000000002,-0.0334,0.306,0.041270326875432806,1.1937496456593326,0.16186403727705273,0.043553982751590975
0.9650000000000001,-0.0392,2.306,0.04127381644089183,1.1937496456593326,0.16187913827775496,0.043553982751590975
0.966,0.0192,0.306,0.04134367230584635,1.1983964257942352,0.1621814376551767,0.044000819597419596
0.9669999999999999,0.0268,0.306,0.04169265021301474,1.1968495036587463,0.1636916301657071,0.04385206674325021
0.9680000000000002,0.0338,-1.694,0.042088528512585044,1.2073225329692752,0.16540478286337656,0.044859158804317886
0.9690000000000001,0.0528,-2.694,0.042415542531618104,1.222261199444348,0.16681992723853,0.04629566890697354
0.97,0.012,-2.694,0.04254679041392252,1.2435883248771338,0.16738789892042638,0.04834649661612166
0.9709999999999999,0.0172,-0.694,0.042534004638536474,1.2645558128743448,0.16733256882120606,0.05036274139844974
0.9720000000000002,0.0412,-1.694,0.043570829050780364,1.2645558128743437,0.1718193985887714,0.05036274139844964
0.9730000000000001,0.0368,-1.694,0.04483095945611703,1.2580964441657494,0.17727257903756352,0.04974160507264996
0.974,-0.0072,0.306,0.04490313096886451,1.2860491591176137,0.17758489931854998,0.052429552989019204
0.9749999999999999,-0.0247,-0.694,0.04440862674205695,1.2966622372705785,0.17544494557245208,0.053450112221160015
0.9760000000000002,-0.0196,0.306,0.041898658833174535,1.2966622372705785,0.16458312693062951,0.053450112221160015
0.9770000000000001,-0.0055,1.306,0.03977151609308714,1.2966622372705785,0.1553779739139974,0.053450112221160015
0.978,0.0077,0.306,0.039769881733072145,1.2762223456200579,0.15537090126497446,0.0514846013837533
0.9789999999999999,0.0279,-0.694,0.03514932117275354,1.277673171984202,0.13537554967018645,0.05162411361751057
0.9800000000000002,-0.0046,-0.694,0.033496025392839336,1.2712804542493301,0.1282209566336904,0.05100938648474454
0.9810000000000001,-0.0002,0.306,0.03253288536719573,1.2820157999232318,0.12405299406803384,0.05204170302663891
0.982,0.0037,-0.694,0.03176187004103286,1.2820157999232318,0.120716445973849,0.05204170302663891
0.9829999999999999,-0.0145,0.306,0.03137473456186358,1.2820157999232318,0.11904112759640242,0.05204170302663891
0.9840000000000002,-0.0308,-0.694,0.03067884010902425,1.2712804542493301,0.11602966306179939,0.05100938648474454
0.9850000000000001,0.0138,0.306,0.030638308302744645,1.2444852250870488,0.11585426275987658,0.048432743016680026
0.986,0.0075,0.306,0.030990758019523137,1.2155771051707627,0.1173794794331504,0.04565292285148526
0.9869999999999999,-0.0099,0.306,0.03145694284526879,1.2109962517574944,0.11939688173255811,0.045212425554224826
0.9880000000000002,-0.0047,0.306,0.03146851200917398,1.231014274866896,0.11944694697830528,0.04713736928864941
0.9890000000000001,-0.0001,0.306,0.03187824410051085,1.250711944486596,0.12122005158736675,0.0490315076613541
0.99,0.0044,-1.694,0.03188288194170909,1.2507119444865995,0.1212401217204575,0.04903150766135444
0.9909999999999999,0.0083,1.306,0.033476955921432294,1.2680637314542453,0.12813843400888483,0.05070006471226287
0.9920000000000002,0.0045,2.306,0.03370975888718618,1.318749939857552,0.12914588258396364,0.05557407743342213
0.9930000000000001,-0.0184,1.306,0.03381396030367916,1.3201540299610903,0.1295968114122417,0.0557090954835364
0.994,-0.0272,1.306,0.03434331389279791,1.3304950885737719,0.13188757483676922,0.05670349717220513
0.9949999999999999,-0.0354,0.306,0.03435307578278717,1.329101923018216,0.1319298191532362,0.05656952963242724
0.9960000000000002,-0.02859999999998508,0.306,0.034268134899453885,1.3393738983820538,0.13156223976436138,0.057557288239194794
0.9970000000000001,0.005,-0.694,0.03421846165124188,1.3332770524595967,0.13134728011825608,0.05697101229705774
0.998,0.0485,-0.694,0.03434227611844135,1.328547408454729,0.13188308389614317,0.05651620721748159
0.9989999999999999,0.0543,-0.694,0.034927014927799274,1.3285474084547297,0.13441352537214954,0.05651620721748165
1.0000000000000002,0.017400000000002087,-2.694,0.03540459191284886,1.3346658598928673,0.13648022693465145,0.05710456075748194
1.0010000000000001,0.0221,-1.693999999999778,0.03533065198814034,1.3346658598928685,0.13616025389844974,0.05710456075748205
1.002,0.0004,-0.694,0.034903673836597884,1.336053223682268,0.13431251742753217,0.05723797039634483
1.003,-0.0036,-0.6939999999997779,0.03535039402594416,1.3374391483203973,0.1362456870362545,0.057371241645657094
1.0040000000000002,-0.007399999999999201,0.306,0.0352751783604193,1.3577792571890426,0.13592019326597013,0.05932715731776079
1.0050000000000001,-0.0056,-0.6939999999997779,0.03525927425113743,1.3396567799617463,0.13585136866065622,0.05758449028214565
1.006,-0.0023,0.306,0.0342320134437369,1.3396567799617463,0.1314059251359201,0.05758449028214565
1.007,0.0064,0.30599999999977795,0.03395033556835669,1.339656779961747,0.13018697170350113,0.05758449028214572
1.0080000000000002,0.01439999999999467,-0.694,0.0338409158304591,1.3396567799617474,0.12971346072964626,0.05758449028214576
1.0090000000000001,0.0024,1.306,0.03376189298628652,1.339656779961749,0.12937149149612492,0.057584490282145906
1.01,-0.0089,1.306,0.033301050003487875,1.3382731519197688,0.12737720587844778,0.05745143987473915
1.011,-0.0071,0.30600000000022204,0.033297101516906555,1.3396567799617494,0.12736011890892748,0.057584490282145954
1.0120000000000002,-0.01619999999999649,1.306,0.033263503327976986,1.3443473398646133,0.12721472364966732,0.05803553701371459
1.0130000000000001,-0.0083,-1.6939999999993338,0.03325431178915829,1.3396567799617494,0.12717494751255629,0.057584490282145954
1.014,-0.0068,1.306,0.033241419333253634,1.3335612273329234,0.12711915575625993,0.05699833870381137
1.015,-0.0272,-1.6939999999995559,0.033072829127181895,1.3437991162901224,0.12638958617225912,0.05798281954361213
1.0160000000000002,-0.054000000000001595,0.306,0.03285487571806316,1.3254855117226838,0.12544639865426863,0.05622177360145496
1.0170000000000001,-0.0576,2.306,0.03279927204697848,1.3254855117226836,0.12520577526262922,0.05622177360145494
1.018,-0.0543,2.306,0.03270325848807606,1.335785297000669,0.12479027916793275,0.05721220642433767
1.019,-0.0336,2.306,0.03253636360612114,1.3254855117226836,0.12406804605346641,0.05622177360145494
1.0200000000000002,0.007000000000039124,2.306,0.03215806788560282,1.2983820951253577,0.12243098149391309,0.05361549466594815
1.0210000000000001,0.0951,-0.6939999999997779,0.03225878085781575,1.2707007075222247,0.1228668141733607,0.050953637731543704
1.022,0.1074,0.306,0.03221314874163493,1.2707007075222247,0.12266934241746909,0.050953637731543704
1.023,0.0277,-2.693999999999778,0.03206775388631396,1.2598689496138327,0.12204015009020398,0.049912050137973056
1.0240000000000002,-0.02419999999999587,-1.694,0.03190041623819088,1.2489432542372136,0.12131600091704929,0.04886142946756446
1.0250000000000001,-0.0149,1.306,0.031900015965785074,1.2489432542372136,0.12131426874897504,0.04886142946756446
1.026,-0.0403,1.306,0.03183274755935515,1.2474590147000546,0.1210231665287512,0.04871870420534325
1.027,-0.0016,0.306,0.03177693561049756,1.2539731793017828,0.12078164182064936,0.04934510973333057
1.0280000000000002,0.019400000000008348,-0.694,0.03177375850218535,1.2474590147000546,0.1207678929698491,0.04871870420534325
1.0290000000000001,0.0382,0.306,0.031764660986756114,1.2539731793017828,0.12072852371642805,0.04934510973333057
1.03,0.044,-1.694,0.03170007290554114,1.2539731793017828,0.12044902053150774,0.04934510973333057
1.031,0.0071,0.306,0.03169806066325043,1.2589830088256952,0.12044031260709653,0.04982685760123374
1.0320000000000003,-0.016900000000001907,-1.694,0.03174709315002511,1.2589830088256952,0.12065249937530954,0.04982685760123374
1.0330000000000001,-0.0212,0.306,0.031848353939745964,1.25751061926474,0.12109070272029392,0.0496852718390182
1.034,-0.0172,-0.694,0.03183368166366268,1.258983008825695,0.1210272088400274,0.04982685760123372
1.035,-0.0499,0.306,0.03168749402785763,1.268362517366392,0.12039458577653242,0.05072879612426982
1.0360000000000003,-0.05419999999998046,1.306,0.032179837872928455,1.268362517366392,0.12252519052874936,0.05072879612426982
1.0370000000000001,-0.0102,2.306,0.032381424897082484,1.2791223527702233,0.1233975529558374,0.05176346761160153
1.038,-0.0511,2.306,0.032844315315612174,1.285476073059402,0.1254006987965926,0.052374444729276874
1.039,0.0074,1.306,0.03299896926218444,1.285476073059402,0.12606995959230452,0.052374444729276874
1.0400000000000003,0.10889999999996922,-2.694,0.035108370386943644,1.285476073059402,0.13519833624561114,0.052374444729276874
1.0410000000000001,0.0396,-3.694,0.03566578221260399,1.2762223456200767,0.13761052093438897,0.051484601383755116
1.042,0.0272,-0.694,0.03567367715687139,1.2805698935648306,0.13764468609343994,0.05190266390324706
1.043,0.0613,-1.694,0.035711561678447544,1.2613385862444995,0.1378086303419844,0.05005337117694989
1.0440000000000003,0.030499999999987433,0.306,0.035754540109102,1.2563381499603097,0.13799461834510857,0.04957252656796751
1.0450000000000002,0.0022,-1.694,0.03565133226602615,1.2513177314104176,0.13754798917907965,0.04908976045370197
1.046,-0.0061,0.306,0.035486523141555176,1.252797399378816,0.13683478212404668,0.04923204611144304
1.047,-0.0292,-0.694,0.03538368699669353,1.2527973993788157,0.1363897614720461,0.049232046111443016
1.0479999999999998,-0.0643,-0.694,0.03670334259777309,1.2578119120098614,0.14210053560500055,0.04971424430941547
1.0490000000000002,-0.0582,1.306,0.036395374587752195,1.2672000887555657,0.14076781232176966,0.050617016371649046
1.05,-0.0172,1.306,0.036297335362670755,1.2657372578832873,0.14034355021114628,0.0504763497780136
1.051,0.0093,-0.694,0.03644551937981542,1.2373257570863352,0.14098481256121304,0.0477442847711046
1.0519999999999998,0.0815,-0.694,0.036964349347669234,1.2277091553788584,0.1432300352976583,0.04681954724322303
1.0530000000000002,0.0509,-2.694,0.036968633160471644,1.2277091553788584,0.14324857338238464,0.04681954724322303
1.054,0.0038,-0.694,0.036990541789012836,1.2373257570863396,0.14334338238335367,0.047744284771105025
1.055,0.0122,-0.694,0.036988493040641585,1.2388221373940222,0.14333451647986045,0.04788817749626814
1.0559999999999998,0.0046,-0.694,0.037182383119942417,1.2373257570863407,0.14417357058503902,0.047744284771105136
1.0570000000000002,-0.0163,0.306,0.037457320109360724,1.2388221373940234,0.14536335301469566,0.047888177496268246
1.058,-0.0101,-1.694,0.03975546538195129,1.2388221373940238,0.15530851489310196,0.04788817749626829
1.059,0.0071,0.306,0.0399899050941508,1.24835313395117,0.15632304644441808,0.04880468318742638
1.0599999999999998,-0.0085,-0.694,0.04000556653854888,1.2433004725094128,0.15639082092397177,0.048318816579553836
1.0610000000000002,-0.0038,1.306,0.0400540738786234,1.2433004725094126,0.1566007351339591,0.048318816579553815
1.062,0.0006,-0.694,0.04016859089515309,1.2542753217848737,0.1570963044440472,0.04937416391498231
1.063,-0.0113,0.306,0.04020068259451404,1.2492466132573539,0.15723518041020315,0.048890600632065004
1.0639999999999998,-0.0004,-1.694,0.04022091251302488,1.2382271935467135,0.15732272483865023,0.047830967379916864
1.0650000000000002,-0.0101,-0.694,0.04027654286753029,1.2316297502848739,0.15756346370207544,0.04719655373174122
1.066,-0.0014,0.306,0.04021632384890858,1.220451278785997,0.15730286751805939,0.046121625975158655
1.067,-0.0093,-1.694,0.039865013013776346,1.227108823593965,0.15578257932448936,0.04676181901993189
1.0679999999999998,-0.0071,0.306,0.03944959929358206,1.2122298972927432,0.15398488761930568,0.04533105356412371
1.0690000000000002,-0.0183,0.306,0.03936316461433689,1.1903410611193732,0.15361084386878493,0.04322621145181814
1.07,-0.0281,0.306,0.03923895259943689,1.1680421052698469,0.1530733197139124,0.04108193201362544
1.071,-0.0005,-0.694,0.039237773270037024,1.1469255148124688,0.15306821619764233,0.03905134945953453
