time_sec,bts_raw,diy_raw,bts_rms,diy_rms,bts_norm_rms,diy_norm_rms
0.0,-0.004199999999998001,-0.264,0.006255418348529318,0.5716354073303651,0.003361402569407939,0.0
0.0009999999999998899,0.0048,-0.264,0.006258061904383853,0.5766581771182288,0.003365351928754515,0.00039588701513289145
0.0020000000000000018,-0.0038999999999988007,1.736,0.0062471267818297585,0.5771596879142946,0.0033490153234995604,0.00043541532729865387
0.0029999999999998916,0.0015,0.736,0.006249525255063584,0.5776607633112478,0.003352598539896244,0.0004749093219737927
0.0040000000000000036,0.0006999999999998224,-1.264,0.0062669115448359515,0.578161404441131,0.003378572912972939,0.000514369088384168
0.004999999999999893,-0.0001,-0.264,0.0062589833257810975,0.5831279652948459,0.0033667284929005305,0.0009058258014917308
0.006000000000000005,-0.0023000000000007992,-0.264,0.006027179530115444,0.5880525811800107,0.0030204235395123267,0.0012939764764768051
0.006999999999999895,-0.0059,-0.264,0.0060160642168387846,0.5929362972158468,0.0030038177370270173,0.001678903488034337
0.007999999999999785,-0.0023,0.736,0.005869265125400099,0.6057748281865862,0.0027845061749703255,0.002690816818599106
0.008999999999999897,-0.0052,0.7360000000000018,0.005866511160495738,0.6105167948451984,0.002780391869226975,0.0030645713615354902
0.009999999999999787,-0.0016,1.736,0.005909209078757749,0.6353639376917598,0.002844180732351661,0.005022985071810203
0.010999999999999899,-0.0031,-0.264,0.005908297474827252,0.6398866678113746,0.0028428188350809428,0.005379459726816736
0.011999999999999789,0.0037,-0.264,0.005962696911295182,0.6403386602093863,0.0029240892657754576,0.005415085074756032
0.0129999999999999,0.0012,0.7359999999999982,0.006054475842821905,0.6407903337869255,0.0030612030628688613,0.005450685293754408
0.01399999999999979,-0.0032,-0.264,0.0060648758983946,0.6526882424122625,0.0030767403009455472,0.006388460212961282
0.014999999999999902,0.0044,-0.264,0.006048086138413767,0.6531313756811993,0.0030516571178558793,0.0064233872979272974
0.015999999999999792,-0.0021,-0.264,0.006051613505640951,0.6575319066195815,0.003056926853580807,0.006770230400791675
0.016999999999999904,-0.0014,0.736,0.0060533053867816025,0.7130874749716651,0.003059454451620646,0.011149035135593666
0.017999999999999794,-0.0035,1.7359999999999896,0.006049230145216029,0.7134930967272722,0.003053366215074049,0.011181005620581504
0.018999999999999906,-0.0043,-1.264,0.006007792484162027,0.7175235281167013,0.0029914601223001384,0.011498678044333506
0.019999999999999796,0.0052,0.736,0.0059882347745990345,0.7387804747908294,0.002962241740956801,0.013174117995810749
0.020999999999999908,0.0016,-0.264,0.006019140111122588,0.7426736862550937,0.0030084129914900457,0.013480974955409585
0.021999999999999797,-0.0039,0.736,0.0060327201944289964,0.7465465950490268,0.003028701054948752,0.013786231689655459
0.02299999999999991,0.0008,-0.264,0.005909612774305254,0.7503995155268037,0.002844783836228198,0.014089912975462566
0.0239999999999998,0.0034,1.736,0.005788013568284629,0.770750289934416,0.002663119824851292,0.01569392981799024
0.02499999999999991,0.0042,-1.264,0.005558547678701787,0.7744828104984335,0.0023203076031274206,0.015988121367159276
0.0259999999999998,0.014,-0.26399999999999657,0.0055797204455788054,0.7781974287294443,0.0023519388110003966,0.01628090188188372
0.026999999999999913,0.0129,0.736,0.005507517068335666,0.7785691300052462,0.0022440700544994383,0.016310198806650977
0.027999999999999803,0.014,0.736,0.005509186066982687,0.7789406539096116,0.002246563467072782,0.01633948175127351
0.028999999999999915,0.0064,-1.264,0.0055904192552410975,0.7887573975701162,0.0023679223749052494,0.017113222438229197
0.029999999999999805,0.0057,-0.264,0.005584874867121377,0.7891241247976074,0.002359639296261726,0.017142127316133467
0.030999999999999917,0.0014,-0.264,0.0055835558855978846,0.7894906816762294,0.002357668794296038,0.017171018767400997
0.031999999999999806,-0.0094,0.736,0.005588812877614003,0.7931350142171025,0.0023655225154565395,0.01745825947177172
0.03299999999999992,-0.0108,-1.264,0.0055351590555020504,0.796762678029493,0.0022853660007099968,0.017744186372515403
0.03399999999999981,-0.0042,-0.264,0.00554634313601528,0.7971257223404205,0.0023020745385046513,0.017772800968581765
0.03499999999999992,0.0045,0.736,0.005505452201778835,0.8163124363550157,0.002240985232205382,0.019285068355353097
0.03599999999999981,-0.0056,-0.264,0.0054956191844792585,0.8166667899846725,0.002226295125048954,0.019312997965243894
0.03699999999999992,0.001,-0.264,0.005359325841201204,0.8170209899261319,0.002022678701273445,0.019340915461666573
0.03799999999999981,-0.0051,-0.264,0.005353247089008898,0.8205430593841144,0.0020135973055673477,0.019618519577264407
0.038999999999999924,-0.0084,0.736,0.005235557715653937,0.820895586794965,0.0018377744169173176,0.019646305247388366
0.039999999999999813,-0.0058,-0.264,0.005285764238607794,0.8212479628805526,0.001912780814208574,0.019674078990287065
0.040999999999999925,0.0026,-0.264,0.0052796564085652135,0.839883797359243,0.001903655977438214,0.021142926896497268
0.041999999999999815,-0.0028,-1.264,0.005282659529869451,0.8433103861509996,0.0019081425121832405,0.021413005372348203
0.04299999999999993,0.0103,-1.2639999999999862,0.005290538542270406,0.8436534001034759,0.0019199134196199478,0.02144004120626655
0.04399999999999982,-0.0023,0.736,0.005173190028198128,0.8470647400463094,0.0017445997601551536,0.02170891779122076
0.04499999999999993,0.0057,-0.264,0.005178925245021738,0.8474062343089819,0.0017531679287180026,0.02173583384551835
0.04599999999999982,0.0043,-0.264,0.005172189787451993,0.8508025271878868,0.0017431054432740492,0.022003524443959786
0.04699999999999993,0.008,-0.264,0.0051447385239646965,0.8688046482382674,0.0017020944300802556,0.023422424029187924
0.04799999999999982,0.0044,-0.264,0.005164698105945528,0.8721176131256527,0.001731913191622408,0.023683546843073625
0.04899999999999993,0.0034,0.736,0.005168672190458582,0.8724493012433405,0.0017378503038603756,0.023709689992055638
0.04999999999999982,-0.0057,0.736,0.005134585558065206,0.8757484784820121,0.001686926333404019,0.0239697260846052
0.050999999999999934,0.0005,-0.264,0.005118585217024112,0.8757484784820122,0.0016630225084363582,0.02396972608460521
0.051999999999999824,0.0017,-0.264,0.005102499574373453,0.8787060713180022,0.0016389912465134924,0.024202839018159845
0.052999999999999936,-0.0048,-0.264,0.00509381273519418,0.8698031232114781,0.0016260134804314908,0.023501122295985735
0.053999999999999826,0.0014,0.736,0.005099539464139227,0.8668151538482026,0.001634568968466906,0.023265615131115493
0.05499999999999994,0.0036,0.736,0.005199308844872536,0.858229266075471,0.001783620154816992,0.022588888618420108
0.05599999999999983,-0.0032,0.736,0.0052199384876930885,0.8612470234235937,0.001814439958586259,0.022826743626593156
0.05699999999999994,-0.0025,-1.264,0.005220718644614875,0.869803123211478,0.0018156054796497042,0.023501122295985725
0.05799999999999983,0.0052,0.736,0.005198580171518247,0.8870937929912251,0.0017825315480007502,0.024863946382666407
0.05899999999999994,0.0078,1.735999999999993,0.005219253772798718,0.8925006852369592,0.0018134170238284471,0.025290109341096417
0.05999999999999983,-0.0005,0.736,0.005200855801370512,0.8895889561707042,0.0017859312416410313,0.02506061131956641
0.06099999999999994,-0.0081,-0.264,0.005214938108066906,0.8723477440366119,0.0018069696053575903,0.023701685408701212
0.06199999999999983,-0.0106,-0.264,0.005232204488941519,0.8807960174286708,0.001832764839671141,0.02436756536686497
0.06299999999999994,-0.0044,-1.264,0.005235213179561603,0.8837367178779921,0.001837259694735769,0.024599346868397206
0.06399999999999983,-0.0066,-0.264,0.005258898738678438,0.8807960174286709,0.0018726449067094336,0.024367565366864977
0.06499999999999995,-0.0073,0.736,0.005263573197581767,0.8807960174286709,0.0018796283483221285,0.024367565366864977
0.06599999999999984,-0.0036,2.736,0.005252651855640063,0.8837367178779922,0.001863312330712505,0.024599346868397213
0.06699999999999995,0.0004,-0.264,0.005269927540261478,0.8837367178779922,0.001889121464425732,0.024599346868397213
0.06799999999999984,-0.0021,0.736,0.005271114024402304,0.8837367178779922,0.0018908940209703946,0.024599346868397213
0.06899999999999995,0.0004,1.736,0.0052607986452994976,0.8748849638112949,0.0018754832859169803,0.023901665181965445
0.06999999999999984,0.0062,0.736,0.00524472695902154,0.8748849638112947,0.0018514728742178306,0.023901665181965428
0.07099999999999995,0.0041,0.736,0.005233547246706155,0.8719144096157213,0.0018347708623238706,0.023667530653917267
0.07199999999999984,-0.001,0.7360000000000139,0.005267171818639355,0.8803668414291699,0.0018850045342212046,0.024333738372480394
0.07299999999999995,-0.0039,1.736,0.005261186532533892,0.877414846740363,0.0018760627728500617,0.024101066676305165
0.07399999999999984,-0.0002,0.736,0.005300977469715848,0.8945584037364647,0.001935508730611451,0.02545229555889228
0.07499999999999996,-0.0049,0.736,0.005297970895327793,0.88036684142917,0.0019310170371069349,0.0243337383724804
0.07599999999999985,0.0005,-0.264,0.005296409066250672,0.88036684142917,0.0019286837312859513,0.0243337383724804
0.07699999999999996,-0.0017,-0.264,0.00515293393914821,0.8974540099097504,0.001714338029737343,0.025680522798713686
0.07799999999999985,-0.0096,-1.264,0.005016653596193464,0.8974540099097504,0.0015107410278886598,0.025680522798713686
0.07899999999999996,-0.0049,-0.264,0.004819505271358206,0.8945584037364647,0.001216209865244921,0.02545229555889228
0.07999999999999985,-0.0042,-0.264,0.004951750853946167,0.9032173737911641,0.0014137791077260767,0.02613478230502246
0.08099999999999996,0.0034,0.736,0.00496708326723277,0.9060853086358736,0.0014366850772046975,0.02636082853314365
0.08199999999999985,0.0041,0.736,0.004966143730315348,0.9089441945099406,0.0014352814492465788,0.026586161535270224
0.08299999999999996,-0.0061,-0.264,0.004911876012448618,0.9089441945099406,0.001354207800506896,0.026586161535270224
0.08399999999999985,0.0004,1.736,0.004792956269454195,0.9036356971415206,0.0011765467922548094,0.02616775391023781
0.08499999999999996,-0.0032,-0.264,0.004776192519556104,0.9036356971415205,0.0011515024671159605,0.026167753910237804
0.08599999999999985,0.0,-0.26399999999998613,0.004773674068685212,0.9089441945099406,0.001147740009262541,0.026586161535270224
0.08699999999999997,-0.0007,0.7359999999999861,0.004749783506454668,0.9170553890173515,0.0011120485314077087,0.02722547345246383
0.08799999999999986,-0.0,-0.264,0.004862562415456649,0.9334712159144936,0.0012805353964003626,0.028519343764209087
0.08899999999999997,0.0091,-0.264,0.00493515306142702,0.9362464809805384,0.0013889827158111625,0.02873808590243207
0.08999999999999986,-0.0022,1.736,0.004889031409311684,0.9413711004345335,0.0013200789407883144,0.029142000552121197
0.09099999999999997,0.0054,0.736,0.0048606913605741195,0.9413711004345334,0.0012777401204558058,0.02914200055212119
0.09199999999999986,0.0043,-0.264,0.004853606354859328,0.9492052394112483,0.001267155425037983,0.02975947537709163
0.09299999999999997,-0.0019,0.736,0.004886989403894148,0.941371100434533,0.0013170282720582893,0.029142000552121152
0.09399999999999986,0.0035,-0.264,0.004797917644574113,0.9362464809805383,0.0011839588744198609,0.028738085902432063
0.09499999999999997,0.001,0.736,0.004894502730151995,0.9496033042044447,0.001328252860042461,0.029790850233886536
0.09599999999999986,0.0053,1.736,0.004935160536898008,0.9523315586304791,0.0013889938838449931,0.03000588706552784
0.09699999999999998,0.0045,0.736,0.004933443312158108,0.9780375622379953,0.001386428423552161,0.03203199486440894
0.09799999999999986,0.0023,-0.264,0.004895631763601861,0.9780375622379953,0.00132993958771276,0.03203199486440894
0.09899999999999998,0.0045,0.736,0.004876438441781576,0.9806867162126748,0.00130126558606731,0.032240797119729776
0.09999999999999987,-0.001,-0.264,0.004882097978402961,0.9806867162126748,0.0013097206916458854,0.032240797119729776
0.10099999999999998,0.0026,0.736,0.004849435596204993,0.9855802914734457,0.0012609244900473155,0.03262650122028318
0.10199999999999987,-0.0025,-1.2639999999999862,0.004850715281184065,0.9855802914734457,0.0012628362846568747,0.03262650122028318
0.10299999999999998,-0.0029,-0.264,0.0048654510298754014,0.9855802914734457,0.0012848508627574596,0.03262650122028318
0.10399999999999987,-0.0102,-0.26399999999998613,0.004929889956567353,0.9855802914734457,0.0013811198623239266,0.03262650122028318
0.10499999999999998,0.0046,0.736,0.004959101088921097,0.9829443263650915,0.001424760044311157,0.03241873849118852
0.10599999999999987,0.0024,-1.264,0.004946635661334605,0.9878267177588418,0.0014061372288093322,0.032803561096487424
0.10699999999999998,-0.0034,1.736,0.004938985447580318,0.9926850960415843,0.0013947081367619817,0.03318649102518707
0.10799999999999987,-0.0052,-1.264,0.0049696386392995805,1.0004951706658884,0.0014405026937452075,0.03380206913478943
0.10899999999999999,0.002700000000000311,-0.264,0.0049876755894207245,1.0052923266944038,0.0014674491255455633,0.03418017361926023
0.10999999999999988,0.0041,-0.264,0.00492601832066846,0.9900680470025942,0.001375335803932424,0.032980219231682706
0.11099999999999999,0.005199999999999755,-1.264,0.004976185119465694,0.9900680470025942,0.0014502828550332159,0.032980219231682706
0.11199999999999988,0.0041,0.736,0.004946178432956326,0.9926850960415845,0.0014054541491739325,0.03318649102518709
0.11299999999999999,0.005099999999998002,-0.264,0.0048417640371110834,1.0001173619608505,0.001249463508975792,0.03377229083181204
0.11399999999999988,-0.0039,-0.264,0.004824930904708728,0.9926850960415844,0.0012243155293439859,0.03318649102518708
0.11499999999999999,-0.0028999999999983123,0.736,0.004817135878013716,1.0001173619608505,0.0012126700929587697,0.03377229083181204
0.11599999999999988,0.0047,-0.264,0.004762364526543898,0.9975198120779218,0.0011308440371631929,0.03356755593189762
0.11699999999999999,-0.0017999999999998445,0.736,0.004782664160440926,0.958894618227309,0.0011611708217195925,0.030523177362249437
0.11799999999999988,-0.0011,-1.264,0.004828293839709831,0.958894618227309,0.0012293396103581053,0.030523177362249437
0.119,0.0010999999999988677,-1.2639999999999862,0.004825537052524969,0.9561850901670337,0.0012252210882484334,0.030309616514051084
0.11999999999999988,-0.004,-0.264,0.004833245501156085,0.9561850901670337,0.001236737180710286,0.030309616514051084
0.121,-0.006199999999997979,-1.264,0.004814514004324928,0.9534678623058984,0.0012087531258401858,0.030095448779352198
0.12199999999999989,0.0029,-0.264,0.004809196803217977,0.9507428686256979,0.001200809454873925,0.02988066895469903
0.123,0.0064999999999992,1.736,0.00483666401800826,0.9480100421593974,0.00124184429863193,0.029665271761852567
0.12399999999999989,0.0029,0.736,0.004826998902338781,0.931850371905246,0.0012274050293274777,0.02839159132403803
0.125,0.00399999999999758,-1.264,0.004852422049545056,0.9290619750115633,0.001265386123566976,0.028171814155290787
0.1259999999999999,-0.0069,1.736,0.004885334564602389,0.9290619750115631,0.0013145560129559232,0.02817181415529077
0.127,-0.005399999999999201,0.736,0.004908925130583364,0.9290619750115631,0.0013497993092487347,0.02817181415529077
0.1279999999999999,-0.0018,-0.264,0.004950790874274964,0.936999034793968,0.0014123449391684187,0.028797401040395465
0.129,-0.01309999999999556,1.736,0.004884629583256779,0.9290619750115631,0.0013135028009870259,0.02817181415529077
0.1299999999999999,0.0069,0.736,0.004904116941332615,0.9290619750115631,0.0013426160802184216,0.02817181415529077
0.131,-0.0010999999999984679,0.736,0.004886414001954881,0.936999034793968,0.0013161686461786312,0.028797401040395465
0.1319999999999999,0.0058,0.736,0.0048873213956906365,0.9342260053098871,0.001317524253598532,0.028578835107315896
0.133,-0.0006999999999996004,0.736,0.004876525296465406,0.9314447202006733,0.0013013953432490196,0.02835961847851863
0.1339999999999999,0.0011,-0.264,0.00484967540321588,0.9314447202006731,0.00126128275146184,0.028359618478518624
0.135,-0.0042999999999996895,-1.264,0.004850586701481657,0.9149925367862808,0.0012626441920825441,0.027062882601815632
0.1359999999999999,-0.0029,-1.264,0.0048437440699873185,0.9230505837531521,0.0012524215933805043,0.027698005511335277
0.1369999999999998,-0.0105,1.736,0.004874157886634331,0.9310388917545155,0.0012978585342470492,0.028327631702498433
0.1379999999999999,0.0098,0.736,0.004904232503416911,0.9282480572303494,0.0013427887250282299,0.028107662403453203
0.1389999999999998,-0.005,-1.264,0.0049210355545021905,0.9282480572303494,0.001367891764459303,0.028107662403453203
0.1399999999999999,-0.0024,-0.264,0.004844545487727811,0.9444693643348285,0.0012536188771974871,0.029386200963325684
0.1409999999999998,-0.0003,-1.2639999999999723,0.004840131561450989,0.9310388917545156,0.001247024660182342,0.02832763170249844
0.1419999999999999,0.0063,-0.26399999999997226,0.004809724370185571,0.9282480572303494,0.0012015976173524428,0.028107662403453203
0.1429999999999998,0.0045,0.7360000000000277,0.004828021821400442,0.9310388917545156,0.001228933226641724,0.02832763170249844
0.1439999999999999,0.0099,1.7359999999999722,0.00490112148069263,0.9444693643348286,0.0013381409901780392,0.029386200963325695
0.1449999999999998,0.0085,0.736,0.0049507619512637446,0.9472124061553426,0.0014123017294270792,0.02960240331473186
0.1459999999999999,0.0041,-2.264,0.004949893364305622,0.9472124061553426,0.0014110040976726783,0.02960240331473186
0.1469999999999998,0.0052,-0.264,0.004928644679745598,0.9338213855802593,0.0013792594720293027,0.028546943600479713
0.1479999999999999,-0.001,0.736,0.004975151113397481,0.9472124061553426,0.0014487380942055205,0.02960240331473186
0.1489999999999998,-0.0042,0.736,0.004969980155524885,0.9499475272782979,0.0014410129043746145,0.02981798136889831
0.1499999999999999,0.0005,-1.264,0.004999379894246389,0.9549986283587193,0.0014849348562060711,0.030216101413080763
0.1509999999999998,0.0012,-0.264,0.005010435778804247,0.9549986283587193,0.00150145187472805,0.030216101413080763
0.1519999999999999,-0.0042,-0.264,0.005048997523435924,0.9522780150562526,0.0015590614714082627,0.030001666843085775
0.1529999999999998,-0.0093,-0.264,0.005060141282701527,0.9472124061553427,0.001575709770984039,0.02960240331473187
0.15399999999999991,-0.0056,-0.264,0.005052051955499687,0.9472124061553429,0.001563624662232776,0.02960240331473188
0.1549999999999998,0.0009,-1.264,0.004949087418262655,0.9499475272782978,0.001409800048765535,0.0298179813688983
0.15599999999999992,-0.0016,-1.264,0.004967898193840887,0.9472124061553426,0.001437902542691957,0.02960240331473186
0.1569999999999998,0.006,1.736,0.0049938320191225275,0.9472124061553423,0.0014766465681275466,0.029602403314731834
0.15799999999999992,0.0067,-1.264,0.004994331086167673,0.9310388917545154,0.0014773921529412485,0.028327631702498423
0.1589999999999998,0.0005,-0.264,0.004967595823454982,0.9310388917545149,0.0014374508142718245,0.02832763170249839
0.15999999999999992,-0.0071,0.736,0.005021578122213465,0.9310388917545149,0.001518098059074962,0.02832763170249839
0.1609999999999998,0.0059,0.736,0.00505373848673652,0.947212406155342,0.0015661442677451967,0.02960240331473181
0.16199999999999992,-0.0031,-1.264,0.005046965380795616,0.9393616473872834,0.0015560255372454536,0.028983618543284618
0.1629999999999998,-0.0017,-0.264,0.005035408628785618,0.9365956130447081,0.0015387602441787518,0.02876560395653546
0.16399999999999992,-0.006,-1.264,0.0050445121831776156,0.9393616473872834,0.001552360564960103,0.028983618543284618
0.1649999999999998,0.0005,-0.264,0.005156462475942929,0.9393616473872836,0.0017196095127461296,0.028983618543284625
0.16599999999999993,-0.0057,-0.264,0.005171425254127621,0.9365956130447082,0.0017419632631967125,0.02876560395653547
0.16699999999999982,0.0066,-0.264,0.005149895851510442,0.944469364334828,0.0017097992567859973,0.02938620096332564
0.16799999999999993,-0.0013,-0.264,0.005209655367205372,0.9417183326024164,0.0017990774165236583,0.02916936885931167
0.16899999999999982,-0.0028,1.736,0.005260360330690191,0.9338213855802586,0.001874828462643231,0.02854694360047966
0.16999999999999993,-0.0046,-0.264,0.005260418689220811,0.9286551052905225,0.0018749156477912054,0.02813974530758051
0.17099999999999982,-0.0035,-0.264,0.00536238509360176,0.931444720200673,0.002027249093474897,0.028359618478518613
0.17199999999999993,0.0052,-0.264,0.005328857217360249,0.9262651840616851,0.001977159880803983,0.0279513753799017
0.17299999999999982,-0.0024,-0.264,0.0053595508141891,0.9262651840616851,0.00202301480129227,0.0279513753799017
0.17399999999999993,-0.005,-0.26399999999997226,0.005504176244964727,0.917823678373004,0.002239079007314775,0.02728602884174378
0.17499999999999982,-0.0075,0.7359999999999722,0.00549940449293428,0.9149925367862806,0.0022319502139326874,0.027062882601815615
0.17599999999999993,0.0048,-0.264,0.005523385049983319,0.9097193340749168,0.002267776140196074,0.02664725684754819
0.17699999999999982,0.0066,-1.264,0.005494889285982773,0.8928669231047777,0.002225204687922687,0.02531897564842143
0.17799999999999994,0.0051,-0.264,0.005468772580036124,0.8982390650375187,0.002186187446597817,0.02574239964045107
0.17899999999999983,0.0065,-0.264,0.00548027926429835,0.8982390650375187,0.002203377940591411,0.02574239964045107
0.17999999999999994,-0.0,-1.264,0.005335407773698298,0.8811671200994501,0.001986946131718471,0.024396815110501967
0.18099999999999983,-0.0036,-0.264,0.005317241724329595,0.8782178154289516,0.001959806831165557,0.024164355437446206
0.18199999999999994,-0.0026,-0.264,0.005326639183374881,0.8752585727253642,0.001973846232924704,0.02393111246385667
0.18299999999999983,-0.0033,-0.264,0.0053131213721427034,0.8807381249350594,0.001953651201280693,0.024363002369263573
0.18399999999999994,0.001,-0.264,0.0053258317801102755,0.8861837960034066,0.001972640006990777,0.024792221815046783
0.18499999999999983,0.0018,-1.264,0.005386832720023102,0.8861837960034066,0.002063772801397725,0.024792221815046783
0.18599999999999994,0.0054,-1.264,0.005378514482945413,0.8949237995056797,0.002051345711085467,0.02548109549329625
0.18699999999999983,-0.0055,-0.264,0.005421127124777773,0.8895316359392724,0.002115007174872663,0.02505609342679277
0.18799999999999994,-0.0041,-0.264,0.0053217092413069805,0.8807381249350577,0.0019664811103945567,0.024363002369263434
0.18899999999999983,-0.003,1.736,0.00523769585555393,0.8807381249350574,0.0018409687064511809,0.024363002369263413
0.18999999999999995,0.0006,0.736,0.005214331847469891,0.872289290844316,0.0018060638779634924,0.02369707821768901
0.19099999999999984,-0.0005,-0.264,0.00521335356136439,0.8807381249350575,0.001804602360376203,0.024363002369263424
0.19199999999999995,0.006,0.736,0.005277952852157739,0.8752585727253626,0.0019011109370492487,0.02393111246385654
0.19299999999999984,0.0086,1.736,0.00524033220612356,0.883679018038609,0.0018449073014103745,0.024594799055506752
0.19399999999999995,0.0078,0.736,0.005220711589521273,0.8891066766741564,0.0018155949396417028,0.02502259878894846
0.19499999999999984,-0.0005,0.736,0.00512701913803855,0.8718559273707135,0.0016756224256007754,0.023662921173014845
0.19599999999999995,0.0027,0.736,0.0050567889637532955,0.8773567311398082,0.0015707015498987202,0.024096486093756492
0.19699999999999984,-0.0082,1.736,0.005053137323237954,0.8486063622737262,0.0015652461551981095,0.02183042609198924
0.19799999999999995,-0.0006,0.736,0.005044834932380142,0.8486063622737262,0.0015528427384603942,0.02183042609198924
0.19899999999999984,-0.0071,-1.264,0.005044492650965093,0.8486063622737262,0.001552331384670247,0.02183042609198924
0.19999999999999996,-0.0035,-0.264,0.005060210788121174,0.8486063622737263,0.0015758136091073194,0.02183042609198925
0.20099999999999985,-0.0068,-0.264,0.005133555213400935,0.84291795716224,0.001685387042557165,0.021382074721019724
0.20199999999999996,-0.0042,0.736,0.00513797400066363,0.8607488640257861,0.001691988521677236,0.022787479466500657
0.20299999999999985,0.0001,-0.264,0.0051617042542846,0.860748864025786,0.0017274405053278989,0.022787479466500647
0.20399999999999996,-0.0006,0.7359999999999722,0.005081594337081635,0.8637578185633052,0.0016077597163950013,0.02302464065063601
0.20499999999999985,0.0063,-0.26400000000002777,0.005156266318799974,0.881167120099449,0.001719316462366809,0.02439681511050188
0.20599999999999996,0.0056,-1.2639999999999723,0.005160829707925488,0.8899563922839322,0.0017261339704833832,0.025089572070757783
0.20699999999999985,0.0034,-0.26400000000002777,0.005184973291855364,0.8845339476708339,0.001762203451931909,0.024662183298572796
0.20799999999999996,-0.0002,-1.2639999999999723,0.005163444985088744,0.8756902522921411,0.0017300410826750444,0.023965136785576154
0.20899999999999985,0.0078,-0.264,0.005214854732864893,0.8701789140025119,0.0018068450463728507,0.023530741550074636
0.20999999999999996,0.007,1.736,0.005221375691715502,0.878648041121718,0.0018165870799073832,0.024198265167044864
0.21099999999999985,0.0045,-0.264,0.005177386879486633,0.875690252292141,0.0017508696764249423,0.023965136785576144
0.21199999999999997,0.0023,-0.264,0.005148215599806198,0.8756902522921411,0.0017072890326266057,0.023965136785576154
0.21299999999999986,-0.006,0.736,0.005156527431501734,0.8701789140025118,0.0017197065535719696,0.02353074155007463
0.21399999999999997,-0.0114,-0.264,0.005154237205894322,0.887462262177783,0.0017162850544979549,0.02489298855911401
0.21499999999999986,-0.0049,-0.264,0.005119833294968361,0.882024484470145,0.0016648870834881462,0.02446439125592194
0.21599999999999997,-0.0005,-1.264,0.005119606728279994,0.8903809459985464,0.0016645486025490012,0.025123034743733227
0.21699999999999986,-0.0081,-0.264,0.00508839708846256,0.8903809459985464,0.0016179227359138042,0.025123034743733227
0.21799999999999997,-0.0074,-0.264,0.005118325022568702,0.8932900935333522,0.0016626337890519583,0.0253523292929117
0.21899999999999986,-0.0012,0.736,0.005116769557124894,0.8932900935333521,0.0016603099902268873,0.025352329292911695
0.21999999999999997,0.0111,0.736,0.005118921342989858,0.8845339476708338,0.001663524666248597,0.024662183298572785
0.22099999999999986,-0.0015,0.736,0.005130712052495941,0.8845339476708338,0.0016811394818049708,0.024662183298572785
0.22199999999999998,0.0064,-0.264,0.0051219545139772156,0.8845339476708338,0.0016680560939345802,0.024662183298572785
0.22299999999999986,0.0141,-1.264,0.005100937707300636,0.887462262177783,0.0016366578839285646,0.02489298855911401
0.22399999999999998,0.0018,-0.264,0.005104069519680143,0.8903809459985464,0.001641336677634212,0.025123034743733227
0.22499999999999987,0.0065,0.736,0.00514622210621218,0.8903809459985466,0.0017043108384854203,0.025123034743733237
0.22599999999999998,-0.004,-0.264,0.00513750762821178,0.8874622621777832,0.0016912917811871347,0.024892988559114027
0.22699999999999987,-0.0004,-1.264,0.005208925872491488,0.8874622621777832,0.0017979875826313221,0.024892988559114027
0.22799999999999998,-0.004,-0.264,0.005177410376937295,0.8874622621777832,0.0017509047806109326,0.024892988559114027
0.22899999999999987,0.0037,-0.264,0.005154237747088266,0.8903809459985468,0.001716285863018553,0.025123034743733254
0.22999999999999998,-0.0054,-0.264,0.005112675279846823,0.8932900935333524,0.0016541933151402299,0.02535232929291172
0.23099999999999987,0.0033,-0.264,0.005115292895092099,0.8878880084897772,0.0016581039203263975,0.024926545230786776
0.23199999999999998,0.0044,-1.264,0.005102921418703127,0.890805297372833,0.001639621463894123,0.025156481468554214
0.23299999999999987,0.0037,-1.264,0.005136051148750342,0.8908052973728331,0.0016891158631847753,0.02515648146855422
0.23399999999999999,-0.008199999999997513,-0.264,0.005152626058215468,0.8990801497196693,0.001713878068795995,0.025808692645775573
0.23499999999999988,0.003,1.7359999999999722,0.005190735082887595,0.9072795343290748,0.0017708113212255047,0.02645495557161928
0.236,-0.007399999999998002,0.7359999999999445,0.005201850852956182,0.8990801497196684,0.0017874178061384105,0.025808692645775504
0.23699999999999988,0.0016,-1.2639999999999445,0.005193449890247112,0.8908052973728321,0.0017748671272721473,0.02515648146855414
0.238,0.002799999999999267,0.7359999999999722,0.005222259862094836,0.8937130635920337,0.0018179079926263632,0.025385667144554157
0.23899999999999988,-0.0005,-0.26400000000002777,0.005239041448185066,0.8966113997951497,0.0018429789642731757,0.025614109561141844
0.24,0.0021000000000013543,-1.264,0.0054105702650221335,0.8966113997951497,0.0020992356780552618,0.025614109561141844
0.24099999999999988,0.0082,0.736,0.005491877771998182,0.9019612396480797,0.0022207056148722776,0.026035775737428272
0.242,-0.000799999999999778,-1.264,0.005792898771049421,0.9048331559105575,0.002670418108776691,0.026262135774794727
0.24299999999999988,0.0002,-1.264,0.0057807977998040865,0.9019612396480797,0.002652339775455903,0.026035775737428272
0.244,0.0012999999999994448,-0.264,0.0057164265498963725,0.8849611027680164,0.0025561718821096495,0.024695851008534535
0.24499999999999988,-0.0012,-1.264,0.00578952888738908,0.8990801497196689,0.0026653836467629578,0.02580869264577554
0.246,-0.0037000000000001554,-0.264,0.006016152357530719,0.896189797650243,0.0030039494154498153,0.0255808795263662
0.2469999999999999,-0.0044,-0.264,0.006203186352405971,0.9101346689473718,0.0032833702018579343,0.026679992905516467
0.248,-0.0008000000000011103,0.736,0.006260741324354021,0.8932900935333521,0.003369354867555461,0.025352329292911695
0.2489999999999999,-0.0058,0.736,0.006350651784757372,0.8932900935333522,0.0035036772487299457,0.0253523292929117
0.25,-0.008699999999998622,0.736,0.006324966715016848,0.8849611027680164,0.0034653048534301965,0.024695851008534535
0.2509999999999999,-0.0025,1.736,0.006318760617376821,0.8878880084897769,0.003456033209073466,0.02492654523078675
0.252,-0.006499999999998135,-0.264,0.006282481507500187,0.8908052973728326,0.003401833771058591,0.025156481468554186
0.2529999999999999,0.0019,0.736,0.006273124690948093,0.8908052973728326,0.003387855087445451,0.025156481468554186
0.254,-0.010399999999998223,1.736,0.0062790763116078495,0.8937130635920342,0.0033967465540810284,0.025385667144554196
0.2549999999999999,-0.0024,1.736,0.00628616244772567,0.8937130635920344,0.0034073329382726144,0.025385667144554213
0.256,0.005199999999998001,0.736,0.00625603066352201,0.9210565214035143,0.0033623173418101523,0.027540836573691666
0.2569999999999999,-0.0038,-1.264,0.006273632588356565,0.9129808748421304,0.003388613864444171,0.026904326491111453
0.258,0.009899999999997203,0.736,0.006276114607298647,0.9158182352601744,0.0033923218945546276,0.027127962889791274
0.2589999999999999,-0.0027,-1.264,0.006298968382705454,0.9105498143705142,0.00342646445725198,0.026712714031380334
0.26,0.001999999999999045,-0.264,0.006306714082496254,0.9186468321627302,0.0034380362013526717,0.027350908561614165
0.2609999999999999,-0.0023,0.736,0.0062742120620409665,0.9019612396480806,0.0033894795733368575,0.02603577573742834
0.262,0.0041999999999992,0.736,0.006260273058190643,0.9048331559105584,0.003368655297941355,0.026262135774794797
0.2629999999999999,0.0006,1.736,0.00625596617832093,0.9048331559105584,0.0033622210036786298,0.026262135774794797
0.2639999999999998,-0.0005,0.736,0.00623641164619656,0.9048331559105585,0.0033330073692926523,0.026262135774794804
0.2649999999999999,0.0002,-1.264,0.006147327806374769,0.9214667462530474,0.0031999199239014444,0.02757316986748653
0.2659999999999998,-0.0005,-0.264,0.006136601412140268,0.9294686666276704,0.0031838951498258717,0.028203868965043212
0.2669999999999999,0.0086,0.736,0.006136868627854854,0.9294686666276702,0.003184294358671087,0.0282038689650432
0.2679999999999998,-0.0001,-0.264,0.006108147222715032,0.9374022829260983,0.0031413858081892985,0.028829184440019456
0.2689999999999999,0.0031,-1.264,0.006073907537681568,0.9374022829260982,0.0030902331836367507,0.02882918444001945
0.2699999999999998,0.0057,-0.264,0.006072796648582366,0.9374022829260983,0.003088573562850069,0.028829184440019456
0.2709999999999999,0.0017,-0.264,0.00599361388691123,0.9346304498717674,0.002970277904614931,0.028610712807698738
0.2719999999999998,0.0024,0.736,0.006009740348055814,0.9318503719052451,0.0029943701476213692,0.02839159132403796
0.2729999999999999,-0.003,0.736,0.0059786414523817204,0.9346304498717674,0.002947909727998321,0.028610712807698738
0.2739999999999998,0.0082,-0.264,0.005810642867424712,0.9346304498717674,0.002696927029609999,0.028610712807698738
0.2749999999999999,0.0068,-0.264,0.005808381124599394,0.9374022829260983,0.0026935480825938433,0.028829184440019456
0.2759999999999998,-0.0099,-0.264,0.0057715058547049974,0.9346304498717674,0.002638458007018137,0.028610712807698738
0.2769999999999999,-0.0034,-1.264,0.00576602459056016,0.950742868625697,0.0026302692328924347,0.02988066895469896
0.2779999999999998,-0.0016,0.736,0.005790554203464775,0.9588946182273081,0.002666915425113619,0.030523177362249368
0.2789999999999999,0.0002,0.736,0.005777619790949424,0.9615965115748151,0.002647591966192812,0.03073613645409078
0.2799999999999998,0.0016,0.736,0.005765572370711155,0.964290834385774,0.0026295936357854897,0.030948498847846572
0.2809999999999999,0.0002,0.736,0.00574503239568018,0.9669776499423194,0.0025989077918575653,0.03116026953131757
0.2819999999999998,-0.0064,-0.2640000000000555,0.005743509875130633,0.9669776499423194,0.002596633211295027,0.03116026953131757
0.2829999999999999,-0.0053,-1.264,0.005731530299923786,0.961989448956218,0.0025787362384620135,0.03076710717614808
0.2839999999999998,-0.0064,-1.2639999999999445,0.005768780216113617,0.9542602695861577,0.0026343860195744864,0.0301579051064786
0.2849999999999999,-0.0039,-0.264,0.005720624427288774,0.9542602695861577,0.00256244333133476,0.0301579051064786
0.2859999999999998,-0.0046,-0.2639999999999445,0.0057134996045606215,0.9542602695861582,0.0025517991510024805,0.030157905106478634
0.2869999999999999,0.0077,0.736,0.005665856424324281,0.9592886623407633,0.002480622278062878,0.030554235315230483
0.2879999999999998,0.0058,0.7360000000000555,0.0056745239291500415,0.9673684015504166,0.00249357115944792,0.03119106797407355
0.2889999999999999,0.0138,1.736,0.005708515922378929,0.9803012733470089,0.002544353743041508,0.03221041710391431
0.2899999999999998,0.0094,-1.264,0.005712425740899562,0.9803012733470088,0.002550194844636312,0.032210417103914306
0.2909999999999999,0.0184,0.736,0.005709418715985544,0.9803012733470088,0.002545702478065282,0.032210417103914306
0.2919999999999998,0.0047,-0.264,0.005667087124049409,0.9776510749332853,0.0024824608907987977,0.03200153252750907
0.2929999999999999,-0.0008,-0.264,0.00570331465616684,0.9700466929616155,0.0025365832738480903,0.03140216679747525
0.2939999999999998,-0.0121,1.736,0.005704606131946077,0.9780375622379963,0.0025385126834086484,0.032031994864409025
0.29499999999999993,-0.0164,-0.264,0.005708357514886167,0.9780375622379964,0.0025441170890245206,0.03203199486440903
0.2959999999999998,-0.0154,1.736,0.005717670810300463,0.9704362088030315,0.0025580307539197684,0.03143286783899575
0.29699999999999993,-0.0118,-0.264,0.005711237970793121,0.9731060566883547,0.002548420366914039,0.03164330115663125
0.2979999999999998,-0.0107,0.736,0.005764656721214043,0.9757685995004748,0.002628225694611331,0.03185315869959502
0.29899999999999993,-0.0042,-0.264,0.005823080732139845,0.9757685995004739,0.002715508667361244,0.03185315869959495
0.2999999999999998,0.002,0.736,0.005801074760179037,0.9806867162126732,0.0026826326867403667,0.03224079711972966
0.30099999999999993,-0.0002,0.736,0.005757454356807964,0.9806867162126723,0.002617465670329719,0.03224079711972959
0.3019999999999998,-0.0024,0.736,0.005770044371099087,0.9727176099636106,0.0026362746130380293,0.03161268438124794
0.30299999999999994,0.0027,0.736,0.005744020305762053,0.9803012733470056,0.002597395772820451,0.03221041710391405
0.3039999999999998,0.003,0.736,0.005740803348159989,0.9776510749332821,0.002592589775795098,0.032001532527508814
0.30499999999999994,0.0015,-2.264,0.005687726399937118,0.9619894489562163,0.002513295085958262,0.03076710717614795
0.3059999999999998,0.0073,-0.264,0.005732572618737239,0.9460685892090318,0.0025802934181754526,0.029512249416413137
0.30699999999999994,-0.0039,0.736,0.005708605517240763,0.9460685892090318,0.0025444875939319217,0.029512249416413137
0.30799999999999983,-0.0054,0.736,0.0057019520004590405,0.9382082592343378,0.0025345475245195756,0.028892710257130912
0.30899999999999994,0.0084,-1.264,0.005644958024347319,0.9382082592343378,0.0024494009626002586,0.028892710257130912
0.30999999999999983,0.0029,-0.264,0.005638840622162511,0.9302815164793315,0.002440261825458939,0.028267936544310514
0.31099999999999994,-0.0018,0.736,0.005636307640122187,0.9382082592343378,0.0024364776586600803,0.028892710257130912
0.31199999999999983,-0.0003,-0.264,0.005644144056846501,0.9382082592343378,0.0024481849299782697,0.028892710257130912
0.31299999999999994,0.0033,0.736,0.0056456805387051084,0.9354388144010103,0.0024504803681392323,0.02867442686072871
0.31399999999999983,0.0043,1.736,0.005668642472882328,0.9218767885571311,0.002484784515412189,0.02760548877332891
0.31499999999999995,0.0032,-1.264,0.005670535564842541,0.9218767885571311,0.002487612713807986,0.02760548877332891
0.31599999999999984,0.0007,-1.264,0.00567379236339381,0.9166431899575355,0.0024924782315069232,0.02719298455444078
0.31699999999999995,-0.0055,-1.264,0.005682415026971786,0.9246868526630883,0.0025053601219862318,0.027826973718533342
0.31799999999999984,0.0035,-0.264,0.005669433903901173,0.9246868526630883,0.002485966879494297,0.027826973718533342
0.31899999999999995,-0.0001,0.736,0.0056694468338085655,0.9326611460119957,0.0024859861962227563,0.028455495296273375
0.31999999999999984,0.0053,-0.264,0.005661904387624654,0.9274884029978631,0.002474718104314892,0.028047787621344186
0.32099999999999995,0.0046,-0.264,0.005638151315529841,0.9437227676127368,0.0024392320308405575,0.02932735535416974
0.32199999999999984,0.002,0.736,0.0057760015831026445,0.9515375451883572,0.002645174432902029,0.029943304143185554
0.32299999999999995,0.0013,-1.264,0.005799567505444851,0.9515375451883572,0.0026803809126528574,0.029943304143185554
0.32399999999999984,-0.0009,0.736,0.005810734640254181,0.9488070076129952,0.0026970641342908786,0.029728087357214154
0.32499999999999996,-0.0002,-0.264,0.005753044382144917,0.9565802504170614,0.0026108773568564903,0.030340762439205894
0.32599999999999985,-0.0031,1.736,0.0057163731668274905,0.9565802504170613,0.0025560921300886445,0.030340762439205887
0.32699999999999996,0.0053,1.736,0.005698423338183432,0.9592886623407608,0.0025292758540477085,0.03055423531523029
0.32799999999999985,-0.0009,0.736,0.005745353182374727,0.9515375451883572,0.002599387033454898,0.029943304143185554
0.32899999999999996,0.0002,0.736,0.005750226832494212,0.9515375451883572,0.0026066680582224697,0.029943304143185554
0.32999999999999985,-0.0023,0.736,0.00577070793342125,0.9488070076129953,0.0026372659467579413,0.02972808735721416
0.33099999999999996,-0.0031,-0.264,0.005831602945012622,0.953864148230978,0.0027282404887846007,0.030126683428489013
0.33199999999999985,0.0024,0.736,0.005831570937829785,0.9588946182273066,0.0027281926714228157,0.030523177362249247
0.33299999999999996,0.0075,-0.264,0.005806343963357438,0.9615965115748135,0.002690504650854886,0.030736136454090658
0.33399999999999985,-0.0034,-0.264,0.005782908311667522,0.9538641482309779,0.0026554927898851687,0.030126683428489006
0.33499999999999996,0.001,1.736,0.005769816751838102,0.9488070076129957,0.002635934559600426,0.029728087357214196
0.33599999999999985,-0.0001,-1.264,0.0058021739238334445,0.9488070076129959,0.00268427479021418,0.029728087357214206
0.33699999999999997,0.0035,1.736,0.005785370742133687,0.951537545188358,0.0026591715556506645,0.029943304143185617
0.33799999999999986,0.0068,1.736,0.005737872784407421,0.948807007612996,0.0025882116389280125,0.029728087357214213
0.33899999999999997,-0.0022,-0.264,0.005820118175067154,0.9538641482309783,0.0027110827338426755,0.03012668342848904
0.33999999999999986,-0.0011,-1.264,0.0057063071787748785,0.9456690365332546,0.002541053974594444,0.02948075728699403
0.34099999999999997,0.0044,-0.264,0.005697106874678859,0.9378053576650607,0.002527309113894558,0.02886095417305975
0.34199999999999986,-0.0065,-0.264,0.005424236064137099,0.9378053576650608,0.002119651797264745,0.028860954173059762
0.34299999999999997,0.0012,1.736,0.005403808998893477,0.9405678343813652,0.00208913463572847,0.029078688353159823
0.34399999999999986,-0.0025,-0.264,0.005404684801475546,0.9484086085993171,0.0020904430473163388,0.02969668615767321
0.345,-0.0035,-0.2639999999999445,0.005309974190302725,0.9484086085993171,0.0019489494462586576,0.02969668615767321
0.34599999999999986,-0.0025,0.736,0.005115086744560696,0.9484086085993171,0.0016577959402522854,0.02969668615767321
0.347,-0.009,0.736,0.004971243851771371,0.9322558470989472,0.001442900812501741,0.028423550257241113
0.34799999999999986,-0.0083,0.735999999999889,0.0048389814340001015,0.9322558470989472,0.0012453064189769881,0.028423550257241113
0.349,-0.0028,-1.263999999999889,0.004737258405810338,0.929468666627669,0.0010933365669104859,0.028203868965043108
0.34999999999999987,-0.005,0.735999999999889,0.004728056882323317,0.929468666627669,0.0010795898844926134,0.028203868965043108
0.351,0.0045,-1.264,0.004737852200962558,0.929468666627669,0.001094223671463374,0.028203868965043108
0.35199999999999987,0.0034,-1.264,0.00477774477738502,0.9266731031140693,0.0011538214739016148,0.027983526934299913
0.353,0.0002,-0.264,0.0049123647830051406,0.9266731031140693,0.0013549380028071137,0.027983526934299913
0.35399999999999987,0.0068,-0.264,0.004927811873528577,0.9401659439921323,0.0013780152951712904,0.029047011968749682
0.355,0.0075,-0.264,0.004935202648506446,0.9374022829260971,0.0013890567967863251,0.028829184440019362
0.35599999999999987,-0.0,0.736,0.0049346204080098375,0.9511402899009438,0.0013881869543945742,0.029911993090395547
0.357,-0.0026,-0.264,0.0049057000059473405,0.9511402899009437,0.001344981111024059,0.029911993090395536
0.3579999999999999,0.0058,0.736,0.004923995314872794,0.95618509016703,0.0013723135198246055,0.030309616514050796
0.359,0.00040000000000015544,-0.264,0.004894755863152873,0.95618509016703,0.0013286310299159023,0.030309616514050796
0.3599999999999999,0.0011,-1.264,0.004924856124324074,0.9511402899009418,0.0013735995323165297,0.029911993090395387
0.361,0.0037000000000001554,0.736,0.004958051384581948,0.9511402899009421,0.0014231918309383063,0.029911993090395415
0.3619999999999999,0.0044,-0.264,0.004983570829357114,0.9742181298098338,0.0014613167896257982,0.03173095305533774
0.363,0.005099999999999201,0.736,0.005007175467828971,0.9817902027636098,0.001496581109617919,0.03232777223810859
0.3639999999999999,0.0015,0.736,0.005051090148128866,0.9791440343662681,0.0015621877631700832,0.032119205301416834
0.365,0.0018999999999988677,0.736,0.005032652683054509,0.9635066764791692,0.0015346429791649868,0.03088669272370592
0.3659999999999999,-0.0032,-1.264,0.005036867365763103,0.9557897665425659,0.001540939534813502,0.030278457711973347
0.367,0.007699999999998312,0.736,0.005043365986993771,0.9507428686256916,0.0015506481968995186,0.02988066895469853
0.3679999999999999,0.0001,-1.264,0.005025451686558195,0.9429215049250746,0.0015238849984820408,0.029264201057406552
0.369,0.0010999999999992008,0.736,0.005018434515848884,0.9507428686256916,0.0015134016456601997,0.02988066895469853
0.3699999999999999,-0.0025,1.736,0.005035670707161778,0.948010042159391,0.0015391517780601511,0.029665271761852057
0.371,-0.012699999999998468,-1.264,0.005007331384414529,0.948010042159391,0.0014968140423261137,0.029665271761852057
0.3719999999999999,-0.0058,0.736,0.005017579161979615,0.9638988351741936,0.0015121237835743911,0.030917602070896534
0.373,-0.0046999999999992005,-0.264,0.0050252091420633525,0.9688772058599843,0.0015235226473836053,0.03130998961686468
0.3739999999999999,-0.0011,-1.264,0.005040434452601006,0.961203413561671,0.001546268609937506,0.030705153071285882
0.375,-0.0022000000000014655,-0.264,0.005041278235687004,0.9661956726396014,0.0015475291857681448,0.031098635279032564
0.3759999999999999,-0.0088,0.736,0.00509151623186586,0.9661956726396014,0.0016225826027110198,0.031098635279032564
0.377,-0.00809999999999758,-0.264,0.005148603795462694,0.9530714116056221,0.0017078689803291108,0.030064201142886965
0.3779999999999999,0.0028,0.736,0.005198265098554942,0.9369990347939618,0.0017820608424734398,0.028797401040394983
0.379,-0.004900000000000821,-0.264,0.005286128743744547,0.942119560772251,0.0019133253692881424,0.02920099304860397
0.3799999999999999,-0.0086,-1.264,0.005292781049751941,0.942119560772251,0.0019232636298554436,0.02920099304860397
0.381,0.00010000000000071055,-1.264,0.005295016195212237,0.9393616473872778,0.0019266028415461786,0.02898361854328417
0.3819999999999999,0.0033,0.736,0.005311304650972517,0.9472124061553363,0.0019509370975778007,0.029602403314731362
0.383,0.0007000000000009547,-0.264,0.0053064147990199125,0.9444693643348223,0.0019436318679647165,0.029386200963325195
0.3839999999999999,0.005,0.736,0.005344425403191941,0.9444693643348223,0.002000418084377833,0.029386200963325195
0.385,0.007199999999998135,-0.264,0.005501125253168772,0.9522780150562465,0.0022345209561031813,0.030001666843085292
0.3859999999999999,-0.0012,0.736,0.005593261021362295,0.9361920174538703,0.0023721678519101255,0.028733793170748773
0.387,-0.0023000000000020205,-0.264,0.005697776046536588,0.928248057230343,0.00252830882802061,0.028107662403452693
0.3879999999999999,-0.0114,-1.264,0.005803161446169437,0.9145794080036723,0.002685750106334667,0.027030320424467284
0.389,-0.007800000000000244,-1.264,0.00583832230228859,0.8978182272204273,0.0027382789210784754,0.02570922984882217
0.3899999999999999,-0.0089,-0.264,0.005862709980307638,0.9060290320523245,0.002774713068653067,0.02635639289909629
0.3909999999999998,0.006,0.736,0.0058660111992207735,0.8978182272204271,0.0027796449484721823,0.025709229848822162
0.3919999999999999,-0.0006,0.736,0.00584926850456138,0.9060290320523244,0.0027546320789591343,0.026356392899096283
0.3929999999999998,0.0012,-1.264,0.0058281482826349346,0.9060290320523245,0.0027230793709942668,0.02635639289909629
0.3939999999999999,0.0066,1.736,0.005828430875078498,0.9060290320523245,0.0027235015520147075,0.02635639289909629
0.3949999999999998,0.008,-0.264,0.005843496139934888,0.9088880949430632,0.0027460084131680856,0.026581739853405572
0.3959999999999999,0.0095,-0.264,0.005864376449771321,0.9088880949430633,0.002777202702734711,0.026581739853405582
0.3969999999999998,0.0029,-0.264,0.00587617605572313,0.9330116197060759,0.002794830809200381,0.028483119095589697
0.3979999999999999,0.004,-0.264,0.0058080532685493985,0.9302267037120557,0.002693058279681921,0.02826361628601788
0.3989999999999998,0.0029,-0.264,0.005749018500937058,0.9274334251532235,0.0026048628625725185,0.02804345435190679
0.3999999999999999,-0.0037,0.736,0.005743928903025594,0.9222313606175837,0.0025972592210426943,0.0276334355996002
0.4009999999999998,-0.0062,-0.264,0.005735969265797872,0.9194137916623847,0.002585367863564195,0.027411359133682922
0.4019999999999999,-0.0117,0.736,0.005754114720755703,0.9141660925204567,0.0026124763969483634,0.026997743531663274
0.4029999999999998,-0.0048,1.736,0.0057601906190392575,0.9060290320523281,0.0026215535290368855,0.02635639289909657
0.4039999999999999,-0.0041,-0.264,0.005760613031124597,0.9088880949430667,0.002622184594620191,0.026581739853405846
0.4049999999999998,0.0013,2.736,0.005726930266801337,0.9169997856715554,0.0025718639857817706,0.027221090881984128
0.4059999999999999,0.005,-0.264,0.005677123600943116,0.9198247491393331,0.002497454957884179,0.0274437501720476
0.4069999999999998,0.0057,-1.263999999999889,0.005679008082429655,0.9169997856715554,0.002500270292600692,0.027221090881984128
0.4079999999999999,0.0002,0.736,0.005677627273480541,0.9169997856715554,0.002498207423106309,0.027221090881984128
0.4089999999999998,0.01,0.7359999999999445,0.005666767543845628,0.9169997856715554,0.002481983451647051,0.027221090881984128
0.4099999999999999,0.0064,-0.26400000000011103,0.00567035464168767,0.9334165904550848,0.002487342422355102,0.028515038269235415
0.4109999999999998,0.0053,-2.2639999999999443,0.005687551613672598,0.9282480572303465,0.0025130339627570056,0.028107662403452974
0.4119999999999999,-0.0049,-1.2639999999999445,0.005729114144183722,0.9254488065497487,0.0025751266051575257,0.027887029755859157
0.4129999999999998,0.0074,-0.264,0.005732576338834511,0.9254488065497487,0.002580298975841619,0.027887029755859157
0.4139999999999999,-0.0005,-0.264,0.005744572320428436,0.9254488065497487,0.002598220459115007,0.027887029755859157
0.4149999999999998,0.0038,-0.2639999999999445,0.005746127188927096,0.9226410631100241,0.0026005433661295666,0.027665727722009762
0.4159999999999999,-0.0027,0.7359999999999445,0.005743626434399955,0.9361920174538737,0.002596807345856602,0.028733793170749044
0.4169999999999998,0.0034,-0.264,0.005752824447959082,0.9361920174538737,0.0026105487845923684,0.028733793170749044
0.4179999999999999,0.0023,-1.264,0.005752824447959105,0.9495496067883513,0.0026105487845924018,0.02978661788586435
0.4189999999999998,-0.0042,-0.264,0.005754195239500562,0.9444693643348256,0.0026125966885083237,0.029386200963325455
0.41999999999999993,0.0001,-0.264,0.005757924727488917,0.941718332602414,0.002618168384003044,0.02916936885931148
0.4209999999999998,0.0056,1.736,0.005804800770436907,0.9282480572303468,0.0026881991866545304,0.028107662403452992
0.42199999999999993,0.0034,-1.264,0.00566639822048394,0.9365956130447041,0.002481431698345569,0.028765603956535147
0.4229999999999998,0.0041,-0.264,0.005637202672963512,0.9338213855802543,0.0024378147994325423,0.02854694360047932
0.42399999999999993,-0.0013,-1.264,0.005620055732959767,0.9499475272782909,0.0024121980046699918,0.02981798136889776
0.4249999999999998,0.0071,-0.264,0.00564652350577964,0.9421195607722501,0.0024517397248836515,0.0292009930486039
0.42599999999999993,0.0082,0.736,0.005671465315339377,0.9448694243107119,0.0024890017212724443,0.029417733077361504
0.4269999999999998,0.0089,-0.264,0.005649889173897726,0.9448694243107114,0.0024567678890576113,0.02941773307736147
0.42799999999999994,0.0096,-1.264,0.0056214022996134835,0.9448694243107114,0.00241420971764005,0.02941773307736147
0.4289999999999998,-0.0027,0.736,0.005691346823128102,0.9421195607722496,0.0025187038433118632,0.02920099304860386
0.42999999999999994,0.0027,-0.264,0.005699473574555555,0.9421195607722499,0.0025308448622550603,0.029200993048603883
0.4309999999999998,-0.0052,-1.264,0.005637855131587325,0.9604167348511471,0.0024387895447021716,0.03064314826124453
0.43199999999999994,-0.0009,-0.264,0.005677078977935584,0.9526747959244525,0.002497388293020048,0.030032940502880617
0.43299999999999983,-0.0099,-0.264,0.005671782843404527,0.9577115131262546,0.002489476094616874,0.03042992683179975
0.43399999999999994,-0.0135,-1.264,0.00567345878630862,0.9654130619413751,0.0024919798816131844,0.031036951103484544
0.43499999999999983,-0.0102,-0.264,0.005662114006257592,0.9627218798591122,0.0024750312655843192,0.03082483625715006
0.43599999999999994,-0.0109,-0.264,0.005624027433250006,0.9654130619413751,0.002418131554981079,0.031036951103484544
0.43699999999999983,-0.0116,0.736,0.005628101239507888,0.9627218798591122,0.0024242176472393925,0.03082483625715006
0.43799999999999994,-0.0094,-0.264,0.005632289237108875,0.9627218798591123,0.0024304743364788185,0.03082483625715007
0.43899999999999983,-0.0058,-1.264,0.00553786483199825,0.9549986283587121,0.002289408315033213,0.030216101413080194
0.43999999999999995,0.0022,-0.264,0.00548784827515523,0.9472124061553354,0.0022146857189841666,0.029602403314731292
0.44099999999999984,-0.0003,-1.264,0.005418055922641096,0.9499475272782906,0.002110418930276696,0.029817981368897732
0.44199999999999995,0.0041,-0.264,0.005389832185575419,0.9472124061553354,0.002068253874605788,0.029602403314731292
0.44299999999999984,-0.0014,1.736,0.005460318667520429,0.9444693643348213,0.0021735576629858242,0.029386200963325115
0.44399999999999995,-0.0049,0.736,0.005474019982417737,0.9365956130447014,0.002194026841254643,0.028765603956534935
0.44499999999999984,0.006,-0.264,0.005433744246056852,0.9202355230914872,0.002133856614261253,0.027476126745269322
0.44599999999999995,-0.0045,-2.264,0.005374525622018181,0.9230505837531449,0.002045386523516901,0.02769800551133471
0.44699999999999984,-0.0009,-0.264,0.00528934604375136,0.9230505837531449,0.0019181318778515404,0.02769800551133471
0.44799999999999995,0.0002,-0.264,0.005312253205565249,0.949549606788347,0.001952354197557026,0.029786617885864005
0.44899999999999984,0.0013,0.736,0.005297444238854196,0.9654130619413752,0.0019302302348674946,0.031036951103484554
0.44999999999999996,0.0039,-0.264,0.005292486098710251,0.9680967629191722,0.0019228229856181433,0.031248476300633033
0.45099999999999985,0.0064,0.736,0.0052842226188083,0.9680967629191722,0.0019104777001837446,0.031248476300633033
0.45199999999999996,0.0043,-0.264,0.005255961164364707,0.9680967629191722,0.0018682562963639041,0.031248476300633033
0.45299999999999985,0.0007,0.736,0.005125448041228939,0.9907797211044967,0.0016732752741839558,0.033036312293449215
0.45399999999999996,0.0028,-1.264,0.0051245283615837765,0.977985426038827,0.001671901312141033,0.032027885569111555
0.45499999999999985,-0.0,0.736,0.005109499984229813,0.980634720857825,0.0016494495593381093,0.032236698925565674
0.45599999999999996,-0.0015,-0.264,0.005109015901146385,0.9440691348290057,0.0016487263599221495,0.02935465548719991
0.45699999999999985,0.0022,-0.264,0.005102818121029507,0.9600231537582333,0.0016394671415891526,0.03061212680283271
0.45799999999999996,-0.0047,0.736,0.005194063040500051,0.952278015056247,0.0017757831475174331,0.030001666843085327
0.45899999999999985,-0.0021,1.736,0.005330004466915413,0.952278015056247,0.0019788738225562518,0.030001666843085327
0.45999999999999996,-0.0046,0.736,0.005234762363227373,0.957316819837795,0.0018365861944198492,0.030398817711839925
0.46099999999999985,0.0078,-0.264,0.00519943120638093,0.9573168198377947,0.0017838029576755002,0.0303988177118399
0.46199999999999997,-0.0049,-0.264,0.005341156176054247,0.9389592407298145,0.0019955339989025144,0.028951901467403514
0.46299999999999986,0.0063,0.736,0.005349814918567689,0.9310388917545118,0.0020084697897678337,0.028327631702498142
0.46399999999999997,0.002,-0.264,0.005439615025398129,0.9338213855802556,0.002142627307425682,0.028546943600479425
0.46499999999999986,0.0009,1.736,0.005554267579905771,0.9338213855802556,0.0023139133186430147,0.028546943600479425
0.46599999999999997,0.0045,-1.264,0.005725981026437227,0.9338213855802557,0.002570445861289446,0.028546943600479432
0.46699999999999986,0.0077,1.736,0.005721587562382952,0.9338213855802562,0.0025638822139593433,0.02854694360047947
0.46799999999999997,-0.0013,0.736,0.005762441092227652,0.9417183326024141,0.002624915639697629,0.029169368859311488
0.46899999999999986,-0.0024,-0.2639999999999445,0.005828599362862068,0.9499475272782948,0.0027237532655548934,0.029817981368898065
0.47,-0.0078,0.7360000000000555,0.0062471243331932965,0.9658044465611367,0.0033490116653414467,0.031067799439249554
0.47099999999999986,-0.0013,1.735999999999889,0.006329242607489917,0.9734419688865408,0.00347169285384808,0.03166977724116292
0.472,-0.0005,-0.263999999999889,0.006364711777893759,0.9604167348511513,0.003524682276942504,0.030643148261244865
0.47299999999999986,-0.0016,1.735999999999889,0.006396797037924042,0.9553942793408717,0.003572616282713755,0.030247286016989384
0.474,-0.0056,-0.2639999999999445,0.0063857695711839945,0.9553942793408718,0.003556141719195778,0.030247286016989394
0.47499999999999987,0.0057,0.736,0.006433661252151932,0.9553942793408718,0.0036276898415967,0.030247286016989394
0.476,0.0072,0.7359999999999445,0.006577657748056868,0.963114358105882,0.003842814445830315,0.0308557707909194
0.47699999999999987,0.0057,-0.264,0.006542334633628197,0.9761035954227726,0.0037900432241140367,0.031879562564665766
0.478,0.0093,-0.264,0.0064885969784471064,0.9761035954227726,0.0037097614663488578,0.031879562564665766
0.47899999999999987,0.0057,-0.26400000000011103,0.00645190397432292,0.9684870630033332,0.0036549436880359107,0.031279239154964514
0.48,-0.0019,-2.264,0.006493863407438731,0.9734419688865409,0.003717629285947021,0.031669777241162926
0.48099999999999987,-0.0067,-0.264,0.006492397352456658,0.9810200327119455,0.0037154390625265053,0.03226706861525196
0.482,-0.0023,-1.264,0.006473065911174131,0.988922237187951,0.0036865587163136745,0.03288990825853695
0.4829999999999999,-0.0016,-1.264,0.0064725107514609125,0.9963825716045336,0.0036857293314537026,0.03347792038109339
0.484,0.0034999999999985347,-0.264,0.006404119909597209,1.0037874609645734,0.003583556339696695,0.03406156240928643
0.4849999999999999,-0.0031,0.736,0.00631018675757537,1.0209800706096797,0.0034432242293482972,0.035416657546473884
0.486,0.002400000000000155,-0.264,0.00623742481904095,1.0209800706096799,0.0033345210061752717,0.0354166575464739
0.4869999999999999,0.0031,-0.264,0.006159024809946843,1.0209800706096799,0.00321739474680146,0.0354166575464739
0.488,-0.004899999999999422,-0.264,0.006051715700053977,1.0256814223563913,0.003057079527661651,0.03578721088431402
0.4889999999999999,-0.0023,-0.264,0.005981154355588692,1.0328762839563463,0.0029516638978791913,0.0363542988464147
0.49,-0.001599999999999112,0.736,0.006024550043465271,1.0256814223563913,0.0030164951989551407,0.03578721088431402
0.4909999999999999,0.0024,-0.264,0.0060217221406633145,1.0328762839563463,0.0030122704331560918,0.0363542988464147
0.492,-0.008799999999998956,-0.264,0.006026196435411561,1.0282078303410203,0.003018954838084782,0.03598633848885989
0.4929999999999999,-0.0041,-0.264,0.006013308988391056,1.0353851361532236,0.0029997015436039345,0.03655204273068175
0.494,0.0002999999999997557,-0.264,0.0060152121634559465,1.023148776063125,0.0030025448057267308,0.035587591585844236
0.4949999999999999,-0.0008,0.736,0.006001762122672575,1.0206098450200805,0.002982451020233791,0.035387476933031
0.496,0.000300000000001199,-0.264,0.006013821990704037,1.0206098450200805,0.0030004679471115855,0.035387476933031
0.4969999999999999,0.0057,-2.264,0.005999468856619753,0.998604697753114,0.002979024978864414,0.033653064957764184
0.498,-0.0007999999999994227,1.736,0.006008268796257124,1.001199432971347,0.0029921717121920003,0.033857578010121965
0.4989999999999999,0.0018,0.736,0.006014122385955244,1.001199432971347,0.0030009167247649817,0.033857578010121965
0.5,-0.0022000000000001554,0.736,0.006024865202369369,1.0137007777395188,0.0030169660328743172,0.03484291484108268
0.5009999999999999,-0.0029,-0.264,0.0060121689324076945,1.0137007777395186,0.0029979983487401743,0.03484291484108266
0.502,0.000699999999998801,-2.264,0.00597874602789326,1.0111381233946957,0.0029480659593384734,0.03464093035398937
0.5029999999999999,-0.0047,0.736,0.005963177459189076,1.0137007777395188,0.0029248071837695002,0.03484291484108268
0.504,-0.0010999999999995115,0.736,0.005988619805383203,1.0111381233946957,0.0029628169604754536,0.03464093035398937
0.5049999999999999,0.0011,0.736,0.00599636855102342,1.0037874609645736,0.002974393254944862,0.03406156240928645
0.506,-0.004400000000001532,1.736,0.0060045656183615485,1.001199432971347,0.00298663932285026,0.033857578010121965
0.5069999999999999,-0.0113,-0.264,0.006003119828666356,1.0011994329713472,0.0029844793749013282,0.033857578010121986
0.508,-0.01199999999999727,0.736,0.006019229761479316,1.0011994329713472,0.0030085469252874577,0.033857578010121986
0.5089999999999999,0.0003,-1.264,0.006046143206815993,0.9986046977531139,0.0030487544611738715,0.03365306495776418
0.51,0.0021000000000024866,-0.264,0.0060652699005954575,0.9832768775677941,0.0030773289233769056,0.03244494966720835
0.5109999999999999,0.0133,-1.264,0.0060774067407344205,0.9960032028899453,0.0030954608432901846,0.03344801912055462
0.512,0.005700000000001466,-0.264,0.006028964146943123,1.0034108918879996,0.0030230896807010438,0.03403188181192432
0.5129999999999999,0.0123,0.736,0.006055156913062971,1.0107642928754026,0.0030622205526705656,0.03461146560551412
0.514,0.011200000000000711,-0.264,0.006034289361411433,1.0155129400144487,0.0030310453232863365,0.03498574669367761
0.5149999999999999,0.0144,-0.264,0.0060537754176630265,1.0180645822070171,0.0030601566576480108,0.03518686321981103
0.516,0.0013999999999979795,0.736,0.006067351830511859,1.005617487585011,0.0030804392376001335,0.03420580230220952
0.5169999999999999,-0.0077,-1.264,0.00607321778894848,1.0008218901242654,0.00308920272853926,0.03382782066166115
0.518,-0.009100000000003064,1.736,0.006027270558784042,0.9881576258595329,0.003020559532448703,0.03282964276572547
0.5189999999999999,-0.0229,1.736,0.0060274884556874905,0.988157625859532,0.0030208850611001016,0.0328296427657254
0.5199999999999998,-0.0102,-1.264,0.006023218680589956,0.9881576258595317,0.003014506199779546,0.03282964276572537
0.5209999999999999,-0.0088,0.736,0.005972979247464746,0.9881576258595313,0.0029394506361002945,0.032829642765725336
0.5219999999999998,-0.0073,0.736,0.006076441743159483,0.9753289349428689,0.003094019178199029,0.03181850501313882
0.5229999999999999,0.0017,-0.264,0.006111323558095767,0.9779854260388282,0.003146131117353939,0.03202788556911165
0.5239999999999998,0.0079,-1.264,0.006161956908667391,0.9623292415432647,0.003221775176845037,0.030793889106981394
0.5249999999999999,0.0154,-1.264,0.006142031477998733,0.9623292415432648,0.003192007435902165,0.030793889106981404
0.5259999999999998,0.0046,1.736,0.00611686999593364,0.9596294112425255,0.0031544172581886892,0.030581092621323712
0.5269999999999999,0.0031,-0.264,0.006074005307765782,0.9596294112425242,0.0030903792479596384,0.030581092621323608
0.5279999999999998,0.0067,-0.264,0.006057780209503257,0.9673156903070037,0.0030661396453190194,0.03118691335467031
0.5289999999999999,0.0078,-1.264,0.006001086218319373,0.9749413738818128,0.0029814412480475404,0.03178795804440974
0.5299999999999998,-0.0024,-1.264,0.005976127808719072,0.9749413738818125,0.0029441544519083493,0.03178795804440971
0.5309999999999999,-0.0013,1.736,0.006065906858966623,0.9569219637536358,0.003078280511932232,0.030367695760572605
0.5319999999999998,-0.0002,-1.264,0.006093998137856773,0.9726651886076892,0.0031202476807559035,0.0316085526103324
0.5329999999999999,0.003,-1.264,0.006104008560180933,0.9650215185874303,0.003135202823429084,0.03100609025653455
0.5339999999999998,-0.0079,-2.264,0.006128230983233732,0.9650215185874303,0.003171390087154257,0.03100609025653455
0.5349999999999999,-0.0035,-0.264,0.006155287526505644,0.9650215185874303,0.0032118114052337074,0.03100609025653455
0.5359999999999998,-0.0046,-0.264,0.006197745225296634,0.9623292415432629,0.0032752413907460747,0.030793889106981255
0.5369999999999999,0.0016,-1.264,0.006229775420230288,0.9623292415432629,0.0033230931316188305,0.030793889106981255
0.5379999999999998,-0.0017,-1.264,0.006235787880994944,0.9623292415432629,0.003332075490768186,0.030793889106981255
0.5389999999999999,0.0092,-0.264,0.006216809130390773,0.9623292415432629,0.0033037220493395405,0.030793889106981255
0.5399999999999998,-0.0013,-1.264,0.0062349431916852395,0.9623292415432629,0.0033308135610781013,0.030793889106981255
0.5409999999999999,0.0023,0.736,0.006240506151223485,0.959629411242524,0.0033391243846263544,0.03058109262132359
0.5419999999999998,-0.0013,-1.264,0.006239072351087334,0.959629411242524,0.0033369823485656764,0.03058109262132359
0.5429999999999999,0.002,0.736,0.006177824449098425,0.959629411242524,0.0032454806033829207,0.03058109262132359
0.5439999999999998,0.0027,-0.264,0.006178988531063125,0.9623292415432629,0.003247219692034889,0.030793889106981255
0.5449999999999999,0.0071,-0.264,0.006183040783319919,0.962329241543263,0.003253273583537729,0.030793889106981262
0.5459999999999998,0.0016,0.736,0.006263506230922268,0.9673156903070035,0.0033734855196765347,0.031186913354670293
0.5469999999999999,-0.0034,0.736,0.00626411606987256,0.9749413738818125,0.003374396592977336,0.03178795804440971
0.5479999999999998,-0.0027,-0.264,0.00626411606987256,0.9491515194749851,0.003374396592977336,0.029755241254064174
0.5489999999999999,0.0038,1.736,0.006277962679387499,0.9491515194749852,0.0033950828351887105,0.029755241254064185
0.5499999999999998,-0.0005,-0.264,0.00627559843677996,0.9491515194749852,0.0033915507578831977,0.029755241254064185
0.5509999999999999,-0.0012,-0.264,0.0063409830352787,0.9491515194749852,0.0034892325506700257,0.029755241254064185
0.5519999999999998,-0.0005,0.736,0.006346735429867836,0.9491515194749853,0.0034978263820796486,0.029755241254064195
0.5529999999999999,-0.0056,-0.264,0.006363959681699513,0.9254488065497459,0.0035235586774054724,0.02788702975585894
0.5539999999999998,-0.0042,-0.264,0.006348537516715389,0.9306328863355474,0.003500518622730632,0.02829563097775261
0.5549999999999999,0.0031,-0.264,0.006352713403998669,0.9278408305963223,0.003506757219673525,0.02807556542440846
0.5559999999999998,0.0006,-0.264,0.006397439522213161,0.925040347614154,0.003573576126754088,0.02785483564869389
0.5569999999999999,0.0049,-0.264,0.006387985896516998,0.9084721901626915,0.0035594528144215266,0.026548958876168934
0.5579999999999998,-0.0074,-0.264,0.0062889310439952885,0.9165875616063306,0.00341146910264968,0.02718860001307309
0.5589999999999999,0.0052,-0.264,0.006174150176403501,0.9137525900832678,0.0032399913971742932,0.026965151903433682
0.5599999999999998,-0.006,1.736,0.006209625482840024,0.9137525900832677,0.003292989987239023,0.026965151903433675
0.5609999999999999,-0.0017,-1.264,0.0062743089911320325,0.9137525900832677,0.003389624381251962,0.026965151903433675
0.5619999999999998,0.0074,-1.264,0.00614292188693635,0.9222313606175817,0.0031933376687603133,0.02763343559960004
0.563,-0.0039,-1.263999999999778,0.00611612275182245,0.9302267037120562,0.003153300907456156,0.028263616286017916
0.5639999999999998,-0.0053,0.736,0.005999845712778613,0.9302267037120562,0.002979587985842592,0.028263616286017916
0.565,-0.0042,0.736,0.005926872711880577,0.9330116197060764,0.002870569444528274,0.028483119095589732
0.5659999999999998,-0.0053,0.736,0.005752330274431911,0.9491515194749852,0.0026098105104851595,0.029755241254064185
0.567,-0.0021,0.736,0.0057641777468988254,0.9542068342380262,0.0026275101274765077,0.030153693414251437
0.5679999999999998,-0.0014,0.735999999999889,0.005713519332795674,0.9623292415432629,0.0025518286241416094,0.030793889106981255
0.569,-0.0007,-0.263999999999889,0.00564416454828994,0.9464140979054119,0.0024482155433180755,0.029539481882221715
0.5699999999999998,0.0,0.736,0.005161606990997735,0.9330116197060763,0.0017272951981385696,0.028483119095589725
0.571,0.0112,0.736,0.005060746693467626,0.9278408305963223,0.0015766142287671075,0.02807556542440846
0.5719999999999998,0.0065,0.735999999999889,0.005045940630199054,0.9330116197060764,0.0015544946036964242,0.028483119095589732
0.573,0.008,-0.264,0.004993417819746092,0.9381539095966285,0.0014760277719799773,0.028888426502000766
0.5739999999999998,0.0025,-0.264,0.005010975361349118,0.9409153629838327,0.0015022579879649535,0.029106080024869845
0.575,0.0014,-0.263999999999889,0.00497535876373722,0.9409153629838326,0.0014490483149291193,0.02910608002486984
0.5759999999999998,0.0003,0.7359999999997779,0.004731718374449953,0.9330116197060764,0.0010850599970790129,0.028483119095589732
0.577,0.0036,-1.264,0.004709737464176325,0.9165875616063307,0.001052221457546561,0.027188600013073102
0.5779999999999998,0.0043,-1.264,0.0047779868956609175,0.9165875616063306,0.0011541831882471822,0.02718860001307309
0.579,0.0017,-0.264,0.004885968744143655,0.9165875616063306,0.0013155034500582671,0.02718860001307309
0.5799999999999998,-0.0106,-1.264,0.00484591767400579,0.9084721901626915,0.001255668864790102,0.026548958876168934
0.581,-0.0089,1.736,0.004843736639200809,0.9169997856715525,0.0012524104921033728,0.0272210908819839
0.5819999999999999,-0.0042,-0.264,0.004848869111507368,0.9031609185046232,0.00126007818614516,0.026130332585879223
0.583,-0.0057,-1.264,0.004871214727383541,0.9031609185046232,0.0012934615802444975,0.026130332585879223
0.5839999999999999,-0.0068,-0.264,0.00511710903791204,0.911738192321014,0.001660817159998767,0.026806380159740406
0.585,-0.0079,-0.264,0.00525912224173498,0.8841065861941689,0.0018729788107137034,0.02462849932209661
0.5859999999999999,-0.0068,-0.264,0.005291110249968998,0.8924435520212742,0.00192076752646209,0.025285606188617252
0.587,-0.0042,-0.264,0.0054356940782976275,0.895345997786279,0.0021367695802086725,0.025514372514573346
0.5879999999999999,0.0001,-0.264,0.005478949949429418,0.9039974238760767,0.0022013920010497323,0.02619626465695434
0.589,-0.0053,-0.264,0.005478949949429417,0.8986597057783887,0.0022013920010497314,0.025775553898834302
0.5899999999999999,-0.0031,-0.264,0.005405271726229449,0.8986597057783888,0.002091319887788078,0.02577555389883431
0.591,0.002,-0.264,0.005469669500981971,0.893290093533348,0.002187527408117655,0.02535232929291137
0.5919999999999999,-0.0009,-0.264,0.005499323003439881,0.8986597057783888,0.002231828472114447,0.02577555389883431
0.593,0.0042,0.736,0.005503844159018032,0.8903809459985421,0.002238582885118153,0.025123034743732887
0.5939999999999999,-0.0023,-0.264,0.005526879129154223,0.8874622621777786,0.0022729961449890926,0.02489298855911366
0.595,0.01,-1.264,0.005527905527318499,0.9044153864264015,0.0022745295399337986,0.02622920782446427
0.5959999999999999,0.0009,-1.264,0.005481817952217125,0.907279534329071,0.0022056766745118823,0.02645495557161898
0.597,0.0057,-0.264,0.005482210838678704,0.907279534329071,0.002206263630076493,0.02645495557161898
0.5979999999999999,0.0042,1.736,0.005495940923402958,0.907279534329071,0.002226775789235901,0.02645495557161898
0.599,0.0006,0.736,0.005490329026961609,0.907279534329071,0.002218391856048094,0.02645495557161898
0.5999999999999999,0.0093,0.736,0.005494847828314338,0.8986597057783887,0.002225142751939741,0.025775553898834302
0.601,0.0039,-0.264,0.005494941250913595,0.901542139335294,0.0022252823213061027,0.02600274289322528
0.6019999999999999,0.0047,0.736,0.005564324746533498,0.9044153864264016,0.0023289382953058475,0.026229207824464276
0.603,-0.0015,-1.264,0.005569148685701017,0.9044153864264016,0.002336145054037981,0.026229207824464276
0.6039999999999999,0.0025,-0.264,0.0055419637705758406,0.9125668353590649,0.0022955319539019275,0.026871692533749117
0.605,0.0076,-0.264,0.005544298198902941,0.9290619750115575,0.0022990194899480173,0.028171814155290333
0.6059999999999999,0.0026,-0.264,0.005550853589471417,0.9452693149719253,0.0023088129629959394,0.029449251846274595
0.607,0.0011,-1.264,0.005561283130074523,0.9480100421593916,0.0023243942504465936,0.029665271761852102
0.6079999999999999,-0.0003,-0.264,0.005540941351489828,0.9480100421593917,0.0022940045035299093,0.029665271761852113
0.609,0.006600000000000578,-1.264,0.005492059921598231,0.9507428686256921,0.002220977738581787,0.029880668954698576
0.6099999999999999,0.0092,-0.264,0.005473882493162624,0.9507428686256921,0.0021938214381897517,0.029880668954698576
0.611,0.0037999999999992007,1.736,0.005452144555201365,0.9425206181404916,0.0021613458888968162,0.02923260377557646
0.6119999999999999,0.0002,-1.264,0.005568319607405093,0.9425206181404916,0.0023349064465345935,0.02923260377557646
0.613,-0.003400000000000644,0.736,0.005539591800069728,0.9346304498717624,0.002291988331446572,0.028610712807698346
0.6139999999999999,-0.0063,0.736,0.005541564917829109,0.9266731031140685,0.002294936084962556,0.02798352693429985
0.615,0.0020999999999986455,1.736,0.005516514018968659,0.9238690804586429,0.0022575111138257,0.02776251816696521
0.6159999999999999,-0.004,-1.264,0.0055247121479764395,0.9290619750115604,0.002269758767820136,0.028171814155290558
0.617,-0.0007999999999994227,1.736,0.005621346183991694,0.9262651840616826,0.0024141258833019095,0.0279513753799015
0.6179999999999999,0.0018,-0.264,0.0056180410704949535,0.9262651840616827,0.0024091881851415115,0.02795137537990151
0.619,0.0010999999999998446,0.736,0.005628321192591326,0.9262651840616836,0.002424546247735725,0.02795137537990158
0.6199999999999999,0.0004,0.736,0.005635074545543765,0.9290619750115616,0.0024346354681157993,0.028171814155290655
0.621,-0.00789999999999829,-1.264,0.005645706284157248,0.9290619750115617,0.0024505188307432538,0.028171814155290662
0.6219999999999999,-0.0002,-1.264,0.005573616483641541,0.9290619750115617,0.0023428197530138885,0.028171814155290662
0.623,0.004500000000000155,0.736,0.0055351702019928025,0.9290619750115626,0.0022853826530902966,0.028171814155290735
0.6239999999999999,0.0052,-1.264,0.005509979411235544,0.9318503719052453,0.002247748689444648,0.028391591324037978
0.625,0.0012999999999995114,-0.264,0.005506281872448075,0.939763881734335,0.0022422247246891595,0.029015322037922762
0.6259999999999999,-0.0009,-0.264,0.0055099166192086714,0.9397638817343353,0.0022476548808429524,0.029015322037922786
0.627,0.0086000000000008,-0.264,0.00562984527454343,0.9369990347939695,0.0024268231609668807,0.028797401040395586
0.6279999999999999,0.0122,-0.264,0.005622537820286666,0.9318503719052472,0.002415906136944439,0.028391591324038127
0.629,0.004699999999998534,-0.264,0.00560595867201459,0.9238690804586471,0.0023911375987369855,0.027762518166965542
0.6299999999999999,-0.0019,1.736,0.005626763280417907,0.9318503719052473,0.0024222187936012935,0.028391591324038137
0.631,-0.002600000000000466,0.736,0.005532660249913585,0.9266731031140727,0.0022816328920680314,0.027983526934300184
0.6319999999999999,-0.0047,-1.264,0.005463163372630809,0.9129808748421329,0.002177807530714799,0.026904326491111647
0.633,-0.015999999999999667,1.736,0.005453783422188565,0.9210565214035172,0.00216379428605952,0.02754083657369189
0.6339999999999999,-0.0145,-0.264,0.005574735476391297,0.9129808748421329,0.002344491480307798,0.026904326491111647
0.635,-0.006800000000001443,-1.264,0.005546338863782457,0.9158182352601769,0.0023020681559715933,0.027127962889791475
0.6359999999999999,-0.0133,0.736,0.005512703569641007,0.9186468321627324,0.0022518184655538655,0.02735090856161433
0.637,-0.007099999999998802,1.736,0.005484681075647127,0.9186468321627324,0.002209954058422375,0.02735090856161433
0.6379999999999999,-0.0017,0.736,0.005506917511527324,0.9214667462530496,0.002243174342278807,0.027573169867486706
0.639,-0.0023000000000013765,-0.264,0.005536977105223507,0.9214667462530495,0.0022880820892116475,0.027573169867486695
0.6399999999999999,-0.0085,0.736,0.005514963294785694,0.9214667462530496,0.0022551943982414805,0.027573169867486706
0.641,-0.0061999999999992,-1.264,0.005506977952164773,0.9214667462530496,0.0022432646380053044,0.027573169867486706
0.6419999999999999,-0.0026,-0.264,0.005583532104386067,0.9214667462530498,0.002357633266183022,0.027573169867486723
0.643,0.005399999999999445,-0.264,0.005612260588486553,0.9294686666276698,0.0024005523923291802,0.028203868965043167
0.6439999999999999,0.0029,1.736,0.005637851971441931,0.9294686666276698,0.002438784823580155,0.028203868965043167
0.645,0.00039999999999951153,0.736,0.005659737545244111,0.9322558470989488,0.002471480934503074,0.02842355025724124
0.6459999999999999,-0.0018,0.736,0.005584835989378417,0.9405678343813647,0.0023595812145770618,0.029078688353159788
0.647,0.0050999999999986455,0.736,0.005595238955314477,0.9354388144010065,0.0023751228006121004,0.028674426860728415
0.6479999999999999,-0.001,-0.264,0.0055710842652830035,0.9896862577934769,0.0023390367271229457,0.0329501271914756
0.6489999999999998,0.0044,-1.264,0.00556768492856495,0.9768776415998556,0.0023339582635010883,0.03194057169778607
0.6499999999999999,-0.0006,0.736,0.0056821051400953,0.9742181298098167,0.0025048971642507517,0.031730953055336394
0.6509999999999998,0.0088,0.736,0.005615397920726584,0.9742181298098158,0.002405239432470293,0.031730953055336325
0.6519999999999999,-0.0024,0.736,0.005609952088420647,0.9742181298098155,0.0023971035919960176,0.0317309530553363
0.6529999999999998,-0.0009,-1.264,0.005596614720310532,0.9742181298098146,0.0023771781346564116,0.03173095305533623
0.6539999999999999,-0.0045,1.736,0.005613064639564778,0.9665867403692704,0.002401753610240073,0.03112945863800624
0.6549999999999998,0.0041,1.736,0.005618015337073809,0.9665867403692705,0.0024091497405112823,0.03112945863800625
0.6559999999999999,-0.0035,0.736,0.005566499040200147,0.9665867403692705,0.002332186597020316,0.03112945863800625
0.6569999999999998,0.0013,-0.264,0.005563283663614296,0.9692671916789767,0.0023273829619655443,0.03134072770129732
0.6579999999999999,0.0005,0.736,0.005564916824805979,0.9642908343857507,0.002329822834913859,0.030948498847844737
0.6589999999999998,0.0027,-0.264,0.005576724681677142,0.9669776499422962,0.002347463267900041,0.031160269531315742
0.6599999999999999,0.0034,-1.264,0.005598020280478613,0.9592886623407391,0.002379277981412992,0.030554235315228575
0.6609999999999998,0.0114,-1.264,0.005551014805761846,0.9619894489561946,0.0023090538132364727,0.030767107176146242
0.6619999999999999,0.0048,-0.264,0.005648611923608254,0.9460685892090097,0.002454859731770149,0.029512249416411396
0.6629999999999998,0.0041,-0.264,0.005650143628462695,0.9382082592343154,0.002457148033291263,0.028892710257129146
0.6639999999999999,0.0,-0.264,0.005644663796984352,0.943322221343464,0.0024489613995080104,0.029295784911234416
0.6649999999999998,0.0051,-1.264,0.005680543265613201,0.9405678343813426,0.0025025637905966742,0.029078688353158046
0.6659999999999999,0.0116,-0.264,0.005697318704336128,0.9242780570032437,0.0025276255783397415,0.02779475307127888
0.6669999999999998,0.0007,0.736,0.005735932107638075,0.9242780570032437,0.002585312350863207,0.02779475307127888
0.6679999999999999,-0.0037,0.736,0.005809324201430541,0.9076959855824936,0.002694956999031618,0.02648777962102379
0.6689999999999998,0.0028,0.736,0.0058577361405515345,0.9076959855824936,0.0027672823648548332,0.02648777962102379
0.6699999999999999,-0.0035,0.736,0.0058577361405515345,0.9076959855824936,0.0027672823648548332,0.02648777962102379
0.6709999999999998,0.0067,0.736,0.005857589331483285,0.921466746253023,0.002767063038387848,0.027573169867484613
0.6719999999999999,0.0001,0.736,0.00581415195658554,0.921466746253023,0.0027021694586857863,0.027573169867484613
0.6729999999999998,-0.0061,0.736,0.005863116780278769,0.9162308054552905,0.0027753208104056835,0.02716048104012975
0.6739999999999999,0.0015,-1.264,0.006039006311258238,0.9162308054552905,0.0030380922445506827,0.02716048104012975
0.6749999999999998,-0.0025,-0.264,0.006397796869697032,0.9081122458555488,0.003574109988606479,0.0265205886176488
0.6759999999999999,-0.0116,-0.264,0.006583017255303651,0.9081122458555488,0.0038508213203594876,0.0265205886176488
0.6769999999999998,0.0022,0.736,0.006660450344166295,0.9246868526630655,0.003966503042275554,0.027826973718531548
0.6779999999999999,0.0004,-0.264,0.006613823065047556,0.9246868526630655,0.0038968438821420245,0.027826973718531548
0.6789999999999998,0.0051,-1.264,0.006516874836555874,0.9274884029978404,0.0037520073765426654,0.0280477876213424
0.6799999999999999,-0.0026,0.736,0.006549135569792402,0.9437227676127145,0.003800203531776721,0.029327355354167983
0.6809999999999998,-0.0015,0.736,0.00655448055026526,0.9354388144009879,0.003808188703927154,0.028674426860726944
0.6819999999999999,-0.0027,-1.264,0.006575421882455594,0.9326611460119733,0.003839474158279769,0.02845549529627161
0.6829999999999998,-0.0129,-0.264,0.006568938824148634,0.9274884029978404,0.0038297887465359366,0.0280477876213424
0.6839999999999999,-0.0038,0.736,0.006412984025712181,0.9138083910141808,0.0035967989499361345,0.02696955004726941
0.6849999999999998,-0.005,0.736,0.006251760240575553,0.9138083910141808,0.0033559375126310225,0.02696955004726941
0.6859999999999999,-0.0039,-0.264,0.006226291285045134,0.9222866485592218,0.0033178879827150862,0.02763779331040766
0.6869999999999998,-0.0065,0.736,0.006087492545684426,0.9274884029978404,0.003110528604381259,0.0280477876213424
0.688,-0.0058,-0.264,0.006046954325570789,0.9109647706033244,0.0030499662378911836,0.026745420245552234
0.6889999999999998,0.0018,-0.264,0.0060446882628985305,0.9488070076129731,0.0030465808372085166,0.029728087357212413
0.69,-0.0008,-0.264,0.006046645471876932,0.948807007612973,0.003049504823686348,0.029728087357212402
0.6909999999999998,0.0094,-0.26400000000011103,0.005994954541184792,0.953864148230956,0.002972280784741989,0.03012668342848728
0.692,0.0057,-1.263999999999778,0.005974429896178007,0.9488070076129731,0.0029416178432143353,0.029728087357212413
0.6929999999999998,0.0068,0.736,0.0060129582763740865,0.9565802504170394,0.002999177594855207,0.030340762439204163
0.694,-0.0055,0.736000000000111,0.005999524685137387,0.9592886623407391,0.002979108384281229,0.030554235315228575
0.6949999999999998,-0.0041,1.735999999999889,0.005992700347537101,0.943322221343464,0.00296891311587423,0.029295784911234416
0.696,0.0035,0.7359999999995559,0.005993125284584581,0.943322221343464,0.002969547953642947,0.029295784911234416
0.6969999999999998,0.0024,-3.2639999999995557,0.006055354741272681,0.9405678343813426,0.003062516099552125,0.029078688353158046
0.698,-0.0038,0.735999999999889,0.006034795948036298,0.9456690365332322,0.0030318021420304266,0.029480757286992263
0.6989999999999998,-0.0114,-0.263999999999889,0.006037134087401433,0.9456690365332322,0.0030352952222085705,0.029480757286992263
0.7,0.0034,0.735999999999889,0.006021073220142546,0.9456690365332322,0.0030113009736610383,0.029480757286992263
0.7009999999999998,-0.0031,-0.263999999999889,0.006134137207383441,0.9429215049250563,0.0031802137333460353,0.02926420105740511
0.702,0.0027,0.735999999999889,0.006076320239530752,0.9401659439921095,0.0030938376569760334,0.02904701196874789
0.7029999999999998,0.0045,-0.264,0.006085797605931508,0.9401659439921096,0.0031079964369055504,0.0290470119687479
0.704,-0.0035,-0.264,0.006111235337261383,0.9350347194931811,0.0031459993192017506,0.02864257671954218
0.7049999999999998,0.0008,-0.264,0.006112525511867829,0.935034719493181,0.0031479267848658257,0.02864257671954217
0.706,0.0018,0.736,0.006108758327287262,0.921466746253023,0.003142298772275127,0.027573169867484613
0.7069999999999999,-0.0018,0.736,0.006165516318084612,0.9186468321627058,0.003227092782231008,0.02735090856161224
0.708,0.0036,0.736,0.006164070505260511,0.9266731031140464,0.003224932799728476,0.02798352693429811
0.7089999999999999,0.0082,-0.264,0.006164754034704038,0.931850371905221,0.0032259539634734453,0.028391591324036063
0.71,0.0057,0.736,0.00626082499044249,0.939763881734311,0.0033694798611121203,0.02901532203792087
0.7109999999999999,0.0111,-0.264,0.0062969727626587865,0.931850371905221,0.003423483086281512,0.028391591324036063
0.712,0.0013,-0.264,0.006225885022870063,0.9266731031140464,0.003317281044406775,0.02798352693429811
0.7129999999999999,-0.0023,-1.264,0.006215125090525783,0.9266731031140464,0.003301206165830064,0.02798352693429811
0.714,0.0089,-0.264,0.006203247049092184,0.9266731031140464,0.0032834608801103303,0.02798352693429811
0.7149999999999999,-0.0049,-0.264,0.006207276912586338,0.9266731031140464,0.0032894813237596527,0.02798352693429811
0.716,0.0077,-1.264,0.006187895254230296,0.9186468321627058,0.0032605259553874434,0.02735090856161224
0.7169999999999999,0.0092,-0.264,0.0060809953828211555,0.9186468321627058,0.003100822121033739,0.02735090856161224
0.718,0.0077,-0.264,0.006187662045921908,0.9186468321627058,0.0032601775521521373,0.02735090856161224
0.7189999999999999,0.0011,0.736,0.006200049629138512,0.9238690804586207,0.0032786840714957907,0.02776251816696346
0.72,0.0001,1.736,0.006208213166823158,0.9290619750115383,0.0032908800475333956,0.028171814155288816
0.7209999999999999,0.0033,-1.264,0.006198699027452034,0.9262651840616605,0.003276666330359418,0.027951375379899758
0.722,-0.0076,0.736,0.006196557352454419,0.9262651840616605,0.003273466759540951,0.027951375379899758
0.7229999999999999,-0.0152,0.736,0.006201436695109019,0.9262651840616605,0.003280756288712439,0.027951375379899758
0.724,-0.0218,-0.264,0.0061734584415087425,0.9314447202006486,0.00323895797483624,0.028359618478516688
0.7249999999999999,-0.0156,-0.264,0.006278939888996787,0.9314447202006487,0.003396542744536713,0.028359618478516698
0.726,-0.0102,1.736,0.0062793401583523135,0.9314447202006486,0.003397140729829018,0.028359618478516688
0.7269999999999999,-0.0036,-0.264,0.006173624747128484,0.9314447202006486,0.0032392064283170274,0.028359618478516688
0.728,0.0047,0.736,0.0062166551301049006,0.9448694243106944,0.0033034919795010905,0.02941773307736013
0.7289999999999999,0.008,1.736,0.006220524134087123,0.9448694243106944,0.0033092721059216905,0.02941773307736013
0.73,0.0032,-1.264,0.00620623136736811,0.9369990347939435,0.003287919323935517,0.02879740104039354
0.7309999999999999,0.0058,-0.264,0.006208998949369396,0.9369990347939435,0.0032920539730390873,0.02879740104039354
0.732,0.0036,0.736,0.0062078381080747985,0.9369990347939435,0.003290319725809605,0.02879740104039354
0.7329999999999999,0.0072,0.736,0.006266556928626195,0.9369990347939435,0.0033780431315272226,0.02879740104039354
0.734,0.002200000000000333,-0.264,0.006138058283770359,0.9448694243106945,0.0031860716537114196,0.02941773307736014
0.7349999999999999,0.0037,1.736,0.006136291991991476,0.9448694243106945,0.003183432889361598,0.02941773307736014
0.736,0.002199999999999689,-1.264,0.006153467308345591,0.9421195607722327,0.003209092077177567,0.029200993048602526
0.7369999999999999,0.0008,-0.264,0.0061865112076740295,0.9448694243106944,0.0032584582490464897,0.02941773307736013
0.738,-0.00019999999999935607,2.736,0.006160782417750292,0.9448694243106945,0.003220020537663513,0.02941773307736014
0.7389999999999999,0.0027,-0.264,0.006134335999212193,0.9448694243106945,0.003180510719833217,0.02941773307736014
0.74,-0.003100000000000133,-1.264,0.006131586960577978,0.9608101547196202,0.0031764037737267025,0.030674157012193084
0.7409999999999999,-0.0037,0.736,0.006141887665045894,0.9635066764791508,0.0031917925855034193,0.030886692723704465
0.742,-0.0072999999999992,-1.264,0.006071521546703305,0.9791440343662496,0.003086668615195845,0.032119205301415384
0.7429999999999999,-0.0037,0.736,0.006044517243677868,0.9742181298098174,0.003046325341809617,0.03173095305533645
0.744,-0.0006999999999996669,-0.264,0.006085752859695096,0.9715513379346351,0.0031079295879427446,0.03152076060773562
0.7449999999999999,0.0008,0.736,0.0060931818119880615,0.9688772058599683,0.0031190281248331814,0.03130998961686342
0.746,0.008799999999998313,-0.264,0.006123726104471067,0.9688772058599703,0.00316465999101651,0.03130998961686358
0.7469999999999999,0.0012,-1.264,0.006166102508297468,0.9688772058599737,0.0032279685253298507,0.03130998961686385
0.748,0.0018999999999994449,-0.264,0.006186112883575535,0.9214667462530461,0.0032578631698849674,0.027573169867486435
0.7489999999999999,-0.0006,-1.264,0.006222935217589561,0.91864683216273,0.0033128741615201717,0.027350908561614148
0.75,0.011699999999998002,-0.264,0.006176199250301515,0.935034719493205,0.0032430526259117393,0.02864257671954407
0.7509999999999999,0.0027,-0.264,0.006167382892646765,0.9322558470989494,0.003229881364768606,0.028423550257241286
0.752,0.004100000000000333,0.736,0.0061654107850840825,0.9322558470989497,0.0032269351204432693,0.028423550257241314
0.7529999999999999,0.0056,0.736,0.006159691369484954,0.9294686666276725,0.0032183905582337667,0.02820386896504338
0.754,0.004599999999999755,1.736,0.006151101792053977,0.9294686666276725,0.0032055580970425388,0.02820386896504338
0.7549999999999999,0.0035,0.736,0.0061534835690732065,0.9322558470989506,0.003209116370008936,0.028423550257241383
0.756,0.008999999999997978,-0.264,0.006202957558323837,0.9401659439921356,0.003283028393287797,0.029047011968749946
0.7569999999999999,-0.0001,-1.264,0.006202957558323838,0.9374022829261004,0.0032830283932877985,0.028829184440019622
0.758,-0.001100000000002265,-1.264,0.006200888251197576,0.9346304498717695,0.003279936936972994,0.028610712807698904
0.7589999999999999,-0.0113,-1.264,0.006205387033957886,0.9318503719052472,0.003286657925944029,0.028391591324038127
0.76,-0.007599999999999755,-0.264,0.0062018185055921805,0.9346304498717695,0.003281326697239161,0.028610712807698904
0.7609999999999999,-0.0065,0.736,0.006175230714069434,0.9318503719052473,0.003241605674218207,0.028391591324038137
0.762,-0.0031999999999989567,-0.264,0.006075678048918498,0.9397638817343371,0.0030928782516763736,0.02901532203792293
0.7629999999999999,0.0015,-0.264,0.006079501905434134,0.9425206181404987,0.003098590929713452,0.02923260377557702
0.764,0.002199999999999845,-0.264,0.006076217827089846,0.9425206181404971,0.0030936846571708652,0.029232603775576897
0.7649999999999999,0.0015,-0.264,0.006114279115729007,0.9425206181404966,0.0031505465940094286,0.029232603775576852
0.766,-0.002100000000002087,-0.264,0.006103494641391389,0.95850041212044,0.0031344350507446577,0.030492106641195765
0.7669999999999999,-0.0115,0.736,0.006072762771369011,0.9507428686256932,0.0030885229517426966,0.029880668954698663
0.768,-0.005399999999999756,-1.264,0.006059726720676027,0.9585004121204359,0.0030690476497329247,0.03049210664119544
0.7689999999999999,-0.0043,-1.264,0.006013932393226153,0.9742181298098239,0.0030006328837562397,0.03173095305533696
0.77,0.0004000000000013545,-0.264,0.006037386434531827,0.9791440343662576,0.0030356722180251306,0.032119205301416015
0.7709999999999999,0.0065,0.736,0.006085812775910233,0.9635066764791588,0.0031080191002047443,0.030886692723705096
0.772,-0.002499999999999778,0.736,0.006104881084202251,0.9635066764791573,0.003136506336987457,0.03088669272370498
0.7729999999999999,-0.0015,-1.264,0.006061615599007154,0.9608101547196265,0.0030718695531471393,0.030674157012193583
0.774,-0.011599999999998,-1.264,0.005928184244199421,0.9608101547196256,0.002872528817700918,0.030674157012193514
0.7749999999999999,-0.0026,-0.264,0.005594862374523874,0.9608101547196253,0.002374560205022317,0.030674157012193486
0.7759999999999998,0.0014,-0.264,0.005438728065850143,0.963506676479156,0.0021413022278080666,0.030886692723704878
0.7769999999999999,0.0076,1.736,0.005392067212961563,0.9503452811543552,0.0020715929098987914,0.029849331719680933
0.7779999999999998,0.0022,-0.264,0.005420165096095054,0.9530714116056104,0.0021135699451794634,0.030064201142886035
0.7789999999999999,0.0029,-0.264,0.005413955310532219,0.9661956726395857,0.002104292791223839,0.03109863527903133
0.7799999999999998,-0.0032,0.736,0.005355900853457846,0.9503452811543517,0.00201756191611722,0.02984933171968065
0.7809999999999999,0.0008,0.736,0.005373955376404179,0.9452693149719074,0.002044534600966584,0.029449251846273176
0.7819999999999998,-0.009,-1.264,0.005349691320760051,0.9452693149719074,0.002008285139931146,0.029449251846273176
0.7829999999999999,-0.0025,-1.264,0.005343468189893304,0.9425206181404736,0.001998988048662434,0.02923260377557504
0.7839999999999998,-0.0035,0.736,0.0052985482657154385,0.939763881734312,0.0019318796037642548,0.02901532203792095
0.7849999999999999,-0.0068,-0.264,0.005395722821078609,0.9425206181404737,0.0020770542320266015,0.02923260377557505
0.7859999999999998,-0.0075,0.736,0.005463142855617882,0.9262651840616614,0.0021777768791752714,0.027951375379899827
0.7869999999999999,-0.0032,0.736,0.0054715200393083445,0.9182353475075669,0.0021902920332050805,0.027318475971870707
0.7879999999999998,0.0008,-0.264,0.005621752528043509,0.9262651840616614,0.0024147329439305723,0.027951375379899827
0.7889999999999999,0.0,1.736,0.005658457355051208,0.8874622621777595,0.002469568385125665,0.024892988559112157
0.7899999999999998,0.0036,0.736,0.005661834332904685,0.8903809459985231,0.002474613445560431,0.025123034743731388
0.7909999999999999,-0.0018,1.736,0.005877315570836489,0.8820244844701215,0.002796533196027498,0.024464391255920082
0.7919999999999998,0.0004,0.736,0.006340274759823495,0.879078056259639,0.003488174417442326,0.024232158301033372
0.7929999999999999,0.0098,-0.264,0.0063414281297445975,0.8735880913865196,0.0034898975027594574,0.023799447685457244
0.7939999999999998,0.0062,-0.264,0.0063312981749041874,0.8790780562596389,0.003474763783620998,0.024232158301033365
0.7949999999999999,0.0073,1.736,0.006336137922907407,0.8961897976502198,0.0034819941600773142,0.025580879526364373
0.7959999999999998,0.008,0.736,0.006336045367000025,0.910134668947349,0.0034818558855115346,0.026679992905514666
0.7969999999999999,0.0055,-1.264,0.006286459968143844,0.910134668947349,0.003407777421048454,0.026679992905514666
0.7979999999999998,0.0077,-0.264,0.0062899649120756055,0.9048331559105346,0.003413013657329363,0.026262135774792923
0.7989999999999999,0.0084,1.736,0.00631589772827573,0.9076959855824946,0.0034517561752403394,0.026487779621023867
0.7999999999999998,-0.001,-0.264,0.006334910883957231,0.9076959855824945,0.003480161016382553,0.02648777962102386
0.8009999999999999,0.0026,-0.264,0.006406620660629437,0.9158182352601512,0.003587292354748408,0.027127962889789446
0.8019999999999998,-0.0007,-0.264,0.006429176258696656,0.9186468321627067,0.0036209894532574336,0.027350908561612312
0.8029999999999999,-0.0032,-0.264,0.00643481886365888,0.9158182352601512,0.0036294192636616143,0.027127962889789446
0.8039999999999998,-0.0039,0.736,0.006416037418814657,0.9158182352601513,0.0036013605885969356,0.027127962889789452
0.8049999999999999,-0.0079,-1.264,0.0064021915712885935,0.9072795343290523,0.003580675484764341,0.026454955571617502
0.8059999999999998,0.0018,-0.264,0.0064237457503367,0.9125668353590464,0.003612876506102843,0.026871692533747656
0.8069999999999999,0.0007,-0.264,0.0063658667465613175,0.9125668353590464,0.00352640775071844,0.026871692533747656
0.8079999999999998,0.0043,-0.264,0.006428657345030159,0.9044153864263829,0.003620214218440537,0.026229207824462798
0.8089999999999999,-0.008,0.736,0.006475696912052229,0.9044153864263829,0.0036904893190625974,0.026229207824462798
0.8099999999999998,-0.0,-0.264,0.006378004418216592,0.8961897976502198,0.0035445409128815135,0.025580879526364373
0.8109999999999999,0.0014,-1.264,0.006336949130457476,0.8961897976502198,0.003483206069450964,0.025580879526364373
0.8119999999999998,0.0025,0.736,0.006304798392518834,0.8961897976502199,0.0034351742424859853,0.025580879526364383
0.813,-0.0011,-1.263999999999889,0.006307350278314622,0.8990801497196458,0.003438986650686743,0.02580869264577372
0.8139999999999998,0.0112,-0.26399999999977797,0.006310686334659587,0.9072795343290523,0.00344397057613855,0.026454955571617502
0.815,0.0032,1.735999999999778,0.006313097642718102,0.9072795343290523,0.003447572967214204,0.026454955571617502
0.8159999999999998,0.0047,-0.26400000000011103,0.006349525249393314,0.9072795343290523,0.003501994253092968,0.026454955571617502
0.817,0.0083,-1.263999999999667,0.006368570914087723,0.9072795343290523,0.003530447661309621,0.026454955571617502
0.8179999999999998,0.0021,1.735999999999667,0.006264875532185368,0.9072795343290523,0.0033755311971803512,0.026454955571617502
0.819,0.0054,-1.263999999999889,0.006253210241084003,0.9019612396480567,0.0033581037513548094,0.02603577573742646
0.8199999999999998,-0.0077,-0.26400000000011103,0.006454106121663496,0.9105498143704905,0.003658233601947554,0.026712714031378468
0.821,-0.0059,-1.263999999999889,0.006467373020330847,0.9133947266421529,0.0036780537809545863,0.026936945655584046
0.8219999999999998,0.0021,-0.263999999999889,0.006469703561526228,0.9186468321627066,0.0036815355097921925,0.027350908561612302
0.823,-0.0084,0.735999999999889,0.006465013287495895,0.9186468321627067,0.003674528441056376,0.027350908561612312
0.8239999999999998,-0.0095,-0.263999999999889,0.006467225765739045,0.913394726642153,0.0036778337888944755,0.026936945655584053
0.825,-0.0084,0.736,0.006375801497687398,0.9133947266421529,0.003541249843859154,0.026936945655584046
0.8259999999999998,-0.0073,0.736,0.006372326976595056,0.913394726642153,0.003536059057998748,0.026936945655584053
0.827,-0.0066,0.736000000000111,0.006378923936898908,0.913394726642153,0.0035459146344528304,0.026936945655584053
0.8279999999999998,-0.004,1.735999999999778,0.006333507159881606,0.9048331559105345,0.0034780639126695467,0.026262135774792916
0.829,0.0014,-0.263999999999889,0.006333601992864694,0.9048331559105345,0.00347820558908901,0.026262135774792916
0.8299999999999998,-0.0055,0.735999999999889,0.006340959483660629,0.9076959855824945,0.0034891973655602447,0.02648777962102386
0.831,0.0028,-0.264,0.006333383990909212,0.9048331559105345,0.0034778799034943684,0.026262135774792916
0.8319999999999999,-0.0026,-0.264,0.006344442602504417,0.9019612396480567,0.0034944009960934702,0.02603577573742646
0.833,0.0021,-0.264,0.006282024282111945,0.8966113997951266,0.0034011506958901774,0.025614109561140023
0.8339999999999999,0.0104,0.736,0.006280179497112891,0.8912294466957953,0.0033983946660276205,0.025189912267999555
0.835,0.0093,-0.264,0.0062842522006771795,0.8883135507522864,0.003404479110908882,0.024960085819591922
0.8359999999999999,-0.0038,-0.264,0.006266444697037697,0.8883135507522864,0.003377875462335646,0.024960085819591922
0.837,0.0129,-1.264,0.006251316294651625,0.8853880517844005,0.0033552742764141556,0.02472950247552365
0.8379999999999999,0.0064,0.736,0.006245522796040454,0.8824528542845888,0.0033466190373541787,0.02449815470803613
0.839,-0.0034,0.736,0.006337038075989826,0.8824528542845888,0.0034833389502709096,0.02449815470803613
0.8399999999999999,-0.0161,-0.264,0.006410291799806679,0.8932900935333289,0.0035927768796156804,0.025352329292909863
0.841,-0.0241,-0.264,0.006631323158879606,0.9178236783729802,0.003922988273614969,0.0272860288417419
0.8419999999999999,-0.0074,0.736,0.006633553625329368,0.9093038094935224,0.00392632049506415,0.02661450583701212
0.843,-0.0008,-1.264,0.0066456807546196464,0.9145794080036543,0.0039444379073849565,0.027030320424465865
0.8439999999999999,-0.0026,1.736,0.006574843669092504,0.9226410631100029,0.0038386103322532,0.027665727722008093
0.845,-0.0008,1.736,0.006555292772576488,0.9254488065497275,0.0038094021293105605,0.027887029755857485
0.8459999999999999,0.0039,-0.264,0.006534328627849755,0.9169997856715341,0.0037780825940045616,0.02722109088198245
0.847,0.0024,0.736,0.006489395469236637,0.9141660925204352,0.0037109543774263283,0.026997743531661584
0.8479999999999999,0.006,0.736,0.00646673241453796,0.9060290320523066,0.003677096743307257,0.026356392899094874
0.849,0.0049,-1.264,0.006425009803624028,0.9088880949430452,0.0036147649476337136,0.026581739853404156
0.8499999999999999,0.0151,-1.264,0.006371059075860984,0.8920199799971303,0.0035341648685470496,0.025252220890979823
0.851,0.006,0.736,0.006419911399262872,0.8920199799971303,0.003607148149644819,0.025252220890979823
0.8519999999999999,0.0049,-0.264,0.006426563260700955,0.8920199799971303,0.0036170857460445893,0.025252220890979823
0.853,-0.0028,0.736,0.006467138253618965,0.8920199799971303,0.003677703049531135,0.025252220890979823
0.8539999999999999,0.0019,-1.264,0.006466190826297939,0.8920199799971303,0.0036762876336476095,0.025252220890979823
0.855,0.0063,-1.264,0.006455059709072451,0.8973971920498546,0.0036596582207388956,0.025676044502094406
0.8559999999999999,-0.0028,-0.264,0.0064070893351123506,0.8920199799971303,0.0035879925343744305,0.025252220890979823
0.857,-0.009,-0.264,0.006410735277758686,0.8920199799971303,0.003593439416702519,0.025252220890979823
0.8579999999999999,-0.0079,-1.264,0.006479398457109027,0.900283667799501,0.0036960192690130614,0.025903552095920844
0.859,0.0011000000000002442,-0.264,0.006500918165879351,0.9084721901626729,0.003728168793231309,0.026548958876167462
0.8599999999999999,0.0022,-0.264,0.006453559304858039,0.9084721901626729,0.00365741668103484,0.026548958876167462
0.861,-0.0010999999999989564,0.736,0.006576113150944502,0.9084721901626729,0.0038405068838274353,0.026548958876167462
0.8619999999999999,0.0036,0.736,0.006590873230829968,0.9031609185046044,0.0038625578116910793,0.026130332585877745
0.863,-0.0025999999999988008,-1.264,0.00661451804269008,0.9084721901626729,0.003897882149006504,0.026548958876167462
0.8639999999999999,0.0028,-0.264,0.006618150392967452,0.9002836677995025,0.0039033087249168872,0.02590355209592097
0.865,-0.006999999999997269,-0.264,0.0065323420094506954,0.9002836677995031,0.0037751146711105005,0.02590355209592101
0.8659999999999999,0.0053,-0.264,0.006524419754754655,0.9109087954764185,0.003763279161534984,0.02674100837185537
0.867,0.000599999999999023,0.736,0.006510710191478387,0.9109087954764182,0.003742797660540892,0.026741008371855352
0.8679999999999999,-0.0038,0.736,0.006457218412980427,0.9056118142401989,0.003662883232020888,0.026323508430709585
0.869,0.016499999999995404,1.736,0.00647330637987748,0.8915962067460123,0.003686917966268428,0.025218819732940753
0.8699999999999999,-0.0042,0.736,0.00645868546403023,0.9002836677995198,0.0036650749435239776,0.025903552095922332
0.871,-0.0067999999999984895,-1.264,0.0064130618611060635,0.903160918504623,0.0035969152326845387,0.026130332585879205
0.8719999999999999,0.0,0.736,0.006391237758278397,0.9031609185046244,0.0035643109567676094,0.02613033258587932
0.873,0.0022000000000004,0.736,0.006413612785401675,0.9031609185046248,0.003597738290011811,0.026130332585879344
0.8739999999999999,0.004,-1.264,0.006361501875000818,0.9031609185046257,0.0035198868193507564,0.026130332585879414
0.875,-0.0014999999999989564,-0.264,0.006308728196440922,0.9060290320523279,0.003441045201415521,0.026356392899096553
0.8759999999999999,0.0032,-0.264,0.0062546970653888645,0.906029032052328,0.0033603250032549904,0.026356392899096564
0.877,-0.0008000000000003331,-1.264,0.006212817380778116,0.906029032052328,0.003297758546198538,0.026356392899096564
0.8779999999999999,-0.0023,-0.264,0.006184683670523428,0.9113235882531294,0.0032557279867316004,0.026773701702668098
0.879,0.0041999999999992,0.736,0.0061757616210909505,0.8945014019505224,0.0032423988265943868,0.025447802765503968
0.8799999999999999,0.0006,-0.264,0.006200684134038277,0.89739719204988,0.0032796319946698117,0.02567604450209641
0.881,0.0037999999999994228,-0.264,0.006181775485831606,0.9027423751458075,0.003251383283223819,0.02609734363993437
0.8819999999999999,0.0012,0.736,0.00617799442406994,0.9027423751458075,0.0032457345387182693,0.02609734363993437
0.883,0.0019000000000004885,0.736,0.006187889233997775,0.9109087954764381,0.003260516961417623,0.02674100837185692
0.8839999999999999,0.0041,-0.264,0.006260378932459633,0.9377509846762189,0.003368813469569574,0.02885666857742914
0.885,0.00479999999999758,-0.264,0.006174505732660023,0.9377509846762189,0.0032405225830096597,0.02885666857742914
0.8859999999999999,-0.0061,-0.264,0.006316466961512967,0.9377509846762189,0.0034526065853430835,0.02885666857742914
0.887,-0.0017000000000020204,-0.264,0.00633828649019068,0.945615115707051,0.0034852040276756794,0.02947650733012943
0.8879999999999999,-0.0108,-0.264,0.006222360797324567,0.940513621096886,0.0033120160022198785,0.029074415345182257
0.889,-0.00970000000000171,-2.264,0.006188980719826971,0.9638459341855866,0.003262147594549052,0.030913432496067962
0.8899999999999999,-0.0174,-2.264,0.006194523597690105,0.9638459341855856,0.00327042841693385,0.030913432496067882
0.891,-0.0024999999999985568,-1.264,0.006034081010405148,0.9638459341855861,0.0030307340557968955,0.030913432496067917
0.8919999999999999,0.004,-1.264,0.005574685234501342,0.9714988536475588,0.0023444164210737204,0.03151662387668292
0.893,-0.0017999999999988008,-1.264,0.005526635487066127,0.9714988536475588,0.002272632154133295,0.03151662387668292
0.8939999999999999,0.0036,0.736,0.00552831921692183,0.9665339864969232,0.002275147574502159,0.03112530065865575
0.895,0.0050999999999983125,-1.264,0.0055296538637142146,0.9584472131687567,0.0022771414797093594,0.03048791358137427
0.8959999999999999,-0.0025,-0.264,0.005529617656997048,0.9424665171855383,0.0022770873884229554,0.02922833962123993
0.897,0.0010999999999992008,-0.264,0.005546382986597051,0.9452153713431639,0.002302134073568877,0.02944500009214734
0.8979999999999999,-0.0025,0.736,0.0055794506676651815,0.9424665171855374,0.0023515357743394377,0.02922833962123986
0.899,-0.0015000000000014433,-0.264,0.005589904247924094,0.9397096220685822,0.00236715297600737,0.02901104537424431
0.8999999999999999,-0.008,-0.264,0.005631615681829014,0.9345758921689522,0.0024294680737076387,0.0286064126531959
0.901,0.003899999999997513,-0.264,0.005424646772679154,0.9266180768962756,0.0021202653782550996,0.027979189852164674
0.9019999999999999,-0.0073,-0.264,0.005393437417215976,0.9317956514256933,0.002073639936432996,0.028387278339722266
0.9029999999999998,-0.003,-0.264,0.005422405122397049,0.9317956514256925,0.002116916448638879,0.028387278339722207
0.9039999999999999,0.0007,-1.264,0.005481094681455395,0.9688245767067035,0.002204596138937783,0.03130584146767981
0.9049999999999998,-0.0004,0.736,0.005478352522208526,0.9688245767067022,0.0022004994703416405,0.03130584146767971
0.9059999999999999,0.0028,-0.264,0.005443827259916765,0.9611503642190847,0.002148920205583141,0.030700971803424074
0.9069999999999998,0.0094,-1.264,0.005468334551790516,0.9611503642190845,0.0021855330511391814,0.030700971803424057
0.9079999999999999,0.0068,-1.264,0.005397499397583168,0.9638459341855594,0.0020797083613165687,0.030913432496065818
0.9089999999999998,0.0014,0.736,0.00535749409689459,0.9638459341855581,0.0020199421536474696,0.03091343249606571
0.9099999999999999,0.0126,-0.264,0.0053562894469522575,0.9638459341855583,0.00201814245817255,0.030913432496065728
0.9109999999999998,0.0046,0.736,0.005355593758861667,0.9714988536475342,0.002017103129929054,0.03151662387668098
0.9119999999999999,0.0061,-1.264,0.005390736109261898,0.9764384764148513,0.00206960429792053,0.03190595737111282
0.9129999999999998,0.0024,-0.264,0.005440053838860983,0.9737777652091864,0.002143282875965288,0.03169624419256212
0.9139999999999999,-0.0037,-0.264,0.005436475383365709,0.9661428974139157,0.00213793681655356,0.031094475616644662
0.9149999999999998,-0.0004,-2.264,0.0054420976141164356,0.9661428974139157,0.002146336188757441,0.031094475616644662
0.9159999999999999,0.0021,-0.264,0.005509049047029803,0.968824576706699,0.0022463587651253424,0.03130584146767946
0.9169999999999998,-0.0004,0.736,0.00548476883642535,0.9843774605536393,0.0022100851692703426,0.03253169593103773
0.9179999999999999,0.005,0.736,0.005484688644303842,0.981738265852194,0.0022099653656716942,0.032323678650366366
0.9189999999999998,-0.0033,1.736,0.005497018277654854,0.979091957086215,0.002228385310395441,0.0321151006500338
0.9199999999999999,-0.0,0.736,0.0052480447684907965,0.9790919570862149,0.001856429539617991,0.032115100650033784
0.9209999999999998,0.0025,-1.264,0.005243445279888157,0.9790919570862149,0.0018495581004270467,0.032115100650033784
0.9219999999999999,-0.0058,-0.264,0.005248390976794047,0.9741657891991649,0.0018569467600111063,0.031726827648639225
0.9229999999999998,0.0018,0.736,0.0053126282462718595,0.979091957086215,0.0019529144923272148,0.0321151006500338
0.9239999999999999,-0.0048,0.736,0.005338828014644058,0.979091957086215,0.0019920558253621696,0.0321151006500338
0.9249999999999998,0.0014,0.736,0.005323747348409414,0.9790919570862149,0.0019695259552086016,0.032115100650033784
0.9259999999999999,0.0007,0.736,0.005345516876479476,0.981738265852194,0.0020020486987725582,0.032323678650366366
0.9269999999999998,-0.0029,-1.264,0.005352502567034995,0.9970897387164258,0.0020124850215914596,0.033533658208816174
0.9279999999999999,-0.0022,-0.264,0.0053523368732602454,0.9896347352741559,0.002012237482180914,0.03294606626548306
0.9289999999999998,0.0057,0.736,0.00536614361412409,0.992252927165603,0.0020328641623332676,0.033152428136866176
0.9299999999999999,0.0025,-1.264,0.005369449739848633,0.992252927165603,0.002037803372718695,0.033152428136866176
0.9309999999999998,0.0018,-0.264,0.005370072972513155,0.992252927165603,0.002038734455655527,0.033152428136866176
0.9319999999999999,0.0043,-1.264,0.005376380768958592,0.9948642287650441,0.0020481580336765277,0.033358246925995705
0.9329999999999998,0.0097,-2.264,0.005464707977578153,0.9948642287650441,0.002180115104422801,0.033358246925995705
0.9339999999999999,-0.0015,0.736,0.005520480300328322,0.9948642287650441,0.0022634365684863454,0.033358246925995705
0.9349999999999998,-0.0163,-0.264,0.005592623713326561,0.9974686941873537,0.0023712157409708926,0.03356352689812311
0.9359999999999999,-0.0065,-1.264,0.005575128270794811,1.0048655799042308,0.0023450782983415993,0.03414653809143107
0.9369999999999998,-0.0047,0.736,0.005625674736741717,1.0122084130596363,0.00242059255592058,0.03472528894470255
0.938,0.0,-2.2639999999996667,0.005924842135955645,1.0147683645425027,0.0028675358509712076,0.034927060396359726
0.9389999999999998,-0.0043,0.735999999999889,0.00591083249455666,1.0173218742776666,0.0028466060461001144,0.035128324119337716
0.94,-0.0079,-0.26400000000011103,0.005849134923302096,0.9926337291765486,0.002754432514272814,0.033182442367626686
0.9409999999999998,-0.0068,-1.263999999999778,0.005629958241488317,0.9749413738817837,0.0024269919287494405,0.03178795804440745
0.942,0.0009,0.736,0.005625229123006921,0.9699941272614063,0.002419926828065631,0.03139802364956421
0.9429999999999998,-0.0016,0.7359999999997779,0.005629852797219374,0.962329241543234,0.0024268343995228958,0.03079388910697897
0.944,0.0028,-1.263999999999889,0.005640154928487252,0.9623292415432338,0.0024422253428777125,0.030793889106978962
0.9449999999999998,0.0007,-0.263999999999889,0.005637151859817543,0.9673156903069745,0.0024377388867664186,0.03118691335466801
0.946,0.0058,0.735999999999889,0.005614363968457034,0.9596294112424948,0.002403694752015498,0.030581092621321287
0.9469999999999998,0.0065,-0.264,0.005616125706683569,0.9596294112424948,0.0024063267135529284,0.030581092621321287
0.948,0.0069,-0.263999999999889,0.005640278962738217,0.9673156903069745,0.0024424106447420565,0.03118691335466801
0.9489999999999998,0.0084,0.735999999999889,0.00568507496093064,0.9646298163059756,0.0025093339495199504,0.030975216883161842
0.95,0.0005,-0.26400000000011103,0.005702074090809004,0.9722765657460543,0.0025347299222789905,0.03157792195210936
0.9509999999999998,0.0016,-1.263999999999889,0.005647144979330638,0.9798636426010422,0.00245266817978014,0.032175923719373827
0.952,-0.0075,-0.26399999999966695,0.005666732668393282,0.9798636426010411,0.0024819313492133346,0.032175923719373736
0.9529999999999998,-0.0085,2.735999999999556,0.005620946848900728,0.9952440316357078,0.0024135292937608878,0.03338818240605081
0.954,-0.0009,-1.263999999999889,0.005656156934227492,0.995244031635708,0.0024661316548346772,0.03338818240605082
0.9549999999999998,-0.0016,-0.264,0.0056807995308935716,0.9877750982455756,0.0025029466399616677,0.0327994925255808
0.956,-0.0059,-0.263999999999889,0.005686463803871795,0.9851450058273138,0.002511408821454722,0.0325921926729168
0.9569999999999999,0.0018,0.7359999999997779,0.0056805755323899,0.9851450058273137,0.002502611995780582,0.03259219267291679
0.958,0.0043,-1.263999999999889,0.005601649254638158,0.9851450058273137,0.0023846995135477847,0.03259219267291679
0.9589999999999999,0.0,-0.26400000000011103,0.005571010258095336,0.9851450058273137,0.002338926163550844,0.03259219267291679
0.96,-0.0021,-1.264,0.005572273882322963,0.9900165443523534,0.002340813964084877,0.0329761598717406
0.9609999999999999,0.0062,-1.264,0.005434505708562949,0.9900165443523533,0.002134994206667467,0.032976159871740594
0.962,-0.0082,-0.264,0.005425125608618541,0.9900165443523533,0.002120980738662352,0.032976159871740594
0.9629999999999999,0.0016,-0.264,0.005394539429435233,0.9851450058273109,0.002075286295540823,0.032592192672916576
0.964,-0.0038,-0.264,0.005390690985115284,0.9926337291765447,0.0020695368843760484,0.03318244236762638
0.9649999999999999,0.011,0.736,0.005389844829065704,1.000066376842745,0.002068272763439342,0.03376827226295949
0.966,0.0013,1.736,0.0054040798856956574,0.9775989181223815,0.0020895393290214907,0.031997421607626295
0.9669999999999999,-0.0006,-0.264,0.005417240268664193,0.980249257547084,0.002109200378131589,0.032206317298300736
0.968,-0.0053,-0.264,0.00543692536231492,0.9802492575470824,0.0021386090658520873,0.032206317298300605
0.9689999999999999,0.0024,1.736,0.005418275196558511,0.9775989181223799,0.0021107465161280476,0.03199742160762616
0.97,0.0035,0.736,0.005408490712990437,0.9646298163059698,0.0020961289162900495,0.030975216883161388
0.9709999999999999,0.0071,0.736,0.005423731766377056,0.9646298163059698,0.0021188983979867734,0.030975216883161388
0.972,0.0082,-1.264,0.0055754154406101085,0.9596294112424872,0.0023455073177595744,0.030581092621320694
0.9729999999999999,0.0057,0.736,0.0055459128082837065,0.9596294112424872,0.00230143164728453,0.030581092621320694
0.974,-0.0005,-1.264,0.005627738444425159,0.956921963753599,0.0024236756469073737,0.0303676957605697
0.9749999999999999,0.005,0.736,0.005609452653784117,0.9542068342379894,0.002396357458016514,0.030153693414248534
0.976,0.0042,1.736,0.005641090712439838,0.9673156903069671,0.00244362336406693,0.031186913354667424
0.9769999999999999,0.0006,-0.264,0.005648388454102152,0.9673156903069671,0.0024545258778888015,0.031186913354667424
0.978,-0.0045,0.736,0.005641607139870346,0.9623292415432264,0.002444394884553629,0.030793889106978375
0.9789999999999999,0.0046,0.736,0.005640132093209734,0.965021518587394,0.00244219122795007,0.031006090256531692
0.98,0.001,-0.264,0.0056724770574825886,0.965021518587394,0.0024905132207487138,0.031006090256531692
0.9809999999999999,0.0046,0.736,0.005680459685836295,0.9600231537581982,0.0025024389259857976,0.030612126802829945
0.982,-0.0099,0.736,0.005825240977021619,0.9627218798590773,0.002718735980792163,0.03082483625714731
0.9829999999999999,-0.0081,0.736,0.005849167895850237,0.9627218798590773,0.002754481773849061,0.03082483625714731
0.9839999999999998,-0.0099,0.736,0.0058559592122214114,0.9526747959244172,0.002764627709952525,0.030032940502877834
0.9850000000000001,-0.0020000000000034196,-1.264,0.005953585041963327,0.949947527278255,0.0029104765228297,0.029817981368894932
0.986,-0.0097,-1.264,0.005727620514621053,0.949947527278255,0.0025728951864933325,0.029817981368894932
0.9869999999999999,-0.0187,0.736,0.006017901109199771,0.949947527278255,0.003006561975625974,0.029817981368894932
0.9879999999999998,-0.01,0.736,0.00663218166971622,0.9631143581058429,0.003924270852074925,0.03085577079091632
0.9890000000000001,-0.00460000000000111,-0.264,0.006934828960855242,0.9397638817343005,0.004376412956780309,0.02901532203792004
0.99,-0.0071,-1.264,0.007049530617741423,0.9397638817343015,0.004547772324850417,0.029015322037920118
0.9909999999999999,-0.0009,0.736,0.007038109709943575,0.9397638817343011,0.0045307099772248,0.029015322037920094
0.9919999999999998,0.0046,-0.264,0.007012116100894036,0.9346304498717363,0.004491876637397718,0.02861071280769629
0.9930000000000001,0.003799999999999689,-1.264,0.0070125809890819926,0.9318503719052139,0.0044925711604610645,0.028391591324035504
0.994,0.0031,-1.264,0.007071422000208929,0.929061975011533,0.00458047711367082,0.028171814155288397
0.9949999999999999,-0.0009,-0.264,0.007067625445718786,0.9238690804586168,0.004574805223691756,0.02776251816696315
0.9959999999999998,0.0028,-0.264,0.007067445283148204,0.9238690804586172,0.00457453606851926,0.02776251816696318
0.9970000000000001,0.005300000000000977,-1.264,0.007043455444165248,0.9374022829260718,0.004538696275443714,0.028829184440017364
0.998,0.0075,-0.264,0.0070231484495225545,0.940165943992107,0.004508358494248208,0.029047011968747687
0.9989999999999999,0.0046,-1.264,0.007025152009366695,0.9401659439921073,0.004511351726936409,0.029047011968747715
0.9999999999999998,0.001,-1.264,0.0069744631750080915,0.9374022829260729,0.004435624777041345,0.028829184440017454
1.0010000000000001,0.006099999999997736,-0.2639999999995559,0.006986083633478279,0.9401659439921078,0.004452985244833996,0.029047011968747757
1.002,0.001,1.736,0.00698431994698378,0.9350347194931807,0.0044503503726675804,0.02864257671954215
1.003,-0.007,-0.264,0.006950120543684513,0.9350347194931815,0.004399257927302537,0.028642576719542213
1.0039999999999998,0.0053,-0.264,0.006907976948264688,0.8966113997951399,0.004336297198788305,0.025614109561141074
1.0050000000000001,-0.002599999999999378,-0.264,0.006908215277421225,0.9052507325958253,0.004336653252351659,0.026295048529012374
1.006,-0.0012,-0.264,0.006906528152453716,0.9133947266421676,0.004334132759831009,0.0269369456555852
1.007,-0.0001,-1.264,0.006903036623395176,0.9162308054553062,0.004328916564796761,0.027160481040130992
1.0079999999999998,0.0035,-1.264,0.0069427203842293075,0.9133947266421697,0.00438820240567986,0.026936945655585368
1.0090000000000001,-0.0018999999999979127,-1.263999999999778,0.006930708089649648,0.9133947266421711,0.004370256551503708,0.02693694565558548
1.01,0.0028,-0.264,0.006933999858382797,0.9298751803725289,0.004375174313158233,0.028235909755256493
1.011,-0.0034,0.736,0.006931704444186837,0.9246868526630841,0.0043717450625549124,0.02782697371853302
1.0119999999999998,0.0021,0.736,0.006916578662516671,0.9166431899575314,0.0043491477918708625,0.027192984554440455
1.0130000000000001,0.001300000000000977,-1.264,0.006900482589997955,0.919469249025261,0.0043251009481713445,0.02741573019801266
1.014,0.0035,-1.264,0.006899177258013622,0.919469249025261,0.004323150838033188,0.02741573019801266
1.015,0.0039,0.736,0.006891915448346013,0.919469249025261,0.004312302005074117,0.02741573019801266
1.0159999999999998,0.0043,0.736,0.006826283033895392,0.9166431899575314,0.004214249985857569,0.027192984554440455
1.0170000000000001,0.0045999999999969355,0.7359999999997779,0.006828973064248929,0.8999204483066277,0.0042182687761173196,0.025874923692282052
1.018,-0.0023,-0.264,0.006828760234009768,0.9081122458555677,0.004217950816845597,0.026520588617650286
1.019,0.0002,0.736,0.006823060367335511,0.9109647706033432,0.0042094354598934845,0.02674542024555372
1.0199999999999998,-0.0041,0.736,0.006822802512167258,0.9109647706033432,0.004209050235304015,0.02674542024555372
1.0210000000000001,-0.013199999999993871,0.7359999999997779,0.006820512881570294,0.9162308054553092,0.004205629625150153,0.02716048104013123
1.022,0.0006,-0.264,0.006783756941047697,0.9133947266421709,0.004150717822550608,0.02693694565558546
1.023,0.0097,-0.264,0.006738072021279312,0.9133947266421709,0.004082466506969244,0.02693694565558546
1.0239999999999998,-0.0015,-0.264,0.00671444932968443,0.9105498143705085,0.004047175216383697,0.026712714031379887
1.0250000000000001,0.006099999999995959,1.736,0.0067304643953195785,0.9190581325862054,0.004071101039264909,0.027383326630498372
1.026,-0.003,0.736,0.0067116768117762285,0.9162308054553091,0.004043033193246368,0.027160481040131218
1.027,0.0007,0.736,0.00669909395775943,0.902380145314449,0.004024234947681558,0.026068793239899097
1.0279999999999998,0.0017,0.736,0.0067053427103085,0.902380145314449,0.00403357031664748,0.026068793239899097
1.0290000000000001,0.008299999999998047,0.736,0.006692071429897869,0.9076959855825126,0.004013743591503452,0.026487779621025286
1.03,0.0039,0.736,0.0066773273805221306,0.912980874842125,0.003991716612535502,0.026904326491111026
1.031,0.013,0.736,0.006677536089697609,0.912980874842125,0.003992028415114395,0.026904326491111026
1.0319999999999998,0.0068,-1.264,0.006674416630641812,0.912980874842125,0.003987368076745853,0.026904326491111026
1.0329999999999997,0.0101,1.736,0.006638816905810711,0.912980874842125,0.003934183610922656,0.026904326491111026
1.034,0.0108,-0.264,0.006590878141183121,0.9129808748421251,0.0038625651475486097,0.026904326491111033
1.035,0.0007,-0.264,0.006598545911428579,0.9129808748421251,0.0038740204682426453,0.026904326491111033
1.0359999999999998,-0.0196,-1.264,0.006596154993230586,0.9129808748421251,0.0038704485387462653,0.026904326491111033
1.0369999999999997,-0.0283,1.736,0.006559945620929325,0.9076959855825126,0.003816353285685392,0.026487779621025286
1.038,-0.0203,0.736,0.00629248234483401,0.9048331559105527,0.0034167745941662843,0.02626213577479435
