time_sec,bts_raw,diy_raw,bts_rms,diy_rms,bts_norm_rms,diy_norm_rms
0.0,-0.0195,-0.474,0.025072014032627564,0.8007290080767461,0.10200407801838361,0.008570778403278594
0.001000000000000112,-0.0307,-1.474,0.02497083039779919,0.8026272853621986,0.1015345801873432,0.008731807438458333
0.0020000000000000018,-0.0045,-0.474,0.024779022460924064,0.8045210836517678,0.10064458043103919,0.008892456524727971
0.0030000000000001137,-0.0008,0.526,0.024628735077374633,0.8193482666814453,0.09994723840800475,0.010150232191117601
0.0040000000000000036,-0.0171,-0.474,0.024620905958306342,0.8205738258711762,0.0999109108494252,0.010254195197676456
0.0050000000000001155,-0.0083,1.526,0.024645940490743534,0.8217975573678898,0.10002707250639975,0.010358003162795669
0.006000000000000005,-0.0108,-0.474,0.02460378554607331,0.8236472789538933,0.09983147116114398,0.010514913264722252
0.007000000000000117,-0.0176,-0.474,0.024563907126984842,0.8254928557900881,0.09964643302430383,0.010671471771511567
0.008000000000000007,-0.0154,-0.474,0.024673689270179332,0.864031050527411,0.10015582842410545,0.013940629741044213
0.009000000000000119,-0.0096,-0.47399999999999826,0.024716117227017012,0.8657905469037093,0.10035269656137444,0.014089886125266293
0.010000000000000009,-0.0005,0.526,0.024726525782534592,0.86695045573481,0.1004009928520548,0.014188280075085949
0.01100000000000012,0.0144,0.526,0.024719551216543824,0.868108814774833,0.10036863046844734,0.014286542557620038
0.01200000000000001,0.0007,1.526,0.024699523227792605,0.8698600629538569,0.10027569945944823,0.014435099255205582
0.013000000000000123,0.0097,0.5259999999999982,0.024703714740204746,0.8710145525265686,0.10029514831587265,0.014533033494551713
0.014000000000000012,0.0113,-0.474,0.024673071885246707,0.8721675139008731,0.10015296372283952,0.014630838098297738
0.015000000000000124,0.0251,-0.474,0.02464695530098354,0.9058799078312183,0.10003178128373719,0.017490628029834837
0.016000000000000014,0.0197,0.526,0.02466074337438042,0.9069885495436353,0.10009575872994222,0.01758467303931719
0.017000000000000126,-0.0048,0.526,0.02477194856491234,0.9184793178688816,0.10061175715047467,0.018559423857371252
0.018000000000000016,-0.0011,1.5259999999999931,0.024867637454557032,0.9505506259327553,0.10105575905077258,0.02128000205427391
0.019000000000000128,-0.0108,-0.474,0.024891834677321027,0.9516072267759023,0.10116803554315365,0.0213696324869014
0.020000000000000018,-0.0078,0.526,0.024919023679541994,0.9532050822800129,0.10129419406268646,0.021505177031502655
0.02100000000000013,-0.0053,-0.474,0.025020384590585146,0.9542587439868794,0.10176451446546463,0.021594558140028166
0.02200000000000002,0.0016,-1.474,0.024939071768405253,0.9558521670780158,0.10138721833735075,0.021729726687302674
0.02300000000000013,0.0129,0.526,0.024263173579137903,0.9569029140402435,0.09825101222651657,0.021818860540845697
0.02400000000000002,0.0031,1.526,0.023456141597757944,0.9584919414011952,0.09450633784828516,0.021953656202559183
0.025000000000000133,0.0013,0.526,0.023328876993748405,0.9600783387637463,0.09391582283415227,0.022088228764039514
0.026000000000000023,0.0061,0.5259999999999896,0.02336705958727048,0.9725367986030292,0.09409299224373632,0.023145067921901
0.027000000000000135,-0.0105,-2.474,0.023348027653545773,0.9735695384655375,0.09400468298681537,0.023232674250505264
0.028000000000000025,-0.0308,0.526,0.023275848750642533,0.9746011839819252,0.09366976876459526,0.02332018774678134
0.029000000000000137,-0.0332,-0.474,0.023261453662325217,0.9756317386237191,0.09360297473457176,0.02340760870521551
0.030000000000000027,-0.0212,1.526,0.023182527578174423,1.008448556310617,0.09323675320690906,0.0261914277659439
0.03100000000000014,-0.0099,2.526,0.022522926995879284,1.0187956218371703,0.0901761689210625,0.027069159376310405
0.03200000000000003,-0.0079,0.526,0.020296781444908877,1.0197815161423338,0.07984672671893502,0.02715279184137034
0.03300000000000014,0.0161,-0.474,0.018923774967960126,1.0212727135774653,0.07347589843207546,0.027279288684630244
0.03400000000000003,0.0459,0.526,0.018254906354418805,1.0227617368332675,0.07037230995315481,0.027405601094350127
0.03500000000000014,0.0499,-0.474,0.017211536564514494,1.023743811664409,0.06553101467685787,0.027488909557104726
0.03600000000000003,0.0463,-0.47399999999999304,0.016764906566735273,1.0339378222459954,0.06345862603821484,0.028353657663793237
0.037000000000000144,0.01,0.526,0.01674635232182174,1.0649594459817786,0.06337253328459641,0.030985192149384028
0.038000000000000034,-0.0042,2.526,0.017114126746140018,1.0663874701149385,0.06507902756919536,0.031106330062237102
0.039000000000000146,-0.0087,0.526,0.01712068181237703,1.0761776176671571,0.06510944345004233,0.03193681885683131
0.040000000000000036,0.0032,0.526,0.01697569407629412,1.1060151292287028,0.06443669209322611,0.034467906246298
0.04100000000000015,-0.0222,-0.474,0.01660520757913169,1.1073902116756797,0.06271761363609658,0.03458455316686446
0.04200000000000004,-0.0125,2.526,0.016354324097512085,1.1087635887543517,0.06155349998605758,0.03470105542267888
0.04300000000000015,0.0022999999999982015,2.5259999999999723,0.016299731678749867,1.1101352667939848,0.061300188052328515,0.03481741355064684
0.04400000000000004,-0.0058,-1.474,0.01627883994465862,1.1115052520847908,0.06120324921573551,0.034933628084360936
0.04500000000000015,-0.008000000000002488,-0.474,0.01623342877176181,1.1404188382901699,0.06099253878596871,0.037386339775070776
0.04600000000000004,-0.0192,-1.474,0.016244736316671997,1.1495786859004997,0.06104500643865514,0.038163360832209545
0.04700000000000015,-0.009399999999998779,-0.474,0.016494522973162312,1.1509017203519345,0.06220403075759721,0.03827559257140633
0.04800000000000004,-0.0039,-1.474,0.016603257786831308,1.152223235636812,0.06270856648872376,0.03838769544116615
0.049000000000000155,0.007299999999997669,-1.474,0.016576490073751098,1.1530950552024475,0.06258436277480908,0.03846165105586004
0.050000000000000044,-0.0032,-0.474,0.01655993363119031,1.1539662161100326,0.06250753993794204,0.038535550797225426
0.051000000000000156,0.0059000000000008,-0.4740000000000069,0.016443981863949294,1.1539662161100326,0.06196951713101977,0.038535550797225426
0.052000000000000046,0.0095,-1.4739999999999862,0.016203034214191257,1.144816244941499,0.06085150630696149,0.03775936754913892
0.05300000000000016,-0.0028000000000033085,0.526,0.016328827550928578,1.1448162449414991,0.061435194557118586,0.03775936754913894
0.05400000000000005,-0.0177,0.526,0.016343330880115914,1.1544140596703842,0.061502490830946555,0.03857354093543524
0.05500000000000016,-0.007899999999995494,-0.474,0.016253792679695005,1.153966216110032,0.061087028479112855,0.03853555079722537
0.05600000000000005,0.0124,-0.474,0.016244633299265215,1.1461699762277884,0.06104452843201775,0.037874203271293094
0.05700000000000016,0.031299999999996296,-2.474,0.0162094330359187,1.155309225985563,0.06088119720438127,0.038649477032423454
0.05800000000000005,0.0146,-0.474,0.01611377453434958,1.1548617295615995,0.06043733630648551,0.03861151634145935
0.05900000000000016,0.012399999999998733,0.526,0.01605867474864801,1.1639327333000653,0.060181670161248126,0.03938100085845326
0.06000000000000005,0.0067,0.526,0.01604383718340124,1.1639327333000653,0.06011282301305963,0.03938100085845326
0.061000000000000165,0.004899999999996713,-0.474,0.016043746813866024,1.1643767435365209,0.06011240369326698,0.03941866581948624
0.062000000000000055,-0.0099,0.526,0.01597984439487522,1.16482058452367,0.05981589282799408,0.03945631642326346
0.06300000000000017,-0.008099999999999578,0.526,0.015982651515937706,1.1566506764669342,0.05982891802967359,0.03876327098571574
0.06400000000000006,-0.0062,2.526,0.015974308232443144,1.1566506764669344,0.05979020471885909,0.038763270985715755
0.06500000000000017,-0.014200000000003044,0.526,0.01593787043952147,1.1562036992373208,0.05962113128347952,0.03872535433750868
0.06600000000000006,-0.0279,1.526,0.01574085676815092,1.1562036992373208,0.05870697662249432,0.03872535433750868
0.06700000000000017,-0.022399999999997512,2.526,0.01562032513228691,1.1566506764669344,0.058147702964200756,0.038763270985715755
0.06800000000000006,-0.0112,0.526,0.015612979726580484,1.1570974810329373,0.05811361986318222,0.038801172987034914
0.06900000000000017,0.011700000000003619,-0.474,0.015650812081359884,1.1488726534538631,0.05828916414504368,0.03810346877926303
0.07000000000000006,0.028,0.526,0.015711258296595768,1.1484226489462703,0.05856963802795948,0.0380652953299785
0.07100000000000017,0.019299999999997024,-0.4739999999999861,0.015692060673352194,1.1488726534538634,0.05848055996223001,0.03810346877926305
0.07200000000000006,0.0059,0.5259999999999861,0.015702467218703272,1.1579905729734905,0.058528846925623275,0.038876933116820056
0.07300000000000018,-0.006099999999996536,-0.474,0.01570316933438511,1.1755747361766602,0.058532104782393506,0.04036858075794665
0.07400000000000007,0.0095,-0.474,0.015655559599085867,1.176014350923566,0.05831119289780549,0.04040587285383145
0.07500000000000018,0.019599999999996936,-1.474,0.015662054396541267,1.1679227486522934,0.05834132912807166,0.03971947002070131
0.07600000000000007,0.0058,0.526,0.01567692337879078,1.1773322102542816,0.05841032205294301,0.04051766559251828
0.07700000000000018,0.003999999999998224,0.526,0.015685899015492128,1.1777711690067745,0.058451969518668455,0.04055490204102837
0.07800000000000007,-0.004,0.526,0.015693504782276376,1.1588829766538882,0.05848726070992345,0.03895263486215861
0.07900000000000018,-0.0055000000000014655,-2.474,0.015410162000810489,1.159328920893259,0.05717253405906897,0.03899046388279756
0.08000000000000007,-0.0121,1.526,0.015048914010891961,1.1588829766538882,0.055496322801960665,0.03895263486215861
0.08100000000000018,-0.020800000000003708,0.526,0.014932569943609092,1.1506709116074536,0.054956479700490966,0.038256013287747595
0.08200000000000007,-0.0375,-0.474,0.014941806091498665,1.1349796120569462,0.054999335952973676,0.03692493544854135
0.08299999999999996,-0.0255,-0.474,0.015129601222873296,1.1354349444271512,0.05587071606310601,0.03696356085528362
0.08400000000000007,-0.0008,0.526,0.01509506921835274,1.1349796120569462,0.055710485594499315,0.03692493544854135
0.08499999999999996,0.0026,1.526,0.014388906563161255,1.1349796120569462,0.0524338506373099,0.03692493544854135
0.08600000000000008,0.0175,-2.4739999999999727,0.013502135082994906,1.1428521922375754,0.048319180441158335,0.03759275884851404
0.08699999999999997,0.0363,-0.4739999999999722,0.012723079543852028,1.1423998162031017,0.0447043183490028,0.03755438422488662
0.08800000000000008,0.0095,1.526,0.012755190329968854,1.1428521922375754,0.04485331422625532,0.03759275884851404
0.08899999999999997,0.0058,-2.474,0.012963539193450132,1.1176817583848668,0.04582006482451278,0.03545757516938635
0.09000000000000008,0.0089,-0.474,0.013086657024289565,1.118144134835773,0.04639133857485352,0.03549679811871512
0.09099999999999997,0.006,-0.474,0.01308338988074755,1.1692497280493948,0.046376178842656955,0.03983203640584229
0.09200000000000008,0.0034,-0.474,0.013207357291013187,1.1688075689788426,0.04695139468994426,0.03979452847743129
0.09299999999999997,-0.0086,-0.474,0.01317598247368948,1.143756407538308,0.046805813749827264,0.03766946256223783
0.09400000000000008,-0.0064,-2.474,0.013207843080005024,1.118144134835774,0.04695364877854661,0.035496798118715193
0.09499999999999997,-0.0083,1.526,0.013194875800867614,1.1082322499300123,0.04689347986447433,0.03465598246158274
0.09600000000000009,-0.0286,-0.474,0.01317426090980809,1.1082322499300123,0.04679782559532302,0.03465598246158274
0.09699999999999998,-0.0207,-0.474,0.013045857933764105,1.0987014728958842,0.046202028470085935,0.033847495818414064
0.09800000000000009,-0.004,0.526,0.013073937130160333,1.098230910738827,0.046332317541315164,0.033807578483510625
0.09899999999999998,-0.0019,0.526,0.013731262041718888,1.0968180129712393,0.04938234258527641,0.03368772372569107
0.10000000000000009,0.0,-0.474,0.01404214755257273,1.0867116301464128,0.050824869069873886,0.032830408997273554
0.10099999999999998,0.0127,-0.474,0.014171256910567845,1.0862358739491722,0.05142394384761381,0.03279005105694021
0.10200000000000009,0.0208,-0.47400000000001385,0.014251175675296976,1.112118246469352,0.051794771469722854,0.03498562780804353
0.10299999999999998,0.007,-1.4739999999999722,0.014281605945275434,1.1107230142596356,0.05193596965633765,0.03486727160249648
0.10400000000000009,0.0017,0.5259999999999861,0.014289861752306132,1.1107230142596356,0.051974277071375426,0.03486727160249648
0.10499999999999998,0.0064,-0.474,0.014352357816568772,1.119228225682617,0.052264262370575645,0.03558876050189922
0.1060000000000001,0.002,-1.474,0.014615561013695417,1.119228225682617,0.05348554020254387,0.03558876050189922
0.10699999999999998,-0.0016,0.526,0.014639801072238497,1.118766297277187,0.053598015455380676,0.035549575559836996
0.1080000000000001,-0.0078,-1.474,0.014362864918673793,1.090200278939265,0.052313015923036915,0.03312634771681633
0.10899999999999999,-0.0067,-0.474,0.014290285351199989,1.090200278939265,0.05197624259437956,0.03312634771681633
0.1100000000000001,-0.0001,-0.474,0.014239233502392533,1.0902002789392653,0.051739359106982026,0.03312634771681635
0.11099999999999999,-0.0009,-0.474,0.01423831523059115,1.0906743058496442,0.05173509827350054,0.03316655896340952
0.1120000000000001,-0.003,0.526,0.014238400166519586,1.100274617848633,0.05173549238104813,0.03398094419072528
0.11299999999999999,0.0082,0.526,0.014206142071487751,1.1007443063324502,0.051585812982036315,0.034020787412768635
0.1140000000000001,-0.0031,0.526,0.014290691524798721,1.1012137944852758,0.05197812726302142,0.03406061364092676
0.11499999999999999,-0.0016,-0.474,0.014281854597903394,1.0750689284360861,0.0519371234186996,0.03184276981638727
0.1160000000000001,-0.0027,-0.474,0.014307814969308394,1.0750689284360861,0.05205758102123903,0.03184276981638727
0.11699999999999999,0.0009,-0.474,0.014035704836158212,1.066696202004778,0.05079497449860497,0.03113251949132161
0.1180000000000001,0.011,0.526,0.013855284157677448,1.0391863999562938,0.04995781227009602,0.028798889459607378
0.119,0.0176,0.5259999999999861,0.013813774073690867,1.0391863999562938,0.04976520311515647,0.028798889459607378
0.1200000000000001,0.0013,-0.474,0.01379647021928807,1.0391863999562938,0.049684912244755026,0.028798889459607378
0.121,0.0079,-1.474,0.013637565225975829,1.0391863999562938,0.04894758402139032,0.028798889459607378
0.12200000000000011,0.0022,-2.474,0.013506722225645595,1.0386888757528747,0.048340465044432616,0.02875668496025994
0.123,0.004,-0.474,0.01350683022316002,1.0477789783019205,0.048340966159053235,0.02952778961097421
0.12400000000000011,0.0055,0.526,0.013534632377537478,1.0577686801058006,0.04846996973952954,0.030375206400681316
0.125,0.007,-1.474,0.013511554836767796,1.0577686801058004,0.04836288863540149,0.030375206400681296
0.1260000000000001,0.0081,-0.474,0.01337691591114884,1.0472855361027686,0.047738156348812545,0.02948593138412015
0.127,0.0117,1.526,0.013376915911148845,1.0472855361027686,0.047738156348812566,0.02948593138412015
0.1280000000000001,0.0085,-0.474,0.013417424640109274,1.0477789783019198,0.04792611915937362,0.029527789610974152
0.129,-0.0024,0.526,0.013504463036545511,1.0774702627430006,0.04832998227827978,0.032046472694544116
0.13000000000000012,-0.0101,0.526,0.01349454063110101,1.0774702627430006,0.048283941751639296,0.032046472694544116
0.131,-0.0112,-1.474,0.013445097145143898,1.0977601468722018,0.04805452115951177,0.03376764403777865
0.13200000000000012,-0.025,-0.474,0.013309662142538923,1.1077657363105171,0.04742609503034728,0.034616408560224264
0.133,-0.0123,0.526,0.012832994159664471,1.1077657363105171,0.0452143284293,0.034616408560224264
0.13400000000000012,-0.0043,0.526,0.01257593857585151,1.1077657363105171,0.04402157587339787,0.034616408560224264
0.135,0.0033,1.526,0.01257593857585151,1.1082322499300108,0.04402157587339787,0.03465598246158261
0.13600000000000012,0.0098,0.526,0.012573539868662168,1.1001119516974796,0.04401044573536114,0.03396714537767655
0.137,0.0135,-0.474,0.012455560668692859,1.0710485173621145,0.04346301552505662,0.03150172221431724
0.13800000000000012,0.0236,-0.474,0.01191822519553312,1.0705658005476506,0.04096974831225606,0.0314607738115239
0.139,0.02,-0.474,0.011918422904432313,1.0621575776620604,0.040970665692813754,0.030747512356404084
0.14000000000000012,0.0012,3.526,0.011913731479693863,1.032526577528265,0.040948897214710275,0.02823394313260216
0.14100000000000001,-0.0286,0.526,0.01195141136448252,1.0320258427291829,0.04112373402712696,0.028191466281514567
0.14200000000000013,-0.0086,0.526,0.011995452139681747,1.042166557370861,0.04132808573349181,0.029051693344913886
0.14300000000000002,0.0095,0.526,0.01202652958450744,1.042166557370861,0.041472286848273754,0.029051693344913886
0.14400000000000013,-0.0003,0.5259999999999723,0.01199558439680193,1.0507347652093406,0.04132869941406546,0.029778526169614166
0.14500000000000002,-0.0032,-0.474,0.012051088449730886,1.020772237248263,0.04158624138227304,0.02723683375929381
0.14600000000000013,-0.0058,-0.474,0.012052315910481297,1.0114394463229999,0.04159193687009558,0.026445142087193823
0.14700000000000002,-0.0127,0.526,0.011749488029527515,1.0114394463229999,0.0401867982473576,0.026445142087193823
0.14800000000000013,-0.0421,1.526,0.011569996099733656,1.0109282666622912,0.03935394546567593,0.02640177920854683
0.14900000000000002,-0.0302,0.526,0.011565430773300543,1.0109282666622912,0.039332762090894285,0.02640177920854683
0.15000000000000013,-0.0193,0.526,0.011564659146795692,1.0416704565556614,0.03932918169994455,0.029009609590219206
0.15100000000000002,-0.0161,2.526,0.01159255456944293,1.0517181815021703,0.03945861805050706,0.029861948427272723
0.15200000000000014,-0.0132,1.526,0.011523495045436033,1.0616708183535912,0.03913817792410799,0.030706221032734862
0.15300000000000002,0.0057,0.526,0.011429801619310337,1.0616708183535912,0.0387034350882396,0.030706221032734862
0.15400000000000014,0.0223,1.526,0.01141866377704983,1.0517181815021708,0.038651754865517335,0.029861948427272758
0.15500000000000003,0.0288,-0.474,0.011462627307246958,1.0517181815021703,0.03885574815067103,0.029861948427272723
0.15600000000000014,0.015,0.526,0.01150235033448196,1.06167081835359,0.03904006526045687,0.030706221032734748
0.15700000000000003,0.0132,0.526,0.011513097560027687,1.0602091995542782,0.03908993299936524,0.030582233316684283
0.15800000000000014,0.0019,-0.474,0.011573626236618662,1.0705658005476475,0.039370789507667314,0.03146077381152364
0.15900000000000003,-0.0025,0.526,0.011563723813206344,1.0602091995542775,0.03932484169879473,0.030582233316684228
0.16000000000000014,0.0065,-0.474,0.011645376670174436,1.05972154530243,0.039703715607701015,0.03054086607582954
0.16100000000000003,-0.0048,-1.474,0.01164548939483232,1.05972154530243,0.03970423865653664,0.03054086607582954
0.16200000000000014,0.0028,-0.474,0.01169177405929786,1.05972154530243,0.03991900213695384,0.03054086607582954
0.16300000000000003,0.0176,-0.474,0.011688527859106058,1.0602091995542775,0.039903939583095606,0.030582233316684228
0.16400000000000015,0.0038,-0.474,0.011660168445788604,1.060696629607577,0.03977235028938514,0.03062358153899187
0.16500000000000004,-0.0166,0.526,0.011663670197210962,1.0606966296075773,0.039788598615514446,0.030623581538991886
0.16600000000000015,-0.0032,-0.474,0.01174079266264981,1.0705658005476477,0.04014645124958363,0.03146077381152366
0.16700000000000004,-0.0011,0.526,0.01201214201292398,1.0789084978901233,0.04140552769632363,0.03216847679788434
0.16800000000000015,-0.00340000000000131,0.526,0.012431756754964208,1.0784292992951232,0.04335256400901026,0.0321278268422621
0.16900000000000004,-0.0093,-0.474,0.013208135703423444,1.0871871781514066,0.04695500656788174,0.03287074927685898
0.17000000000000015,-0.018499999999996734,0.526,0.013704455979974533,1.0871871781514066,0.049257960931375,0.03287074927685898
0.17100000000000004,-0.0038,0.526,0.014251816141710982,1.095403292789516,0.05179774327037758,0.03356771437423435
0.17200000000000015,-0.005799999999996336,1.5259999999999168,0.014796381638356167,1.085759909286009,0.054324558204116864,0.032749675432643295
0.17300000000000004,0.0107,-1.4739999999999722,0.014933967035436969,1.056301661879175,0.054962962286178516,0.030250760656408342
0.17400000000000015,-0.005099999999997868,-0.4739999999999722,0.014974065961505488,1.056301661879175,0.05514902358797057,0.030250760656408342
0.17500000000000004,0.0045,0.526,0.015148560412570115,1.056301661879175,0.055958687783592614,0.030250760656408342
0.17600000000000016,0.005800000000001198,0.526,0.016165735093449318,1.0462979535712353,0.06067843626141749,0.02940215570844205
0.17700000000000005,0.0112,-0.474,0.017596375775190663,1.0462979535712351,0.06731669054250781,0.02940215570844203
0.17800000000000016,0.015899999999996937,-2.474,0.018489851140308374,1.0376931117291175,0.07146246714682061,0.02867221525647054
0.17900000000000005,0.0021,-2.474,0.01906320170008148,1.0376931117291175,0.07412284641364443,0.02867221525647054
0.18000000000000016,0.0039000000000010433,-2.474,0.019559759256017707,1.0376931117291175,0.0764269017670049,0.02867221525647054
0.18100000000000005,0.0086,-1.474,0.020228187130805403,1.0482721882282113,0.07952844519299546,0.029569628134345022
0.18200000000000016,0.01289999999999727,-0.474,0.020682583444971505,1.0467918613022873,0.0816368699821978,0.029444053425919162
0.18300000000000005,0.0006,-0.474,0.02078837061963244,1.0462979535712353,0.08212772850037069,0.02940215570844205
0.18400000000000016,-0.000799999999999667,-0.474,0.020766849926713134,1.055322516772007,0.08202787125897745,0.030167700719318794
0.18500000000000005,0.0007,-0.474,0.020792791452677106,1.0558122028312398,0.0821482414175967,0.030209240316438513
0.18600000000000017,-0.0028999999999997556,0.526,0.02079345273528353,1.046791861302287,0.08215130980657034,0.029444053425919145
0.18700000000000006,-0.0018,0.526,0.020770899017630434,1.0472855361027658,0.08204665927155066,0.029485931384119902
0.18800000000000017,-0.009399999999998935,-0.474,0.020735675982665947,1.0558122028312387,0.08188322238230926,0.03020924031643842
0.18900000000000006,-0.0046,-0.474,0.020608827518698435,1.0558122028312387,0.081294638281683,0.03020924031643842
0.19000000000000017,-0.012899999999999755,0.526,0.02056794030952263,1.0558122028312382,0.08110491930135681,0.03020924031643838
0.19100000000000006,-0.0118,-1.474,0.020569070091302544,1.008368481325183,0.08111016155319051,0.026184635081995523
0.19200000000000017,-0.009199999999997757,-0.474,0.02050740240837667,1.0088809579783966,0.080824019990594,0.026228107983268457
0.19300000000000006,0.0009,1.526,0.0204915009505785,1.0088809579783966,0.08075023632034649,0.026228107983268457
0.19400000000000017,0.013299999999998955,-0.474,0.020536451514846392,1.0088809579783968,0.08095880949982966,0.026228107983268474
0.19500000000000006,0.0086,0.526,0.020733751098218588,1.0093931744433184,0.08187429080879373,0.02627155881301901
0.19600000000000017,0.010099999999998556,-0.474,0.02074714900923495,1.0088809579783968,0.08193645787932172,0.026228107983268474
0.19700000000000006,0.0036,0.526,0.020746256274805752,1.0088809579783968,0.0819323155407023,0.026228107983268474
0.19800000000000018,0.002499999999999778,0.526,0.02072104395722536,1.0088809579783968,0.0818153289505331,0.026228107983268474
0.19900000000000007,0.0015,-2.474,0.02029086155630809,0.9999541858775888,0.07981925809851251,0.02547085849728527
0.20000000000000018,0.008099999999998157,-1.474,0.020073002049707054,1.000470972640118,0.07880837757426357,0.025514697020983298
0.20100000000000007,-0.0002,-1.474,0.019979470694189,1.000470972640118,0.07837438675524941,0.025514697020983298
0.20200000000000018,-0.014599999999997802,-0.474,0.019927967279023375,0.9823834994852423,0.07813540797421975,0.023980354081050422
0.20300000000000007,-0.0047,-0.474,0.019886106091105613,0.9839607308144602,0.07794116967703364,0.024114149096744707
0.20400000000000018,-0.010100000000000288,0.5259999999999445,0.019882419105629545,0.9844859130664483,0.0779240618543405,0.02415869980173352
0.20500000000000007,-0.0114,-1.4739999999999167,0.01975774279591986,0.9860597815296668,0.07734555667323975,0.024292209548741565
0.20600000000000018,0.005400000000001466,1.5259999999999168,0.019576555203280166,0.9855354379772359,0.07650483591933466,0.024247729989829003
0.20700000000000007,0.012,-1.4739999999999445,0.01952008849669533,0.9855354379772359,0.07624282718331184,0.024247729989829003
0.20800000000000018,0.006300000000002021,0.526,0.019518092368975413,0.985535437977236,0.07623356503695221,0.02424772998982901
0.20900000000000007,0.0154,0.526,0.019535891560867793,0.985535437977236,0.07631615430152962,0.02424772998982901
0.20999999999999996,0.0006,-0.474,0.019571882730873767,0.985535437977236,0.07648315538113179,0.02424772998982901
0.21100000000000008,0.0105,-0.474,0.01957948147757787,0.985535437977236,0.07651841399881491,0.02424772998982901
0.21199999999999997,0.0014,-0.474,0.019622294261461486,0.9839607308144602,0.07671706775550446,0.024114149096744707
0.21300000000000008,0.0,-0.474,0.019620672251833733,0.9839607308144602,0.07670954153840968,0.024114149096744707
0.21399999999999997,-0.0042,0.526,0.01956841395731499,0.9945916312870717,0.07646706007416859,0.025015958152416123
0.21500000000000008,0.0136,-1.474,0.019568272023758302,0.9945916312870717,0.0764664014943782,0.025015958152416123
0.21599999999999997,0.0256,1.526,0.019518719216942156,0.9945916312870717,0.07623647364723565,0.025015958152416123
0.21700000000000008,0.0321,0.526,0.019521093696050512,0.9940717880439655,0.07624749136559608,0.024971860350412368
0.21799999999999997,0.046,1.526,0.019540855126784596,1.0227957436860122,0.07633918553020723,0.02740848586293949
0.21900000000000008,0.0406,0.526,0.019540811103178058,1.0320258427291784,0.07633898125816443,0.02819146628151419
0.21999999999999997,0.0392,1.526,0.01955126944784907,1.0320258427291784,0.07638750857335372,0.02819146628151419
0.22100000000000009,0.0406,-0.474,0.019505243075345575,1.0325265775282604,0.07617394358235786,0.028233943132601764
0.22199999999999998,0.0204,0.526,0.019623305000177116,1.0330270696083306,0.07672175764073681,0.028276399394069167
0.2230000000000001,0.0117,-0.474,0.019631418905116285,1.0238059971424904,0.07675940662198431,0.02749418469136165
0.22399999999999998,-0.0235,0.526,0.019677347063369904,1.0129714375549916,0.0769725158932645,0.026575099428980505
0.2250000000000001,-0.0568,-0.474,0.01969178564136462,1.0124610313789242,0.07703951171786919,0.026531802164291206
0.22599999999999998,-0.0699,-0.474,0.019714966414114455,1.0124610313789242,0.0771470718242673,0.026531802164291206
0.2270000000000001,-0.0579,-0.474,0.019707140150595666,1.0124610313789242,0.07711075751560015,0.026531802164291206
0.22799999999999998,-0.0471,-0.474,0.01969215479417413,1.0124610313789242,0.0770412246079396,0.026531802164291206
0.2290000000000001,-0.0438,0.526,0.0196410659220851,0.9904252455866959,0.07680416933040599,0.024662527663277523
0.22999999999999998,-0.0525,-1.474,0.01964905762006749,0.9585794597281767,0.07684125126441071,0.021961080298007397
0.2310000000000001,-0.0445,1.526,0.019736614464991094,0.9250801051199335,0.0772475200138394,0.019119362287130327
0.23199999999999998,-0.0326,0.526,0.01979182492604012,0.9136407432067352,0.07750369969899526,0.01814897222553559
0.2330000000000001,-0.0079,1.526,0.019869684482082768,0.9234023073204063,0.07786497247546545,0.018977036314547162
0.23399999999999999,-0.0112,-0.474,0.01997266001063014,0.9228423635287333,0.078342784795464,0.018929536821602172
0.2350000000000001,0.0037,0.5259999999999723,0.019987943699919058,0.932507609320478,0.07841370198462817,0.019749430320063672
0.236,0.0011,-0.47399999999994447,0.019997650208637786,0.9319531362677208,0.0784587407381593,0.019702394904635743
0.2370000000000001,-0.0058,1.5259999999999445,0.020023334111181852,0.9325076093204772,0.0785779155094308,0.0197494303200636
0.238,0.0055,-0.474,0.020026388405383826,0.9426222192369751,0.07859208760856144,0.020607442944749664
0.2390000000000001,0.0152,-0.47399999999994447,0.020029313072928136,0.9520866881311462,0.07860565823261441,0.02141030473222224
0.24,0.0025,1.526,0.020082730148557007,0.951543624052614,0.07885351650723377,0.02136423712909756
0.2410000000000001,0.0239,-0.474,0.020042130180531456,0.963069496432052,0.07866513034221174,0.022341965790283767
0.242,0.0032,0.526,0.020034724773014937,0.951543624052614,0.07863076882937547,0.02136423712909756
0.2430000000000001,0.0166,0.526,0.020071987014674497,0.951543624052614,0.07880366775387587,0.02136423712909756
0.244,0.0286,-0.474,0.020325887016147823,0.9420736993239361,0.07998177822791723,0.0205609125284346
0.2450000000000001,0.0082,0.526,0.02056967298331399,0.951543624052614,0.08111295900647637,0.02136423712909756
0.246,0.0056,-0.474,0.0206543083747415,0.9520866881311462,0.08150567204521897,0.02141030473222224
0.2470000000000001,0.0077,0.526,0.020662141234966968,0.9520866881311462,0.081542016962981,0.02141030473222224
0.248,-0.0036,-0.474,0.020662141234966958,0.9526294426259804,0.08154201696298094,0.021456346073659763
0.2490000000000001,0.0061,-0.474,0.020750303402879255,0.9531718880659658,0.08195109444556845,0.021502361198271903
0.25,0.0006,0.526,0.020952343460589502,0.9194755399004273,0.08288857182557298,0.01864393241352055
0.2510000000000001,-0.0074,-1.474,0.021274743634799947,0.9079655694098925,0.08438452700424984,0.017667552694265665
0.252,0.0031,-1.474,0.021359067853581316,0.8963078053841094,0.08477579618418374,0.016678635791655523
0.2530000000000001,0.0042,-0.474,0.021343363282260986,0.895730924302118,0.08470292607841198,0.016629699524673656
0.254,0.0006,-1.474,0.02141950564708189,0.9073960998331867,0.08505623098976783,0.017619245138144175
0.2550000000000001,0.0107,0.526,0.02146251890497145,0.9194755399004276,0.08525581495726796,0.01864393241352058
0.256,0.0016,0.526,0.021446674451317663,0.9079655694098943,0.08518229578949847,0.017667552694265815
0.2570000000000001,0.0129,0.526,0.021450072547367954,0.9291758079031568,0.08519806314879512,0.019466796812433716
0.258,0.0086,-0.474,0.02142871926102847,0.9177874965105669,0.08509898268347107,0.018500737317370015
0.2590000000000001,0.0122,0.526,0.021480343121134855,0.9177874965105669,0.0853385203358888,0.018500737317370015
0.26,0.0085,-0.474,0.02145549202423952,0.9177874965105669,0.08522320983028062,0.018500737317370015
0.2610000000000001,0.0139,1.526,0.021513064585972637,0.9177874965105669,0.08549034979720299,0.018500737317370015
0.262,-0.001,-0.474,0.02162965515613622,0.9177874965105669,0.08603133668608492,0.018500737317370015
0.2630000000000001,0.0102,-1.474,0.021670942873737577,0.9172241250151361,0.0862229140483266,0.01845294705561415
0.264,-0.0036,-0.474,0.02177281570557778,0.9166604072765606,0.08669560979277231,0.018405127422385557
0.2650000000000001,-0.0091,0.526,0.02181713124969942,0.9269479537854746,0.08690123644259347,0.019277810091768165
0.266,-0.0044,0.526,0.021830453895106034,0.9155319305112882,0.08696305427640359,0.018309399824459185
0.2670000000000001,-0.0088,2.526,0.0216871379886553,0.9172241250151361,0.08629806030434141,0.01845294705561415
0.268,0.0035,1.526,0.021452493581717465,0.9172241250151361,0.08520929688612722,0.01845294705561415
0.26900000000000013,0.0114,-0.474,0.021077067782131014,0.9073960998331907,0.0834672997843091,0.017619245138144515
0.27,0.0129,-0.474,0.020836059334626695,0.9073960998331906,0.08234900685524382,0.017619245138144505
0.27100000000000013,0.0219,-0.474,0.020594724522900728,0.8974604551038389,0.08122919957759389,0.01677641395804389
0.272,0.0082,0.526,0.02020560929495588,0.8968843154129955,0.07942368274817009,0.01672754058255958
0.27300000000000013,0.0172,0.526,0.0201243242804387,0.8968843154129955,0.07904651564919568,0.01672754058255958
0.274,0.0092,0.526,0.02021142327604943,0.8963078053841135,0.07945065995172441,0.01667863579165587
0.27500000000000013,0.0106,0.526,0.020073717162639716,0.8963078053841135,0.0788116957390182,0.01667863579165587
0.276,0.0015,0.526,0.019252698747655814,0.8963078053841135,0.07500212351191846,0.01667863579165587
0.27700000000000014,-0.008,-0.474,0.017936584937884765,0.9079655694098966,0.06889528044250381,0.017667552694266012
0.278,-0.007,1.526,0.016975122769252515,0.9073960998331906,0.06443404119600002,0.017619245138144505
0.27900000000000014,-0.0059,-0.474,0.01631405055529427,0.9068262726405394,0.06136662845538317,0.017570907245806545
0.28,-0.0189,0.526,0.015716523056019966,0.9068262726405394,0.05859406681167341,0.017570907245806545
0.28100000000000014,-0.017,-0.474,0.01481320466959411,0.9291758079031577,0.05440261802763611,0.019466796812433792
0.28200000000000003,-0.0217,1.5259999999999445,0.014131709518208331,0.9194755399004313,0.05124044169365789,0.01864393241352089
0.28300000000000014,-0.0202,0.5260000000000555,0.013749278513357483,0.9194755399004313,0.049465940040256846,0.01864393241352089
0.28400000000000003,-0.0078,1.5259999999999445,0.01372893264574793,0.9096718391584371,0.04937153405524235,0.01781229391488192
0.28500000000000014,-0.0062,0.5259999999999445,0.013782237106430506,0.9096718391584371,0.049618869790094104,0.01781229391488192
0.28600000000000003,-0.0105,-0.47399999999988895,0.013782779465254602,0.9217214554520239,0.04962138636594148,0.018834451268242323
0.28700000000000014,-0.0039,1.526,0.01379272045617851,0.9330617528770269,0.04966751313026541,0.019796437784645356
0.28800000000000003,-0.01,1.5259999999999445,0.013796716847520188,0.9234023073204092,0.04968605661380491,0.018977036314547408
0.28900000000000015,-0.0153,0.526,0.01379793176405828,0.9234023073204092,0.04969169389576752,0.018977036314547408
0.29000000000000004,-0.0022,-1.474,0.013731678359606564,0.9234023073204094,0.049384274323996995,0.018977036314547426
0.29100000000000015,0.0106,0.526,0.013741498015728063,0.9136407432067375,0.0494298380879241,0.018148972225535787
0.29200000000000004,0.0154,-0.474,0.013533560244784876,0.9136407432067375,0.04846499498246742,0.018148972225535787
0.29300000000000015,0.03210000000000048,-0.474,0.013540844855248977,0.9136407432067375,0.04849879599009747,0.018148972225535787
0.29400000000000004,0.0343,1.526,0.013439478921113992,0.9136407432067376,0.048028452279886974,0.018148972225535798
0.29500000000000015,0.020599999999998002,-0.474,0.013138317150772797,0.913074813148412,0.04663104450532627,0.018100964923351986
0.29600000000000004,0.0116,-0.474,0.013178737830446464,0.9136407432067369,0.04681859876217972,0.018148972225535742
0.29700000000000015,0.003599999999994937,-0.474,0.0131745741900368,0.9130748131484113,0.04679927923343492,0.01810096492335193
0.29800000000000004,-0.0192,-0.474,0.013164069611030501,0.9136407432067367,0.04675053738829549,0.01814897222553572
0.29900000000000015,-0.029000000000001934,0.526,0.013174226171686784,0.9136407432067364,0.04679766440846078,0.018148972225535694
0.30000000000000004,-0.0377,-0.474,0.013219025659326226,0.913074813148411,0.04700553658377961,0.0181009649233519
0.30100000000000016,-0.01889999999999849,-0.474,0.013259275838093549,0.913074813148411,0.04719229970671249,0.0181009649233519
0.30200000000000005,-0.0121,0.526,0.013390545682946012,0.9009095559063087,0.04780139926657491,0.01706899785962441
0.30300000000000016,-0.01859999999999962,-1.474,0.013488860124573517,0.899186659264497,0.04825758387767685,0.016922846195654408
0.30400000000000005,-0.0169,-1.474,0.013632070930648428,0.899186659264497,0.0489220901780066,0.016922846195654408
0.30500000000000016,-0.00789999999999969,-0.474,0.013668869339926955,0.8874135760500257,0.049092836893829865,0.01592414687725365
0.30600000000000005,-0.0065,2.526,0.01362780917070836,0.8874135760500257,0.04890231536904988,0.01592414687725365
0.30700000000000016,0.007200000000001998,-0.474,0.013629350869677388,0.8879958604629002,0.048909468940112076,0.015973541503594046
0.30800000000000005,0.0162,0.526,0.013648827319310735,0.8879958604629002,0.048999840776177604,0.015973541503594046
0.30900000000000016,0.011400000000000977,0.526,0.013939188908696052,0.8874135760500257,0.05034713509570945,0.01592414687725365
0.31000000000000005,0.0158,-0.474,0.014086408845655733,0.8874135760500257,0.05103024399178454,0.01592414687725365
0.31100000000000017,0.02479999999999749,-0.474,0.014136323751950416,0.9217214554520246,0.0512618520011399,0.01883445126824238
0.31200000000000006,0.0135,0.526,0.014198340669748934,0.9119418994230402,0.05154961403344485,0.01800486094237061
0.31300000000000017,0.021099999999998557,0.526,0.01430738330326004,0.9119418994230402,0.05205557806617836,0.01800486094237061
0.31400000000000006,0.0146,1.526,0.01436720831041558,0.9003356233549522,0.05233316950820498,0.017020311713658566
0.31500000000000017,0.015599999999997734,-0.474,0.01454023425833793,0.9003356233549522,0.05313601976557164,0.017020311713658566
0.31600000000000006,0.0054,-1.474,0.014523581320284886,0.9009095559063086,0.05305874918412222,0.0170689978596244
0.31700000000000017,-0.003700000000004197,0.526,0.014517026826324537,0.9130748131484112,0.05302833595867157,0.01810096492335192
0.31800000000000006,-0.0226,-0.474,0.014493132877665875,0.8807798822002635,0.05291746667541978,0.015361417012396043
0.3190000000000002,-0.025099999999999536,0.526,0.01450436551683638,0.8699465467085101,0.052969586761205945,0.014442435588878887
0.32000000000000006,-0.023,-0.474,0.01446816016354871,0.9020563255174293,0.05280159185897255,0.017166277222058633
0.3210000000000002,-0.0074000000000004,0.526,0.014415016406171844,0.901483123061466,0.052555001796616145,0.01711765300938234
0.32200000000000006,-0.0092,0.526,0.014256603056256449,0.901483123061466,0.051819954826626616,0.01711765300938234
0.3230000000000002,-0.021999999999995246,0.526,0.014292946123456279,0.9014831230614659,0.05198858872925937,0.017117653009382332
0.32400000000000007,-0.0006,0.526,0.014231923793318656,0.9014831230614659,0.0517054416403725,0.017117653009382332
0.3250000000000002,0.002199999999999423,-0.474,0.014209806538775521,0.9020563255174291,0.05160281631905267,0.017166277222058615
0.32600000000000007,-0.0004,-1.474,0.014184845756650775,0.9020563255174291,0.05148699686773015,0.017166277222058615
0.3270000000000002,0.0017999999999985345,0.526,0.014191696558888143,0.9020563255174291,0.051518784980469794,0.017166277222058615
0.32800000000000007,-0.0048,0.526,0.014181633734613404,0.9014831230614659,0.05147209290245595,0.017117653009382332
0.3290000000000002,-0.0030999999999988008,0.526,0.014213416994701467,0.890901573916,0.051619569040272595,0.016220030379295834
0.33000000000000007,0.0023,-2.474,0.014220895064605246,0.8903211898886009,0.05165426771072605,0.016170796960826343
0.3310000000000002,0.003699999999999023,-0.474,0.014120346113850274,0.8903211898886009,0.05118771484995049,0.016170796960826343
0.3320000000000001,-0.0007,0.526,0.014070197881199762,0.8903211898886009,0.050955024193009166,0.016170796960826343
0.3330000000000002,0.0028000000000030644,-0.474,0.013907721945878007,0.8796053742480248,0.05020112659524828,0.015261784633180777
0.3340000000000001,0.0166,-0.474,0.013919602336416106,0.8903211898886015,0.05025625228428892,0.0161707969608264
0.3350000000000002,0.003900000000000333,-1.474,0.013908110251347909,0.8920612091603987,0.05020292835475425,0.016318401121018858
0.3360000000000001,0.0054,-1.474,0.013912971649283944,0.892061209160399,0.050225485518179576,0.016318401121018886
0.33699999999999997,0.0068,-0.474,0.01393048828107083,0.8914815800942621,0.050306763687767236,0.016269231745186685
0.3380000000000001,0.0058,-0.474,0.013948172858284508,0.88136654924615,0.05038882113370473,0.015411183413276897
0.33899999999999997,0.0069,-0.474,0.013911906135513453,0.8711340772882046,0.05022054147357159,0.014543172665047949
0.3400000000000001,0.0058,-0.474,0.01382692907540464,0.8717272359253917,0.0498262430726795,0.01459348974137118
0.34099999999999997,0.0011,-0.474,0.013855241790195816,0.8589765930288321,0.049957615682567146,0.013511864975964532
0.3420000000000001,0.0055,0.526,0.013891390415083318,0.859578141074313,0.05012534736179139,0.013562893717719161
0.34299999999999997,0.0001,0.526,0.01380653712544613,0.8949537234379638,0.04973162326294006,0.016563770323363227
0.3440000000000001,0.0038,0.5259999999999445,0.013443249253796542,0.9049168915501421,0.04804594683836731,0.017408936285539897
0.345,0.0132,-0.47399999999994447,0.013052837273084563,0.8943759689605505,0.04623441300221515,0.0165147599670883
0.3460000000000001,0.0045,0.5259999999999445,0.012900191635822851,0.8943759689605505,0.04552612854758259,0.0165147599670883
0.347,0.0056,-0.474,0.01295226239348092,0.8943759689605505,0.04576773983010432,0.0165147599670883
0.3480000000000001,0.0064,-0.47399999999994447,0.012991260211443154,0.8943759689605505,0.04594869192754215,0.0165147599670883
0.349,0.0125,0.526,0.01290893377609302,0.8943759689605505,0.04556669257656274,0.0165147599670883
0.3500000000000001,0.0104,0.526,0.012586170469701367,0.8949537234379639,0.04406905244387383,0.016563770323363237
0.351,0.0202,0.5260000000000555,0.012009910013904885,0.8943759689605505,0.04139517109369587,0.0165147599670883
0.3520000000000001,0.0166,1.526,0.01189675825586122,0.8943759689605505,0.04087014048899365,0.0165147599670883
0.353,0.0202,-0.474,0.01183465421470883,0.9049168915501421,0.04058197419936245,0.017408936285539897
0.3540000000000001,0.0101,-0.474,0.011687872074893451,0.8932193388924244,0.03990089670698257,0.016416644151576232
0.355,0.0011,0.526,0.01157226177034143,0.8932193388924244,0.039364458306393756,0.016416644151576232
0.3560000000000001,-0.0025,-0.474,0.011546143242877472,0.9032016391087407,0.03924326685072904,0.017263433071733753
0.357,-0.0147,0.526,0.01152989924129865,0.8711340772882046,0.03916789375782118,0.014543172665047949
0.3580000000000001,-0.0295,0.526,0.011508451141672616,0.8711340772882042,0.0390683733534451,0.014543172665047921
0.359,-0.0236,0.526,0.011424663313351386,0.8711340772882044,0.03867959305580974,0.01454317266504793
0.3600000000000001,-0.0145,-2.474,0.01139080966397215,0.8711340772882044,0.0385225101937114,0.01454317266504793
0.361,-0.0191,-0.474,0.01130476290228796,0.8705405144916685,0.03812324831655803,0.014492821304276116
0.3620000000000001,-0.0176,-0.474,0.011031721268005992,0.8705405144916684,0.03685631957559561,0.014492821304276107
0.363,-0.0165,-0.474,0.010999210070971719,0.8711340772882037,0.036705465768870744,0.014543172665047873
0.3640000000000001,-0.0226,-0.474,0.010861946937430188,0.8711340772882031,0.036068557007993864,0.014543172665047826
0.365,-0.0059,-0.474,0.010886003278353725,0.8729123440167534,0.036180179800607774,0.014694021320186434
0.3660000000000001,0.001,-1.474,0.010781741966761979,0.8729123440167534,0.0356964013740195,0.014694021320186434
0.367,0.0031,0.526,0.010792983908515482,0.8607799760074989,0.03574856462432085,0.013664844218428071
0.3680000000000001,-0.0066,0.526,0.01093169669133266,0.8607799760074989,0.03639219984043765,0.013664844218428071
0.369,-0.0048,2.526,0.011348022189275189,0.8607799760074989,0.03832397387309005,0.013664844218428071
0.3700000000000001,-0.0033,0.526,0.011303312964481152,0.8613802646548284,0.03811652052251708,0.013715766126649598
0.371,-0.0047,-0.474,0.011167582064707108,0.8613802646548284,0.03748672141362791,0.013715766126649598
0.3720000000000001,0.0131,0.526,0.011275545787377283,0.8613802646548284,0.037987679238583226,0.013715766126649598
0.373,0.011,0.526,0.01125324441873599,0.8619801352572889,0.03788419961735713,0.013766652572527219
0.3740000000000001,0.0046,-0.474,0.01110140451354564,0.8625795886870533,0.03717965380544625,0.01381750363004653
0.375,0.0064,0.526,0.011469648047980256,0.8631786258132658,0.03888832478771487,0.013868319372936188
0.3760000000000001,0.0047,0.526,0.011683184046821818,0.8625795886870533,0.039879143989606666,0.01381750363004653
0.377,0.0061,0.526,0.011751243465489478,0.849691685458215,0.040194943570245736,0.012724235202755145
0.3780000000000001,0.0119,0.526,0.011838325736292187,0.849691685458215,0.04059901026871228,0.012724235202755145
0.379,0.0076,0.526,0.011869173972591662,0.8502998021746061,0.040742147842872285,0.01277582115854125
0.3800000000000001,0.0087,0.526,0.011877875291714282,0.8502998021746061,0.04078252245940183,0.01277582115854125
0.381,0.0123,-0.474,0.011876080768962445,0.8129834974312027,0.04077419577158151,0.009610314941218093
0.3820000000000001,-0.0043,0.526,0.011872130844614515,0.8129834974312027,0.040755867897540696,0.009610314941218093
0.383,-0.021,1.526,0.01187715532381759,0.813619051114723,0.04077918176733745,0.00966422834851981
0.3840000000000001,-0.0054,-1.474,0.011961450630653776,0.813619051114723,0.04117031679419831,0.00966422834851981
0.385,-0.0072,0.526,0.011866873849115249,0.8129834974312027,0.04073147513888085,0.009610314941218093
0.3860000000000001,-0.0126,0.526,0.011968602795616175,0.7992963033899046,0.041203503247153724,0.008449243443561388
0.387,-0.008,-0.474,0.012265234085673697,0.785370609413201,0.04257988933505172,0.007267940225921985
0.3880000000000001,-0.0004,-0.474,0.012461512860373468,0.7847121770998019,0.04349063403361013,0.007212086046466559
0.389,0.0006,-0.474,0.012527195742191247,0.7960562884658391,0.04379540634785084,0.008174396095816903
0.3900000000000001,0.0092,0.526,0.012599784266291813,0.8072409974247489,0.04413222123576672,0.009123184192383128
0.391,0.0146,-0.474,0.012609864780870879,0.8072409974247489,0.04417899539780063,0.009123184192383128
0.3920000000000001,-0.0004,-2.474,0.012720038325209841,0.8066004182257479,0.044690206921214615,0.009068844475439855
0.393,0.0061,1.526,0.012720908973999507,0.84174618989292,0.044694246781208175,0.012050226460876676
0.39400000000000013,0.0118,0.526,0.0127224220895646,0.84174618989292,0.04470126772364743,0.012050226460876676
0.395,-0.005,-0.474,0.01274439645340704,0.8529377790659154,0.044803230023974135,0.012999598199382104
0.39600000000000013,-0.0163,-0.474,0.012758735165571907,0.8633859325210211,0.04486976246543798,0.01388590500143839
0.397,-0.0106,-0.474,0.0128208409029016,0.8633859325210214,0.045157936625428524,0.013885905001438409
0.39800000000000013,-0.0125,-0.474,0.012854012053232023,0.8633859325210214,0.04531185265305161,0.013885905001438409
0.399,-0.0046,-0.474,0.012979127835025566,0.8754821881206643,0.04589239700966254,0.01491201872224482
0.40000000000000013,0.003,0.526,0.013345718584208991,0.8760724028057829,0.047593398974190036,0.01496208606594741
0.401,0.0095,-0.474,0.013677158960630681,0.8766622201277124,0.04913130120623719,0.015012119701713096
0.40200000000000014,0.0008,1.526,0.013660352368238655,0.8891592853262867,0.049053317659899676,0.01607223371504859
0.403,0.0018,-0.474,0.013823394974465726,0.8790175317732047,0.0498098446429501,0.015211918521794753
0.40400000000000014,0.0044,-1.474,0.01369313627601776,0.8790175317732047,0.0492054368600196,0.015211918521794753
0.405,0.0018,1.526,0.01366326358215581,0.8784292959159007,0.04906682585835605,0.015162019040151208
0.40600000000000014,-0.0023,-0.474,0.013708392093424004,0.9108075765169069,0.04927622472206003,0.01790863742194147
0.40700000000000003,0.0013,-0.47399999999994447,0.013706003813719695,0.9102398849749715,0.04926514296814802,0.017860480694798335
0.40800000000000014,-0.0082,0.526,0.013638030336361481,0.9102398849749715,0.0489497421600817,0.017860480694798335
0.40900000000000003,-0.0071,0.526,0.013332888670717464,0.9102398849749715,0.04753386744454174,0.017860480694798335
0.41000000000000014,0.0073,0.5259999999999445,0.013123498476677391,0.9108075765169069,0.046562285013156526,0.01790863742194147
0.41100000000000003,0.0015,-0.474,0.013048394510051775,0.8760724028057826,0.046213798328594666,0.014962086065947382
0.41200000000000014,0.0105,-0.47399999999994447,0.012906994693862773,0.8760724028057826,0.045557695124525614,0.014962086065947382
0.41300000000000003,0.012,0.525999999999889,0.012798106103085804,0.8754821881206639,0.04505244585885585,0.014912018722244793
0.41400000000000015,0.0163,-1.4739999999999445,0.012708488352064848,0.8856644258599539,0.04463661438770515,0.01577576815005175
0.41500000000000004,0.004,-0.474,0.012504801710408827,0.8856644258599539,0.04369149676436997,0.01577576815005175
0.41600000000000015,-0.0072,-0.47399999999994447,0.012492956866793054,0.8856644258599539,0.04363653601507439,0.01577576815005175
0.41700000000000004,-0.0177,0.526,0.01251035836163535,0.8731173396234541,0.043717279942678655,0.014711410900210418
0.4179999999999999,-0.0379,-0.474,0.012565428653665452,0.8731173396234541,0.04397280923559989,0.014711410900210418
0.41900000000000026,-0.022999999999996447,-0.474,0.01258471028046487,0.8839118143286614,0.044062277082615,0.015627095800605378
0.42000000000000015,-0.015,-0.474,0.012758414870186927,0.8505102480232024,0.04486827627660126,0.012793673077339807
0.42100000000000004,-0.0172,0.526,0.012795005230090344,0.8511177798835133,0.04503805763146938,0.012845209420347514
0.42199999999999993,-0.0059,-0.474,0.012786213756126692,0.8505102480232019,0.04499726469134044,0.01279367307733976
0.42300000000000026,0.012200000000007417,-0.474,0.012755278708943147,0.8511177798835128,0.04485372430973187,0.012845209420347467
0.42400000000000015,0.0289,-0.474,0.012787803254953113,0.8511177798835128,0.04500464005646457,0.012845209420347467
0.42500000000000004,0.0224,0.526,0.012796460971187678,0.8505102480232015,0.045044812353109046,0.012793673077339732
0.42599999999999993,0.0127,0.526,0.012830284562293114,0.8505102480232009,0.04520175574310423,0.012793673077339675
0.42700000000000027,0.014499999999997957,0.526,0.0131232667717933,0.8633859325210206,0.04656120988929181,0.013885905001438343
0.42800000000000016,0.0099,-0.474,0.0131317457659077,0.899186659264493,0.04660055290511515,0.016922846195654068
0.42900000000000005,0.0056,0.526,0.013078326130928587,0.8991866592644928,0.04635268275496483,0.01692284619565405
0.42999999999999994,-0.0008,-0.474,0.013058862357517685,0.8997613247081648,0.04626236973729374,0.016971594512169664
0.43100000000000027,-0.0018999999999975575,-0.474,0.013030287050317967,0.9119418994230364,0.04612977868366795,0.01800486094237029
0.43200000000000016,0.0036,-0.474,0.012988287744198678,0.9113749144462686,0.04593489951015679,0.017956764152470307
0.43300000000000005,0.0145,-0.474,0.013007228413140458,0.9234023073204047,0.046022785293284706,0.01897703631454703
0.43399999999999994,0.007,0.526,0.012835776375380458,0.9130748131484073,0.045227238068752645,0.01810096492335159
0.4350000000000003,0.016100000000005017,0.526,0.01282592920991642,0.9113749144462685,0.045181546659908686,0.017956764152470297
0.43600000000000017,0.0274,0.526,0.012807530530205672,0.9119418994230363,0.04509617573769527,0.01800486094237028
0.43700000000000006,0.0231,0.526,0.012745509822117031,0.9239619117723408,0.04480839611822817,0.019024507021628723
0.43799999999999994,0.0141,1.526,0.012757968382871748,0.9234023073204047,0.04486620455001802,0.01897703631454703
0.4390000000000003,0.01519999999999667,1.526,0.012769466946297653,0.9228423635287314,0.044919558539501594,0.018929536821602012
0.44000000000000017,0.0077,-0.474,0.012850712825589935,0.9228423635287314,0.04529654404880255,0.018929536821602012
0.44100000000000006,0.0168,0.526,0.012825950697221214,0.9234023073204047,0.04518164636222727,0.01897703631454703
0.44199999999999995,0.0057,2.526,0.012763409504727558,0.9234023073204046,0.04489145166546374,0.01897703631454702
0.4430000000000003,-0.0019000000000028421,0.526,0.012763352706688935,0.888577763305267,0.04489118811932818,0.016022903761675502
0.4440000000000002,-0.0083,1.526,0.012751639766181506,0.8784292959158951,0.04483683940797114,0.015162019040150737
0.44500000000000006,-0.0144,1.526,0.012725673011636242,0.878429295915895,0.04471635218729717,0.015162019040150727
0.44599999999999995,-0.0133,0.526,0.012722329172674761,0.8784292959158951,0.04470083658398418,0.015162019040150737
0.4470000000000003,-0.010700000000003686,-0.474,0.012628816207786258,0.8784292959158951,0.044266931098539034,0.015162019040150737
0.4480000000000002,-0.019,-1.474,0.01268424873993677,0.8903211898885969,0.04452414120625939,0.016170796960826003
0.44900000000000007,-0.0334,-0.474,0.012681071808540641,0.8897404272726372,0.04450940006356001,0.01612153142705329
0.44999999999999996,-0.0316,-0.474,0.012701223987933153,0.8897404272726372,0.0446029073242111,0.01612153142705329
0.4510000000000003,-0.018900000000003508,-1.474,0.012751960496743424,0.8903211898885969,0.04483832761605364,0.016170796960826003
0.4520000000000002,-0.0268,-0.474,0.012796440896979164,0.9245211775007379,0.04504471920763771,0.019071948995118604
0.45300000000000007,-0.0068,-0.474,0.01279630315501004,0.9142063229319204,0.04504408007705245,0.018196949809296273
0.45399999999999996,-0.0043,0.526,0.012795959219821537,0.9239619117723409,0.04504248419818039,0.019024507021628733
0.4550000000000003,-0.011099999999994982,2.526,0.0129169339525005,0.9125085321051234,0.04560381385094297,0.01805292784745156
0.4560000000000002,0.0002,0.526,0.01307529324226163,0.9026291639689862,0.04633860997873636,0.017214870556591457
0.4570000000000001,-0.0056,0.526,0.01341660259919574,0.9026291639689862,0.04792230484269499,0.017214870556591457
0.45799999999999996,0.0072,0.526,0.013484410097837782,0.9020563255174255,0.04823693550006081,0.017166277222058313
0.4590000000000003,0.002500000000000666,-0.474,0.013477589416008842,0.9142063229319207,0.048205287147732534,0.0181969498092963
0.4600000000000002,0.004,-0.474,0.013519868259796558,0.9245211775007381,0.04840146339195323,0.019071948995118625
0.4610000000000001,0.0005,-0.474,0.013545729986591086,0.9245211775007385,0.048521463277879304,0.019071948995118652
0.46199999999999997,-0.0056,0.526,0.013544988006262276,0.9341690538465981,0.04851802044687564,0.019890369060202466
0.4630000000000003,-0.006699999999997069,1.526,0.013512334041739632,0.933615567524073,0.04836650419086985,0.019843417348150483
0.4640000000000002,-0.0001,-0.474,0.01346107953164884,0.9453600448538122,0.04812868034357002,0.020839690056880363
0.4650000000000001,0.0025,-0.474,0.013414238116007941,0.9341690538465999,0.04791133350597551,0.019890369060202615
0.46599999999999997,-0.0066,0.526,0.013422958344853094,0.9341690538465998,0.04795179586469508,0.01989036906020261
0.46699999999999986,0.0122,0.526,0.013447850109043296,0.9437183026104496,0.04806729506886868,0.020700422642425963
0.4680000000000002,0.0097,1.526,0.013501307271157146,0.9437183026104496,0.04831533934706247,0.020700422642425963
0.4690000000000001,0.0216,0.5259999999999445,0.012973095311043428,0.9437183026104496,0.04586440575465261,0.020700422642425963
0.47,0.0103,-0.47399999999994447,0.012775244420980969,0.9431704201471738,0.044946366351232295,0.020653946300360805
0.47099999999999986,0.0005,0.5259999999999445,0.012805419404946533,0.9426222192369774,0.04508637999620109,0.020607442944749862
0.4720000000000002,0.0096,-0.47399999999994447,0.01282760166971555,0.9431704201471738,0.045189306968673286,0.020653946300360805
0.4730000000000001,0.0143,0.526,0.012974128359488002,0.9431704201471738,0.045869199158298464,0.020653946300360805
0.474,0.0066,0.526,0.012929093255109846,0.9431704201471738,0.04566023370788658,0.020653946300360805
0.47499999999999987,-0.0112,0.525999999999889,0.012630443511181581,0.9426222192369774,0.044274481879016975,0.020607442944749862
0.4760000000000002,-0.0279,-1.4740000000000555,0.012434644623487406,0.9426222192369775,0.043365963883508454,0.020607442944749872
0.4770000000000001,-0.0076,-2.4739999999998337,0.012449933516324277,0.9426222192369774,0.043436905217431626,0.020607442944749862
0.478,0.0004,0.5259999999999445,0.012430599420358514,0.9431704201471738,0.04334719391049499,0.020653946300360805
0.47899999999999987,0.0025,-0.4740000000000555,0.012423980430275192,0.9426222192369774,0.04331648141935877,0.020607442944749862
0.4800000000000002,0.0003,-1.474,0.0124138345265384,0.9431704201471738,0.04326940384790713,0.020653946300360805
0.4810000000000001,-0.0063,0.526,0.012419465194067978,0.9431704201471738,0.04329553046607944,0.020653946300360805
0.482,-0.0082,-1.474,0.012440769545346916,0.9755193631718954,0.043394383869934224,0.02339807600378999
0.4829999999999999,0.0008,0.526,0.012486409687513482,0.974989351060794,0.04360615673015934,0.023353115586500963
0.4840000000000002,0.0022,1.526,0.012487569897678952,0.9744590506740631,0.04361154017143582,0.023308130715067727
0.4850000000000001,-0.0023,-0.474,0.012469232070986543,0.9857170120898291,0.0435264516106949,0.02426313274704923
0.486,-0.0013,-1.474,0.012415946631797877,0.9968478391439708,0.04327920413665872,0.025207350093491152
0.4869999999999999,0.0099,0.526,0.012149730726170933,1.0078557440867755,0.04204394716558518,0.026141140075531383
0.4880000000000002,0.0055,0.526,0.01195721273719412,1.008368481325185,0.04115065272707062,0.026184635081995693
0.4890000000000001,0.0145,-0.474,0.011894922143303281,0.9994371318961306,0.04086162082210325,0.025426997305662676
0.49,-0.0044,-0.474,0.011937188787758022,0.9899032143872023,0.04105774046072382,0.024618244259039173
0.4909999999999999,-0.0071,-0.474,0.012030085631355547,0.9899032143872023,0.04148878710827228,0.024618244259039173
0.4920000000000002,-0.0002,0.526,0.01192106629398099,0.9899032143872023,0.040982931170939776,0.024618244259039173
0.4930000000000001,-0.0025,-0.474,0.011911413266132922,0.9601957927093928,0.040938140571695855,0.022098192269208363
0.494,-0.0084,0.526,0.011919215383184268,0.9601957927093928,0.04097434283937821,0.022098192269208363
0.4949999999999999,0.0042,-0.474,0.011903679242734286,0.9502682534832841,0.04090225426244205,0.021256048671146933
0.4960000000000002,0.0056,-0.474,0.01184297191050757,0.9407854909919025,0.04062056878181035,0.020451635055429157
0.4970000000000001,0.016,-1.474,0.011845245187124551,0.9413347615499105,0.04063111691484429,0.02049822914823451
0.498,0.0123,0.526,0.011797008790643663,0.9407854909919025,0.040407297286666324,0.020451635055429157
0.4989999999999999,0.0086,-0.474,0.01164620456773958,0.9289831826132113,0.03970755709957683,0.0194504565944746
0.5000000000000002,0.0118,-0.474,0.011157414624794719,0.9402358995590006,0.03743954391309438,0.020405013743115374
0.5010000000000001,0.0143,-2.474,0.010701504486293084,0.9402358995590006,0.03532409489271755,0.020405013743115374
0.502,0.0005,0.526,0.01055369082225784,0.9289831826132112,0.03463823106918131,0.01945045659447459
0.5029999999999999,-0.0014,1.526,0.010259331811183497,0.9289831826132112,0.03327238848523958,0.01945045659447459
0.5040000000000002,-0.0181,-0.474,0.010332157460774842,0.9289831826132112,0.03361030364894406,0.01945045659447459
0.5050000000000001,-0.0203,-0.474,0.010330074207050956,0.939135751814837,0.033600637232961576,0.020311689268785172
0.506,-0.0301,-0.474,0.010273235476536781,0.9077684433926545,0.03333690228470874,0.017650830683941927
0.5069999999999999,-0.0135,0.526,0.010336699158817768,0.9181556260123722,0.03363137738664889,0.018531965388711963
0.5080000000000002,-0.007,-1.474,0.010321626691287234,0.9181556260123722,0.03356144027847902,0.018531965388711963
0.5090000000000001,-0.0128,1.526,0.01031247638717087,0.9284266047118744,0.033518982345995374,0.01940324262676741
0.51,-0.011,0.526,0.0103114157083798,0.9284266047118745,0.0335140607359674,0.01940324262676742
0.5109999999999999,0.0003,1.526,0.010362843409272309,0.9396859866881974,0.03375268819845561,0.020358365163533784
0.5120000000000002,0.0046,0.526,0.010389407012634971,0.939135751814837,0.033875944831650705,0.020311689268785172
0.5130000000000001,-0.002,-1.474,0.010429385827173964,0.939135751814837,0.034061448809101814,0.020311689268785172
0.514,0.0118,-0.474,0.010521309479298293,0.9295394272539071,0.03448797979276226,0.01949764229200234
0.5149999999999999,0.0063,-0.474,0.010534827086072975,0.92898318261321,0.034550702258429114,0.019450456594474485
0.5160000000000002,0.011,1.526,0.010538725146063098,0.9289831826132094,0.03456878947889448,0.01945045659447444
0.5170000000000001,0.0215,0.526,0.010756927645537515,0.9289831826132089,0.03558126150961962,0.01945045659447439
0.518,0.0066,-0.474,0.010727432289653368,0.9295394272539048,0.03544440137767377,0.019497642292002144
0.5189999999999999,0.0048,0.526,0.010686447997143125,0.9192808820272883,0.03525423192514399,0.01862741977348533
0.5200000000000002,0.0175,0.526,0.010467165650664547,0.9192808820272886,0.03423674934278994,0.01862741977348536
0.5210000000000001,0.0189,-0.474,0.010507499282016207,0.9187184262980249,0.03442389969046926,0.018579707195292096
0.522,0.0204,-0.474,0.010575284067257143,0.928983182613208,0.03473842495635974,0.019450456594474315
0.5229999999999999,0.0056,-0.474,0.01055719764830449,0.928426604711871,0.034654502941856485,0.01940324262676712
0.5240000000000002,-0.0082,0.526,0.010460807241899284,0.9289831826132077,0.03420724596381741,0.019450456594474287
0.5250000000000001,-0.0028,0.526,0.010445455077853058,0.9295394272539036,0.03413601104787764,0.01949764229200204
0.526,-0.014,0.526,0.010486169683868136,0.9295394272539046,0.034324929139703135,0.019497642292002123
0.5269999999999999,-0.0126,-0.474,0.010348764822100055,0.9278696929501756,0.03368736275177939,0.019356000338007037
0.5280000000000002,-0.0089,0.526,0.010713663921874627,0.8937978410204166,0.03538051536665974,0.01646571793033021
0.5290000000000001,0.0024,-0.474,0.010901683645590826,0.8937978410204169,0.0362529375980542,0.016465717930330238
0.53,0.0039,-0.474,0.01102863177216698,0.8937978410204166,0.036841984138863325,0.01646571793033021
0.5309999999999999,0.0076,-2.474,0.011046943671301507,0.8813665492461431,0.036926952394258326,0.015411183413276313
0.5320000000000003,0.0113,0.526,0.011028614768005256,0.8813665492461431,0.03684190523858403,0.015411183413276313
0.5330000000000001,0.0146,0.526,0.0110460991208954,0.8693521731086328,0.03692303363225156,0.014392015448439951
0.534,0.0016,-1.474,0.011330498519944377,0.8699465467085056,0.03824266304889758,0.014442435588878502
0.5349999999999999,-0.0111,-1.474,0.011433183299227358,0.858976593028824,0.03871912627574247,0.013511864975963843
0.5360000000000003,-0.0096,-1.474,0.011434019794808322,0.8711340772881967,0.038723007662901605,0.01454317266504728
0.5370000000000001,-0.0081,-0.474,0.011434892141080585,0.858976593028824,0.038727055399311136,0.013511864975963843
0.538,-0.0069,-0.474,0.011424442324827741,0.8595781410743051,0.03867856765646811,0.013562893717718493
0.5389999999999999,-0.0181,0.526,0.01151014720462201,0.8595781410743051,0.039076243182171844,0.013562893717718493
0.5400000000000003,-0.0167,-0.474,0.011532704139829777,0.8595781410743051,0.03918090864682855,0.013562893717718493
0.5410000000000001,-0.0043,0.526,0.011554914459232065,0.858976593028824,0.03928396579439768,0.013511864975963843
0.542,-0.0029,0.526,0.011693692333122414,0.858976593028824,0.03992790303680288,0.013511864975963843
0.5429999999999999,0.0048,0.526,0.01233440679771781,0.859578141074305,0.04290085466039291,0.013562893717718483
0.5440000000000003,0.005799999999993871,0.526,0.012599512272619764,0.8717272359253838,0.04413095916963023,0.014593489741370511
0.5450000000000002,-0.008,-0.474,0.012712902002073909,0.8717272359253838,0.04465709397523667,0.014593489741370511
0.546,-0.0135,-0.474,0.012729704617698984,0.8717272359253838,0.04473505906914894,0.014593489741370511
0.5469999999999999,0.0014,0.526,0.01275980189191562,0.8717272359253838,0.04487471213645481,0.014593489741370511
0.5480000000000003,0.003199999999997602,0.526,0.012686163866948345,0.859578141074305,0.0445330275047169,0.013562893717718483
0.5490000000000002,-0.0022,-1.474,0.01266945101304722,0.8601792684400791,0.04445547891031838,0.013613886773618463
0.55,0.0025,-0.474,0.01264532564458765,0.859578141074305,0.044343535826004095,0.013562893717718483
0.5509999999999999,0.0068,-0.474,0.012592422391639334,0.859578141074305,0.044098061717900094,0.013562893717718483
0.5520000000000003,0.0105000000000016,-0.474,0.012511851062348702,0.8220542566574922,0.0437242061590426,0.010379778716479406
0.5530000000000002,0.0141,-0.474,0.012595083656861234,0.8226828028651468,0.04411041014016842,0.010433097686347594
0.554,0.0039,1.526,0.012605645750569062,0.8117108971873901,0.04415941885680014,0.009502361487314866
0.5549999999999999,0.0028,0.526,0.012545481573387925,0.8245655667405168,0.043880253646528866,0.010592810733880489
0.5560000000000003,0.011499999999994494,1.526,0.012392532727264365,0.8353686535724248,0.04317056228550051,0.011509226192694962
0.5570000000000002,-0.0009,0.526,0.012057052121004865,0.8347496595567165,0.04161391315679389,0.011456717526076333
0.558,-0.0056,1.526,0.011984971320044498,0.8353686535724248,0.04127945413317857,0.011509226192694962
0.5589999999999999,0.002,-0.474,0.012039648391174928,0.8220542566574922,0.041533158858719624,0.010379778716479406
0.5600000000000003,0.011099999999998401,-1.474,0.011990974198010524,0.8239384568114039,0.041307307828984514,0.010539613602138684
0.5610000000000002,0.0075,0.526,0.011944569570367672,0.823938456811404,0.041091987712589095,0.010539613602138693
0.562,0.0108,0.526,0.011977379150195425,0.8123474465117188,0.04124422603247754,0.00955635935386813
0.563,0.0155,-0.47399999999988895,0.011968788929883758,0.8129834974311974,0.04120436692076122,0.00961031494121764
0.5640000000000003,0.005399999999995959,0.525999999999889,0.01199959959880709,0.8347496595567165,0.041347330180155344,0.011456717526076333
0.5650000000000002,-0.0037,-0.47399999999988895,0.011947002140192746,0.8454226207331753,0.04110327497518511,0.012362094550774937
0.5660000000000001,-0.0225,0.525999999999889,0.011954023432909553,0.844810993303235,0.04113585417346388,0.012310210784537234
0.567,-0.0091,-0.47399999999988895,0.011937572546465934,0.86756660906506,0.04105952112299508,0.014240547769091089
0.5680000000000003,-0.002199999999999023,0.526,0.01175574416553969,0.86756660906506,0.04021582707492831,0.014240547769091089
0.5690000000000002,0.0,0.526,0.011745656167368309,0.86756660906506,0.04016901818859964,0.014240547769091089
0.5700000000000001,-0.0137,0.526000000000111,0.011776631707704958,0.8681622051241338,0.04031274646074591,0.014291071609567134
0.571,-0.0119,1.525999999999889,0.011651386867090642,0.8687573928591056,0.03973160326385283,0.01434156081230259
0.5720000000000003,-0.007199999999996625,0.525999999999889,0.011545376150983737,0.8687573928591055,0.03923970750063327,0.014341560812302579
0.5730000000000002,0.0004,-0.474,0.011374296693191392,0.8687573928591055,0.03844588906838071,0.014341560812302579
0.5740000000000001,-0.0032,-0.47399999999988895,0.011405064804250775,0.8687573928591055,0.03858865485686116,0.014341560812302579
0.575,-0.0145,0.526000000000111,0.011433458184494589,0.9043455022121832,0.03872040175904536,0.01736046587791893
0.5760000000000003,-0.022200000000002888,1.525999999999778,0.011432113384956795,0.9385851943726055,0.03871416181256341,0.020264986010829666
0.5770000000000002,-0.0287,-0.474,0.011365281781100054,0.939135751814834,0.03840405936260781,0.02031168926878492
0.5780000000000001,-0.0201,0.526,0.011351533191980538,0.9385851943726056,0.03834026512569957,0.020264986010829673
0.579,-0.0168,-0.474,0.01132821102543514,0.939135751814834,0.038232048944033425,0.02031168926878492
0.5800000000000003,-0.0062999999999971135,0.526,0.011326502668399374,0.9385851943726055,0.038224122070045406,0.020264986010829666
0.5810000000000002,0.0002,0.526,0.01141845657169574,0.9380343137935359,0.03865079342086781,0.02021825534148718
0.5820000000000001,0.0104,-0.474,0.011724552341316776,0.9142063229319202,0.040071095233225926,0.018196949809296252
0.583,0.0253,-0.474,0.011687364597356892,0.9142063229319201,0.0398985419822969,0.018196949809296245
0.5840000000000003,0.01549999999999436,0.526,0.011601186562755758,0.9245211775007376,0.039498670991328984,0.019071948995118576
0.5850000000000002,0.0028,-1.474,0.011614471572990894,0.9125085321051232,0.03956031419579901,0.01805292784745154
0.5860000000000001,-0.0019,-0.474,0.01156126649261295,0.900335623354948,0.039313439591223416,0.01702031171365821
0.587,0.0086,-0.474,0.011587759588261333,0.8879958604628958,0.03943636906460674,0.015973541503593668
0.5880000000000003,0.01510000000000049,0.526,0.011646329328695417,0.922282079779252,0.03970813599752079,0.01888200849036349
0.5890000000000002,0.0162,-0.474,0.01173559763196752,0.9217214554520203,0.040122346011205304,0.01883445126824202
0.5900000000000001,0.0085,0.526,0.011686234341958856,0.922282079779252,0.03989329753284813,0.01888200849036349
0.591,0.0194,-0.474,0.011572789710241092,0.9217214554520203,0.039366907977610166,0.01883445126824202
0.5920000000000003,0.03929999999999405,-0.474,0.011575206749235198,0.922282079779252,0.03937812317626554,0.01888200849036349
0.5930000000000002,0.0259,-1.474,0.011651792966489355,0.9325076093204767,0.039733487588202374,0.01974943032006356
0.5940000000000001,0.019,0.526,0.011657931734031323,0.9325076093204766,0.03976197181938367,0.01974943032006355
0.595,0.0078,-0.474,0.011648951297714786,0.9330617528770229,0.03972030208317028,0.01979643778464502
0.5959999999999999,-0.0103,-0.474,0.011624009561684827,0.9325076093204766,0.03960457100681281,0.01974943032006355
0.5970000000000002,-0.0081,-0.474,0.011554748385306743,0.9325076093204766,0.0392831952019213,0.01974943032006355
0.5980000000000001,-0.0103,-0.474,0.011645072727382732,0.9426222192369745,0.03970230529582887,0.020607442944749615
0.599,0.0035,0.526,0.011668560194402579,0.9431704201471709,0.03981128848111526,0.02065394630036056
0.5999999999999999,-0.002,-0.474,0.011971075178179032,0.9313983331302923,0.04121497524312157,0.019655331488442833
0.6010000000000002,-0.0006,0.526,0.01211748846273309,0.9313983331302923,0.04189434122607158,0.019655331488442833
0.6020000000000001,-0.0144,-0.474,0.012118616949736614,0.9409757002575483,0.04189957747006904,0.020467770324372175
0.603,-0.0053,-0.474,0.012073704706540157,0.9409757002575483,0.041691182102540865,0.020467770324372175
0.6039999999999999,-0.0133,-1.474,0.01199410116420779,0.9409757002575482,0.04132181713031415,0.020467770324372164
0.6050000000000002,-0.0057,1.526,0.011988080980402141,0.9313983331302923,0.04129388313442627,0.019655331488442833
0.6060000000000001,-0.0094,0.526,0.011985265255852598,0.9319531362677197,0.041280818012076594,0.01970239490463565
0.607,-0.0032,-0.474,0.011930736617432824,0.9217214554520203,0.04102780202277067,0.01883445126824202
0.6079999999999999,-0.0134,0.526,0.01193043802881887,0.9336155675240717,0.041026416554588364,0.019843417348150368
0.6090000000000002,-0.0069,-1.474,0.0119350482183611,0.9234023073204043,0.041047808096752604,0.018977036314546992
0.6100000000000001,-0.0033,0.526,0.011958050415341636,0.9228423635287311,0.041154539601405936,0.018929536821601985
0.611,-0.0088,0.526,0.011910686824766748,0.9113749144462682,0.04093476984236423,0.01795676415247027
0.6119999999999999,0.0002,-0.474,0.011909606462204484,0.9119418994230358,0.04092975689851634,0.018004860942370242
0.6130000000000002,0.0089,2.526,0.011929567712731137,0.922282079779252,0.041022378238350726,0.01888200849036349
0.6140000000000001,0.0035,1.526,0.01183272364758071,0.921721455452021,0.040573016257884384,0.018834451268242076
0.615,-0.0074,0.526,0.011838331438659328,0.9319531362677208,0.04059903672802073,0.019702394904635743
0.6159999999999999,-0.0089,2.526,0.01183581289292936,0.9313983331302942,0.040587350532327114,0.019655331488442992
0.6170000000000002,-0.0053,0.526,0.011628424638698254,0.9319531362677221,0.03962505721572591,0.019702394904635857
0.6180000000000001,-0.0043,-0.474,0.011592271803088852,0.9415248598505197,0.039457305998512125,0.020514355004120265
0.619,-0.0097,-0.474,0.011605908542082467,0.9531718880659693,0.03952058124446298,0.021502361198272205
0.6199999999999999,-0.0032,-0.474,0.011607739305628927,0.9537140249784505,0.039529076091635335,0.021548350150793098
0.6210000000000002,0.0105,-0.474,0.01152587288757932,0.9636060648414598,0.03914921124714213,0.022387482372048205
0.6220000000000001,0.0047,-0.474,0.011466009772967117,0.9652139803811911,0.03887144298434523,0.02252388029978915
0.623,0.0101,-0.474,0.01144682086468636,0.9652139803811917,0.03878240535653981,0.0225238802997892
0.6239999999999999,0.0116,-2.474,0.011448766705544533,0.9646783063187186,0.038791434168995616,0.022478439584614505
0.6250000000000002,-0.0022,-2.474,0.011445020189251488,0.9755193631718976,0.038774050119919634,0.023398076003790177
0.6260000000000001,0.0068,-0.474,0.011352566772996033,0.9760490874769853,0.038345061000504846,0.023443012006772058
0.627,-0.0113,0.526,0.01113285839228196,0.9760490874769886,0.037325601595022684,0.02344301200677234
0.6279999999999999,0.0053,-0.474,0.01075818887844095,0.9760490874769885,0.03558711370215653,0.02344301200677233
0.6290000000000002,-0.0012,0.526,0.010571999056800374,0.9765785244444063,0.034723182320660656,0.02348792363517621
0.6300000000000001,-0.0149,0.526,0.01044051013406086,0.9872889180211463,0.03411306622691927,0.024396476014364878
0.631,-0.0276,1.526,0.01043541218372858,0.9984022206155541,0.03408941144689663,0.025339206777753507
0.6319999999999999,-0.0062,0.526,0.010516839775618264,1.0093931744433253,0.034467240113003506,0.026271558813019593
0.6330000000000002,-0.0032,1.526,0.010532922407333676,1.0088809579784037,0.034541864440550296,0.02622810798326906
0.6340000000000001,-0.0057,0.526,0.010250458938413929,1.0391863999562954,0.03323121785001308,0.02879888945960751
0.635,0.0012,0.526,0.010145566845892667,1.0391863999562954,0.03274451256397,0.02879888945960751
0.6359999999999999,0.0125,0.526,0.010148394070460568,1.0391863999562954,0.03275763104706013,0.02879888945960751
0.6370000000000002,0.0143,-2.474,0.010154230690191118,1.0477789783019231,0.03278471329518008,0.029527789610974436
0.6380000000000001,0.0161,0.526,0.010121978420268097,1.0577686801058035,0.03263506092500507,0.03037520640068156
0.639,0.0147,-0.474,0.010074787580928979,1.0582572342555114,0.0324160927415407,0.03041664997900567
0.6399999999999999,0.0042,0.526,0.010177375564217111,1.0577686801058024,0.032892106829454065,0.030375206400681466
0.6410000000000002,-0.0049,-0.474,0.010185231905067583,1.0582572342555108,0.03292856069865403,0.03041664997900561
0.6420000000000001,-0.0136,1.526,0.010010724969097754,1.0582572342555103,0.03211883857236047,0.030416649979005575
0.643,-0.006,0.526,0.009215399666406278,1.0577686801058024,0.0284284838502894,0.030375206400681466
0.6439999999999999,-0.0034,-0.474,0.008856407400260865,1.0563016618791774,0.026762739280019335,0.03025076065640855
0.6450000000000002,0.0027,0.526,0.008668018412599447,1.0563016618791778,0.025888603642878424,0.03025076065640859
0.6460000000000001,0.0049,-0.474,0.008636378679890247,1.064756129076516,0.025741793480277875,0.030967944971987408
0.647,0.0146,1.526,0.008617633828797893,1.0642705582532346,0.02565481630312899,0.030926754466372844
0.6479999999999999,0.0081,-0.474,0.008652501707173799,1.0930413567872566,0.025816605245562577,0.03336735361634356
0.6490000000000002,0.0269,0.526,0.00879274020620064,1.118766297277166,0.02646731987182743,0.035549575559835206
0.6500000000000001,0.019,-0.474,0.00927322672121411,1.1187662972771655,0.028696804679579458,0.03554957555983517
0.651,0.007,1.526,0.009464881022773024,1.1187662972771655,0.029586091559262125,0.03554957555983517
0.6519999999999999,0.0006,-0.474,0.009488777255845036,1.1192282256825954,0.029696971442322022,0.035588760501897396
0.6530000000000002,0.0024,-0.474,0.009447705846429183,1.119228225682596,0.029506397762386297,0.03558876050189745
0.6540000000000001,0.0006,-0.474,0.009435370992422679,1.128585669945335,0.029449163336956963,0.03638254349288857
0.655,-0.0008,-0.474,0.0094088291947745,1.1192282256825945,0.029326007883519557,0.03558876050189732
0.6559999999999999,0.0007,0.526,0.0094785035160633,1.1365025419783523,0.02964930070433776,0.037054124128071866
0.6570000000000003,-0.0004,-1.474,0.009650055613059344,1.1365025419783525,0.030445312209426433,0.03705412412807188
0.6580000000000001,-0.0065,0.526,0.01008671376865999,1.1634885536205162,0.03247143093216597,0.03934332152372572
0.659,-0.0076,0.526,0.010119590585941694,1.1639327333000444,0.03262398123767193,0.03938100085845148
0.6599999999999999,-0.0029,-0.474,0.010191364099538547,1.1544140596703631,0.03295701443041134,0.03857354093543345
0.6610000000000003,-0.0072,-0.474,0.01026268666296972,1.1544140596703631,0.03328795518868689,0.03857354093543345
0.6620000000000001,-0.0127,1.526,0.010236263796449511,1.1548617295615786,0.033165351582459944,0.03861151634145758
0.663,-0.0028,0.526,0.010299955284079355,1.1548617295615786,0.03346088371419913,0.03861151634145758
0.6639999999999999,-0.0064,1.526,0.010291857373873997,1.1392281542216944,0.03342330894942788,0.03728533519148341
0.6650000000000003,-0.0028,0.526,0.010370944246928089,1.130873370724026,0.033790276546763615,0.0365766069482097
0.6660000000000001,0.0048,-0.474,0.010345241099516433,1.130873370724026,0.03367101247820991,0.0365766069482097
0.667,0.0001,1.526,0.010318165895173296,1.1049625184120158,0.03354538198731442,0.03437861428377501
0.6679999999999999,-0.006,-1.474,0.01060700167685892,1.1331564529311386,0.03488559647217926,0.036770278614548874
0.6690000000000003,-0.001999999999999023,-0.474,0.010667587801555781,1.1423998162030804,0.03516671954296603,0.03755438422488481
0.6700000000000002,0.0002,1.526,0.010654136780785846,1.141947260962379,0.03510430604015527,0.037515994399365565
0.671,0.0024,-1.474,0.010658909639304704,1.149772134093002,0.03512645237563993,0.03817977085620058
0.6719999999999999,-0.0029,0.526,0.010704472830648211,1.1588829766538673,0.035337868179661405,0.03895263486215684
0.6730000000000003,0.002199999999999689,0.526,0.010755675391121577,1.1588829766538673,0.0355754509777763,0.03895263486215684
0.6740000000000002,0.0015,-1.474,0.010800674166796748,1.1588829766538673,0.03578424786093632,0.03895263486215684
0.675,0.0012,-0.474,0.010805296024883585,1.131330355755591,0.035805693545812416,0.03661537254862458
0.6759999999999999,-0.0012,1.526,0.010803196201132795,1.1130474296330415,0.03579595024396093,0.03506444952155232
0.6770000000000003,-0.0026000000000001777,-0.474,0.010782665229706008,1.1125829350530991,0.03570068536668725,0.035025046893375954
0.6780000000000002,-0.003,-0.474,0.010722901955372585,1.1210740359717626,0.03542338036847279,0.03574533881227768
0.679,0.0029,-1.474,0.010746708434742512,1.120612868428997,0.035533843789240856,0.035706218413463005
0.6799999999999999,-0.0054,-1.474,0.010795814525432929,1.1210740359717626,0.03576169884810616,0.03574533881227768
0.6810000000000003,-0.012999999999999467,-1.474,0.010731672282165896,1.121535013885598,0.03546407518452639,0.03578444312505271
0.6820000000000002,-0.0118,0.526,0.010421674584709129,1.1130474296330415,0.0340256682046789,0.03506444952155232
0.683,-0.007,-2.474,0.010606059201769704,1.1229168121884292,0.034881223334063134,0.035901659745207794
0.6839999999999999,0.005,0.526,0.010601102238732863,1.124296912216466,0.034858222743124764,0.036018732302346534
0.6850000000000003,0.0036999999999966253,-1.474,0.010590768160797164,1.1340683988641,0.03481027203266805,0.0368476381103645
0.6860000000000002,-0.0039,1.526,0.010606371466560313,1.13452409694265,0.03488267226048438,0.0368862945397937
0.687,0.0028,-1.474,0.01058778256208002,1.13452409694265,0.03479641868450129,0.0368862945397937
0.688,0.0115,-0.47399999999988895,0.010569867012979288,1.1068321191855752,0.0347132895158471,0.034537210718049785
0.6890000000000003,0.02169999999999454,0.525999999999889,0.010612428579817618,1.1072990261452338,0.034910777611132184,0.03457681798607575
0.6900000000000002,0.0094,-0.474,0.010705943165643507,1.1167564311628277,0.03534469061781916,0.03537908055169672
0.6910000000000001,0.0047,-0.47399999999988895,0.010987029063776636,1.1252160385020218,0.03664894520141258,0.0360967009005622
0.692,0.0033,0.526000000000111,0.01107036450419547,1.150221610637762,0.0370356263934038,0.03821789951890613
0.6930000000000003,0.004400000000000444,1.525999999999889,0.011066401303144653,1.1502216106377623,0.037017236914705084,0.03821789951890615
0.6940000000000002,0.0054,0.526000000000111,0.0110516613260717,1.1506709116074325,0.03694884258120367,0.03825601328774581
0.6950000000000001,-0.0022,1.525999999999889,0.011060232443373955,1.158436860746746,0.03698861305386782,0.03891479127910782
0.696,-0.0086,0.525999999999667,0.0110590105184448,1.1584368607467461,0.03698294325257134,0.03891479127910784
0.6970000000000003,-0.01120000000000333,-2.473999999999445,0.011079277058264017,1.1579905729734694,0.0370769811521186,0.03887693311681827
0.6980000000000002,-0.0187,2.5259999999997778,0.01098721615451507,1.1502216106377623,0.036649813313099334,0.03821789951890615
0.6990000000000001,-0.0296,0.525999999999889,0.010963896945090172,1.159328920893238,0.036541610852640814,0.03899046388279579
0.7,-0.019,-0.474,0.010648788180439113,1.1597746936628819,0.03507948822978354,0.03902827835782283
0.7010000000000003,-0.006700000000002087,-0.474,0.010487308982759215,1.1597746936628819,0.03433021555147491,0.03902827835782283
0.7020000000000002,-0.0114,-0.474000000000111,0.010484273508050226,1.1515689876434603,0.03431613077586406,0.03833219621355326
0.7030000000000001,0.0024,-1.473999999999889,0.01048804265733343,1.15156898764346,0.034333619843304,0.038332196213553237
0.704,0.0114,-0.474,0.010528047355211666,1.15156898764346,0.03451924392092403,0.038332196213553237
0.7050000000000003,0.012900000000003376,2.526,0.010532963905951319,1.1511200372076023,0.03454205699650075,0.038294112180159524
0.7060000000000002,0.0205,0.526,0.010533252273116422,1.1506709116074325,0.03454339503657797,0.03825601328774581
0.7070000000000001,0.0296,-2.474,0.010563871108416792,1.1506709116074325,0.03468546817703088,0.03825601328774581
0.708,0.0158,-0.474,0.010637028015230697,1.1410416120092974,0.035024920393123056,0.03743916907029279
0.7090000000000003,0.01399999999999938,0.526,0.010667216718867983,1.1414945263023069,0.03516499769815038,0.03747758935387376
0.7100000000000002,0.0126,0.526,0.010713567769092306,1.1497721340930018,0.035380069212270986,0.03817977085620056
0.7110000000000001,0.005,-0.474,0.010710921301306322,1.1493224817671601,0.03536778945094846,0.038141627282155026
0.712,0.0115,-0.474,0.010704025450158205,1.1493224817671601,0.035335792308696067,0.038141627282155026
0.7130000000000003,0.007900000000002398,-1.474,0.010690112330068202,1.1410416120092974,0.0352712346387098,0.03743916907029279
0.7140000000000002,0.0133,0.526,0.010686379330211158,1.1414945263023069,0.03525391330666703,0.03747758935387376
0.7150000000000001,-0.0015,0.526,0.010668235960930864,1.1414945263023069,0.035169727039398496,0.03747758935387376
0.716,0.005,0.526,0.01101921178688028,1.1497721340930018,0.03679827487038291,0.03817977085620056
0.7170000000000003,-0.025099999999994228,-2.474,0.011446352942778936,1.1575441131352497,0.0387802341722272,0.03883906035842519
0.7180000000000002,-0.0121,-1.474,0.011477408294104215,1.1493224817671601,0.03892433277190834,0.038141627282155026
0.7190000000000001,-0.0081,0.526,0.01148015791810536,1.1401352436680798,0.038937091183947045,0.037362282716216784
0.72,-0.0045,1.526,0.01151481637763104,1.1670372574758596,0.03909790841098291,0.039644354656421264
0.7210000000000003,-0.014299999999998713,-1.474,0.011518061811790303,1.159328920893238,0.03911296741040651,0.03899046388279579
0.7220000000000002,-0.0114,-0.474,0.011599726524307134,1.150221610637762,0.03949189632973447,0.03821789951890613
0.7230000000000001,-0.014,-0.474,0.011659292013315036,1.1506709116074325,0.039768283592768724,0.03825601328774581
0.724,-0.0119,0.526,0.011661289201311955,1.1777711690067538,0.03977755065887406,0.04055490204102662
0.7249999999999999,-0.0007,-1.474,0.011661416762195828,1.253094691660447,0.03977814254864365,0.046944523974669375
0.7260000000000002,0.0011,0.526,0.011675968654505629,1.2755959103664198,0.03984566415812697,0.04885328070181279
0.7270000000000001,-0.0007,1.526,0.011677429995317595,1.2681398660182903,0.0398524448627616,0.048220791635627494
0.728,-0.0088,0.526,0.011675189383490707,1.2751906262603188,0.039842048296214926,0.048818900841146866
0.7289999999999999,-0.0103,-0.474,0.011673769636681038,1.274785213304905,0.03983546059012098,0.04878451005031775
0.7300000000000002,-0.0092,-0.474,0.01167032864899901,1.274785213304905,0.039819494211209124,0.04878451005031775
0.7310000000000001,-0.0104,0.526,0.011660138194946797,1.2661002146663305,0.039772209923755464,0.048047769974447554
0.732,-0.0206,-1.474,0.011590720779492737,1.2573552270919401,0.03945010916064893,0.047305941094886804
0.7329999999999999,-0.0003,-1.474,0.011534194329992621,1.2661002146663305,0.03918782321409508,0.048047769974447554
0.7340000000000002,-0.0033,-1.474,0.011514182328366358,1.240930446823702,0.0390949663862667,0.04591264279231397
0.7350000000000001,-0.0058,-0.474,0.011506847668286484,1.2640572721880003,0.03906093314556764,0.04787446913018508
0.736,0.0108,0.526,0.011501789646693562,1.255298052610879,0.03903746363717075,0.04713143296352986
0.7369999999999999,0.0129,-0.474,0.011495892383867477,1.2481349235444734,0.039010100001632075,0.046523791618784886
0.7380000000000002,0.0187,-0.474,0.011493123562894298,1.2396801983293984,0.038997252514549295,0.04580658541580976
0.7390000000000001,0.0204,-1.474,0.011442933593443498,1.2392631685355076,0.038764368196476474,0.045771209179752956
0.74,0.0251,1.526,0.011285102275262384,1.2481349235444743,0.03803202188689814,0.04652379161878496
0.7409999999999999,0.0145,2.526,0.011367708279662115,1.2477207196043587,0.0384153184541975,0.04648865509718424
0.7420000000000002,0.0134,1.526,0.011411989586769661,1.2548862130278253,0.03862078624232244,0.0470964970080632
0.7430000000000001,0.0021,-0.474,0.011414988020996825,1.25529805261088,0.03863469914798706,0.04713143296352994
0.744,-0.0055,1.526,0.011408563670541525,1.2481349235444756,0.03860488979581541,0.046523791618785074
0.7449999999999999,-0.002,0.526,0.011401329716570062,1.2569440615453324,0.03857132383719761,0.04727106231728314
0.7460000000000002,-0.0082,0.526,0.011399109435855884,1.249790366556241,0.03856102160817237,0.04666422125623716
0.7470000000000001,-0.0028,-0.474,0.01137867325432974,1.2497903665562424,0.038466196561438806,0.04666422125623727
0.748,-0.0036,-1.474,0.011323588795835027,1.2242853346392577,0.038210601535314574,0.04450065394534181
0.7489999999999999,-0.0062,-0.474,0.011173070215039266,1.2008230345628892,0.03751218674388356,0.042510369610514284
0.7500000000000002,-0.0041,-0.474,0.010796420564724291,1.2008230345628899,0.03576451090495016,0.04251036961051434
0.7510000000000001,-0.0064,0.526,0.010630589646983612,1.200392505431234,0.03499504599759879,0.042473848238627
0.752,-0.0028,-0.474,0.010610481457806242,1.2091219790975711,0.03490174285405252,0.04321436108829853
0.7529999999999999,-0.0094,-0.474,0.010548643263228902,1.2091219790975707,0.03461481010767747,0.043214361088298486
0.7540000000000002,-0.0032,0.526,0.01065556465318417,1.200392505431235,0.035110931449443564,0.04247384823862708
0.7550000000000001,-0.0011,0.526,0.010679950114252169,1.207838805723998,0.03522408137828103,0.04310551072597353
0.756,-0.008,0.526,0.010611383223643316,1.1836140279227334,0.0349059270989191,0.04105054613956896
0.7569999999999999,-0.0124,0.526,0.010435298806338388,1.1840506578423193,0.034088885369345893,0.041087585035424874
0.7580000000000002,-0.0103,-0.474,0.010070591329602115,1.1575441131352728,0.03239662189628193,0.03883906035842715
0.7590000000000001,-0.0125,1.526,0.010022165012186566,1.1840506578423193,0.03217192102414545,0.041087585035424874
0.76,-0.0017,0.526,0.009925970152741161,1.1933329572334508,0.0317255713951421,0.04187499355927867
0.7609999999999999,-0.0061,-0.474,0.009846505733242228,1.193332957233451,0.03135685196078974,0.041874993559278685
0.7620000000000002,0.0116,0.526,0.009835697524865376,1.193332957233451,0.031306701258070155,0.041874993559278685
0.7630000000000001,-0.0004,-0.474,0.009774087492576506,1.1928997248629833,0.031020827197714276,0.0418382428742446
0.764,0.0018,1.526,0.009760689528808254,1.183614027922734,0.030958659882414502,0.041050546139569016
0.7649999999999999,0.0278,1.526,0.009674173078090624,1.1915990826843244,0.030557218621383116,0.04172791064999654
0.7660000000000002,0.0314,1.526,0.009702234570379685,1.191599082684324,0.030687425544546315,0.04172791064999651
0.7670000000000001,0.0085,0.526,0.009690218167006229,1.19203278776025,0.030631668748199618,0.04176470143417969
0.768,-0.0065,-0.474,0.009408348728902664,1.165264256454911,0.029323778494497323,0.039493952686190666
0.7689999999999999,-0.0091,-2.474,0.009354608717041865,1.1562036992373215,0.029074421777360932,0.03872535433750873
0.7700000000000002,0.0028,-0.474,0.009362891041984449,1.1831772368728641,0.02911285223702084,0.04101349357518618
0.7710000000000001,0.014,-0.474,0.0093776504042529,1.1751349569710952,0.02918133651893393,0.04033127471119207
0.772,0.0122,-0.474,0.009267741671122976,1.165707759523267,0.02867135373461881,0.03953157462464188
0.7729999999999999,0.0031,-2.474,0.009196804800913014,1.1733741918629543,0.02834220261486646,0.04018191070166884
0.7740000000000002,0.0016,-4.474,0.009166718902787264,1.182303170667907,0.028202602333270516,0.040939347380240854
0.7750000000000001,0.006,2.526,0.00910079887272439,1.1823031706679064,0.027896729637659864,0.04093934738024079
0.776,0.0023,0.526,0.009104086387552321,1.1823031706679035,0.027911983893783843,0.04093934738024055
0.7769999999999999,-0.0013,1.526,0.009114425948886201,1.1823031706679035,0.027959960047520563,0.04093934738024055
0.7780000000000002,-0.0024,0.526,0.009114697556556453,1.1742549044448267,0.02796122032258672,0.04025662070237127
0.7790000000000001,0.0002,-1.474,0.00908963536318144,1.174254904444826,0.027844930317284553,0.04025662070237122
0.78,-0.0024,0.526,0.009040311417407089,1.1831772368728501,0.027616064398416428,0.041013493575184995
0.7809999999999999,0.0031,0.526,0.009055726343804917,1.182740284514196,0.027687590535243826,0.040976427327133254
0.7820000000000003,-0.0031,-1.474,0.009008217540288119,1.19073119862182,0.02746714697987743,0.04165428888024565
0.7830000000000001,0.002,0.526,0.00887851973063549,1.2078388057239686,0.0268653417529167,0.04310551072597104
0.784,0.0028,2.526,0.008926630485431804,1.2078388057239686,0.027088578396519195,0.04310551072597104
0.7849999999999999,-0.0012,0.526,0.009384890252783327,1.198668842562448,0.029214929828641198,0.04232763157636021
0.7860000000000003,-0.0014,-0.474,0.00937969832359605,1.1982375394255713,0.029190838981376453,0.042291044546354885
0.7870000000000001,-0.001,-0.474,0.009640811674327577,1.2061257843389699,0.030402419806992022,0.04296019677053231
0.788,-0.0039,0.526,0.009639485187231936,1.2294868961982635,0.030396264831285102,0.04494189740629122
0.7889999999999999,-0.0104,-1.474,0.009541985083510151,1.229066407759112,0.02994385879446662,0.04490622777668563
0.7900000000000003,-0.0165,0.526,0.009329825479670066,1.2278040784090236,0.02895942614380857,0.04479914559281208
0.7910000000000001,-0.011,1.526,0.009071880192537346,1.229066407759112,0.02776254531380752,0.04490622777668563
0.792,-0.0041,-0.474,0.009078331922093367,1.2557097571214453,0.027792481706566577,0.04716635746092742
0.7929999999999999,0.0021,-0.474,0.008984304573202321,1.2557097571214453,0.027356189450040064,0.04716635746092742
0.7940000000000003,-0.0033999999999983566,-1.474,0.00898229663389231,1.262829920316784,0.02734687249722936,0.047770354052181135
0.7950000000000002,0.0003,-0.474,0.00896568629518389,1.2552980526108717,0.027269799579166306,0.04713143296352924
0.796,0.0054,0.526,0.009214366131273315,1.2557097571214453,0.028423688188381688,0.04716635746092742
0.7969999999999999,0.0014,0.526,0.00921172450717656,1.2561213266923505,0.02841143090205318,0.04720127051152341
0.7980000000000003,-0.003599999999995159,-0.474,0.009207888985314891,1.2561213266923505,0.028393633862067256,0.04720127051152341
0.7990000000000002,0.0073,0.526,0.009217251517924827,1.2561213266923505,0.028437076546853842,0.04720127051152341
0.8,0.0029,0.526,0.00960228475808135,1.2561213266923505,0.030223652720348416,0.04720127051152341
0.8009999999999999,0.0018,-1.474,0.00967745103620188,1.2557097571214453,0.03057242853379718,0.04716635746092742
0.8020000000000003,0.0008000000000064393,-0.474,0.009667464291975902,1.30142445589667,0.030526089471544626,0.05104429136116471
0.8030000000000002,0.0153,-0.474,0.009666556747152902,1.308295848775513,0.030521878411854057,0.05162718500589228
0.804,0.0135,1.526,0.009620191043563198,1.3079006975615113,0.03030673890528314,0.051593664708711025
0.8049999999999999,0.0044,0.526,0.009617260747683754,1.308295848775513,0.030293142165434456,0.05162718500589228
0.8060000000000003,-0.0068000000000019096,-0.474,0.009625030268433593,1.3086908806760256,0.03032919318442048,0.05166069518182508
0.8070000000000002,-0.0111,-0.474,0.009599384633023615,1.3086908806760256,0.030210195974831593,0.05166069518182508
0.808,-0.0122,-2.474,0.009525478773301864,1.3086908806760256,0.029867268574571715,0.05166069518182508
0.8089999999999999,0.0016,-1.474,0.009472618661644451,1.3082958487755127,0.02962199464451569,0.05162718500589226
0.8100000000000003,-0.00020000000000066614,0.526,0.009389441508813344,1.3082958487755127,0.02923604791595074,0.05162718500589226
0.8110000000000002,-0.0017,-0.474,0.009481006242689735,1.3155243193046215,0.02966091349848961,0.052240369204032244
0.812,-0.0031,0.526,0.009535035430960001,1.3155243193046215,0.02991161201064319,0.052240369204032244
0.813,0.006,0.526000000000111,0.009474123466933665,1.3227132876933443,0.029628977026801343,0.05285020247362104
0.8140000000000003,-0.00259999999999547,1.525999999999889,0.009488614880335646,1.3223224448670543,0.029696218010706304,0.05281704765282288
0.8150000000000002,0.0076,0.525999999999889,0.009496150984114242,1.3155243193046213,0.02973118596164568,0.05224036920403222
0.8160000000000001,0.0011,-0.47399999999988895,0.009082344961065844,1.3086908806760256,0.027811102436061563,0.05166069518182508
0.817,0.0098,0.525999999999889,0.00852584122981781,1.3086908806760256,0.025228893413525248,0.05166069518182508
0.8180000000000003,-0.006800000000000976,-0.474000000000222,0.008489071804489353,1.3170950640129568,0.025058281184881806,0.05237361396591992
0.8190000000000002,-0.009,-2.473999999999667,0.00857443166012405,1.3238851238550084,0.025454355778825676,0.052949608207413255
0.8200000000000001,-0.0069,0.526,0.008531482072449428,1.299834774669664,0.025255067244750795,0.050909440232623115
0.821,-0.0011,0.526000000000111,0.008527165961673838,1.299437050495015,0.02523504024482035,0.05087570167366643
0.8220000000000003,0.0007000000000050182,1.525999999999667,0.008412814675222827,1.299437050495015,0.024704443759958995,0.05087570167366643
0.8230000000000002,0.012,-1.473999999999778,0.008324838899417588,1.2990392045499752,0.02429623114736886,0.050841952785044685
0.8240000000000001,-0.0047,0.525999999999778,0.008324218513892045,1.2749255933093226,0.024293352523180812,0.0487964183509876
0.825,-0.0025,-1.473999999999778,0.008322839821674873,1.1917492614926886,0.024286955312735344,0.04174065017377458
0.8260000000000003,-0.004399999999997558,0.526,0.008303894273037012,1.1671905965826972,0.024199046887539575,0.03965736226527726
0.8270000000000002,0.0011,0.526,0.008319329134151864,1.1752872395758072,0.02427066552258984,0.04034419269798955
0.8280000000000001,0.0058,0.525999999999778,0.008324906323601312,1.1671905965826972,0.024296543999423166,0.03965736226527726
0.829,0.0043,-1.473999999999778,0.008334315440815945,1.1671905965826972,0.02434020283942993,0.03965736226527726
0.8300000000000003,-0.010599999999997424,0.526000000000111,0.00835420163946202,1.1581451098673778,0.02443247593426199,0.038890042332798705
0.8310000000000002,-0.0048,1.525999999999556,0.00836530384433912,1.158591338113259,0.024483990797494627,0.03892789544543661
0.8320000000000001,-0.0139,-2.473999999999889,0.00836644689238364,1.158591338113259,0.024489294605552003,0.03892789544543661
0.833,-0.0092,-1.474,0.008372236173334342,1.1490284166496356,0.024516157199036097,0.038116682021250375
0.8340000000000003,-0.029099999999989253,0.526,0.0084852428568974,1.1572521371883557,0.02504051464988197,0.038814292319854456
0.8350000000000002,-0.0049,0.526,0.008481239302470796,1.131945270545233,0.025021937929220264,0.03666753517842196
0.8360000000000001,0.0248,1.526,0.008538326966351172,1.1324018230076602,0.02528682794247648,0.03670626408441319
0.837,0.0128,2.526,0.008553125553763885,1.1324018230076602,0.025355494231293994,0.03670626408441319
0.8380000000000003,-0.012599999999992761,0.526,0.008578963329414283,1.1319452705452329,0.02547538298254657,0.03666753517842194
0.8390000000000002,0.0037,1.526,0.008676462733665301,1.1402922003891671,0.025927785773780836,0.037375597203807905
0.8400000000000001,0.0124,-1.474,0.008678897132626283,1.1389314828137438,0.02593908152367168,0.037260168841470265
0.841,0.0149,-3.474,0.008852690300958435,1.1472275839182742,0.02674549172745599,0.03796391911381133
0.8420000000000003,0.0028999999999990674,1.526,0.008865741644939442,1.1485784731689066,0.02680605070719257,0.03807851374881596
0.8430000000000002,0.0008,1.526,0.008873416704122233,1.1485784731689066,0.02684166341912508,0.03807851374881596
0.8440000000000001,-0.001,0.526,0.00887863420243994,1.1576987096254228,0.026865872908611945,0.03885217462989939
0.845,-0.0213,-0.474,0.008888680667061697,1.1481283533584845,0.026912489076903783,0.03804033051850339
0.8460000000000003,-0.007899999999996937,-0.474,0.008897927635497788,1.1481283533584845,0.02695539553733889,0.03804033051850339
0.8470000000000002,-0.001,-0.474,0.00893512277845041,1.1481283533584845,0.027127983120015818,0.03804033051850339
0.8480000000000001,0.0056,-1.474,0.00896931286973119,1.1576987096254228,0.027286627091707753,0.03885217462989939
0.849,0.0277,-0.474,0.00916389044959413,1.1576987096254225,0.0281894781492893,0.03885217462989937
0.8499999999999999,0.0128,0.526,0.009150844875606266,1.1576987096254228,0.028128945942649676,0.03885217462989939
0.8510000000000002,0.0048,3.526,0.009146446580655594,1.1576987096254228,0.028108537603464004,0.03885217462989939
0.8520000000000001,0.0026,1.526,0.00915654749004282,1.1576987096254228,0.028155406398569872,0.03885217462989939
0.853,0.0004,0.526,0.009174999054401434,1.157252137188356,0.02824102270856275,0.038814292319854476
0.8539999999999999,0.0023,-0.474,0.009073572520575323,1.1663045495359987,0.02777039781233247,0.039582199747057636
0.8550000000000002,0.0041,-0.474,0.008992002324768112,1.1581451098673778,0.027391907455922706,0.038890042332798705
0.8560000000000001,-0.0039,0.526,0.00899415226104261,1.1581451098673778,0.027401883282739598,0.038890042332798705
0.857,0.0038,0.526,0.009038377732502084,1.1581451098673778,0.027607091990275966,0.038890042332798705
0.8579999999999999,0.0027,0.526,0.008996167226371664,1.1576987096254228,0.027411232836678998,0.03885217462989939
0.8590000000000002,-0.0009,1.526,0.008913401807583897,1.1301172162852458,0.027027196577535727,0.036512463094908194
0.8600000000000001,-0.0132,1.526,0.008912303641514739,1.1207725591318523,0.027022101024401404,0.035719764822096246
0.861,-0.0118,-0.474,0.00893071442258552,1.130574506959035,0.0271075280976149,0.0365512546226588
0.8619999999999999,-0.0041,1.526,0.008935304083129179,1.1301172162852458,0.027128824384056033,0.036512463094908194
0.8630000000000002,-0.0052,0.526,0.009237898610379389,1.130574506959035,0.028532880232312957,0.0365512546226588
0.8640000000000001,-0.0041,-0.474,0.00933943157549569,1.1310316127443192,0.029003998975794164,0.03659003046649546
0.865,-0.0007,-0.474,0.00933694317580562,1.1230761752925411,0.028992452659443394,0.035915178363954935
0.8659999999999999,-0.0014,1.526,0.009321195276010587,1.1328581914751852,0.02891938150708016,0.036744977382293945
0.8670000000000002,0.003,-1.474,0.009395487661218994,1.1407454122238339,0.029264102407622315,0.03741404272756131
0.8680000000000001,0.0138,1.526,0.009687551221029224,1.150377191182279,0.03061929396690391,0.038231097266763256
0.869,0.0033,0.526,0.009665207025430328,1.2359218644225998,0.030515615626154263,0.045487769567602004
0.8699999999999999,-0.0003,0.526,0.009640468293812874,1.2179358283556834,0.030400826501838,0.04396203143821535
0.8710000000000002,0.0008,-0.474,0.009628480499146873,1.2179358283556834,0.030345202451524018,0.04396203143821535
0.8720000000000001,-0.0002,0.526,0.009741439684172563,1.2269618040000867,0.030869339506450037,0.044727696265326
0.873,-0.0028,-0.474,0.009903199397070446,1.2196322621830977,0.03161991379135385,0.044105938287108445
0.8739999999999999,-0.0002,0.526,0.009949910075357175,1.2342478203312575,0.0318366540001756,0.045345762018471514
0.8750000000000002,0.002,0.526,0.010024961203933294,1.2419073591661778,0.03218489551317709,0.045995513326123554
0.8760000000000001,0.0056,1.526,0.010082284263925516,1.240658095136231,0.03245087777780512,0.04588953946078326
0.877,0.0034,0.526,0.010076191348092756,1.240658095136231,0.03242260630116718,0.04588953946078326
0.8779999999999999,-0.0046,0.526,0.01007937538680637,1.2482783006147744,0.03243738042222466,0.04653595415766917
0.8790000000000002,-0.0057,-0.474,0.01009855182489072,1.2558522693949155,0.03252636018760821,0.047178446639928845
0.8800000000000001,-0.0049,-0.474,0.010090116232268069,1.2474498504160454,0.032487218557179606,0.04646567752463028
0.881,0.0034,0.526,0.010035741186856222,1.2478641442658591,0.03223491524818218,0.046500821673184166
0.8819999999999999,0.0045,0.526,0.010148686812636906,1.2406580951362391,0.032758989387438764,0.04588953946078395
0.8830000000000002,0.014,1.526,0.01005715422172627,1.2149613694694295,0.032334272950092495,0.04370971095358127
0.8840000000000001,0.0009,0.526,0.010046015473032957,1.2062741546023772,0.03228258852147037,0.04297278287718224
0.885,0.01,-0.474,0.009616772976695649,1.2067025852723743,0.03029087888025649,0.04300912623858668
0.8859999999999999,0.0053,-0.474,0.009626355564049742,1.207130863885264,0.03033534263159467,0.04304545670113304
0.8870000000000002,0.0068,0.526,0.009307793962272248,1.1996801694731338,0.028857198647728306,0.04241342146486967
0.8880000000000001,-0.0135,1.526,0.009247811892812242,1.1757269618202786,0.02857887842765957,0.040381493912789376
0.889,-0.0106,1.526,0.009180586144544959,1.1761665196699376,0.028266947125180724,0.04041878118213549
0.8899999999999999,-0.024,1.526,0.009223863933115558,1.1680759715163418,0.028467758530113806,0.03973246776879337
0.8910000000000002,-0.012,-1.474,0.009144856811813928,1.1585913381132897,0.028101160985453753,0.0389278954454392
0.8920000000000001,-0.0055,-0.474,0.009033279789813282,1.112279156751747,0.027583437245719496,0.03499927767243539
0.893,-0.0036,-1.474,0.009205766141052715,1.10418862022169,0.028383783743731236,0.03431296524510688
0.8939999999999999,-0.0054,0.526,0.009248033520970778,1.0955666580671537,0.02857990679494353,0.03358157249350989
0.8950000000000002,-0.004,-0.474,0.009266465267516486,1.0955666580671541,0.028665431149155304,0.03358157249350993
0.8960000000000001,0.0098,0.526,0.009016864336414734,1.1037203974674603,0.027507268606598793,0.034273246359493796
0.897,0.008,-1.474,0.008998083194190126,1.111814341202263,0.027420123036528382,0.034959847816721706
0.8979999999999999,0.0192,-0.474,0.00902416236381676,1.111349331246332,0.027541131869585306,0.03492040146969624
0.8990000000000002,0.0054,0.526,0.009023554250046924,1.1013762979013877,0.027538310187042985,0.03407439864931855
0.9000000000000001,0.0,0.526,0.008597693642053553,1.1009068790490921,0.025562292700444744,0.03403457829985769
0.901,0.0047,-1.474,0.008631733199433087,1.1108841266398202,0.02572023818625749,0.03488093861064932
0.9019999999999999,-0.0058,0.526,0.008723230834877626,1.0673483541126918,0.026144792428249304,0.031187840926989917
0.9030000000000002,-0.0068,-1.474,0.008730445390382818,1.0589145836703606,0.026178268376878287,0.03047241229721931
0.9040000000000001,-0.0057,0.526,0.008741650552322696,1.0678325253842094,0.026230260966748704,0.03122891270997532
0.905,-0.0047,0.526,0.008739526798635421,1.0673483541126891,0.0262204066286284,0.03118784092698969
0.9059999999999999,-0.0112,-0.474,0.008731258509216666,1.066863963111377,0.0261820412945988,0.03114675050453729
0.9070000000000003,-0.0069,0.526,0.00874980898296367,1.0673483541126894,0.026268116549789652,0.031187840926989712
0.9080000000000001,-0.0014,0.526,0.00874980898296367,1.077636346598318,0.026268116549789652,0.03206056142814782
0.909,0.0007,-0.474,0.008757083327690663,1.0878270459923616,0.02630186992381458,0.03292502864998383
0.9099999999999999,0.0058,-1.474,0.00875848218744286,1.079074360381998,0.026308360712771706,0.03218254675344025
0.9110000000000003,-0.0033,0.526,0.008666436488287346,1.0707329553705358,0.025881263423932332,0.031474953394275654
0.9120000000000001,-0.0236,-0.474,0.008585524353475133,1.0707329553705358,0.02550582650803563,0.031474953394275654
0.913,-0.0149,-0.474,0.008577450374022324,1.0623260555023704,0.025468362783319782,0.030761804169450672
0.9139999999999999,-0.0015,-0.474,0.008561416824229024,1.0628125147177074,0.025393966198688275,0.030803070036508312
0.9150000000000003,0.0053,-1.474,0.008563857994913743,1.0726622183529768,0.02540529336976311,0.03163861091630959
0.9160000000000001,0.0119,1.526,0.008586386619688335,1.0988643478418405,0.025509827472396756,0.03386131234332499
0.917,0.0256,-1.474,0.00888692276384561,1.0906743058496324,0.02690433230581593,0.033166558963408525
0.9179999999999999,-0.0019,-4.474,0.009121507869241652,1.080988736388694,0.0279928205614972,0.03234494142764929
0.9190000000000003,-0.005799999999995159,1.526,0.00921675021322052,1.0726622183529768,0.02843475046446155,0.03163861091630959
0.9200000000000002,0.0051,0.526,0.009311836473547904,1.0726622183529768,0.028875956130389374,0.03163861091630959
0.921,0.0149,-1.474,0.009491089864311505,1.0731439921666064,0.029707702077378717,0.03167947932524971
0.9219999999999999,0.0179,-0.474,0.009524145954287298,1.0731439921666064,0.02986108421840019,0.03167947932524971
0.9230000000000003,0.015399999999999024,2.526,0.009534095578191987,1.0833769493606484,0.029907251040246854,0.03254753123558974
0.9240000000000002,0.0132,1.526,0.009554295358520126,1.0833769493606484,0.03000097917195155,0.03254753123558974
0.925,0.0111,1.526,0.00971029202627561,1.0833769493606484,0.030724812599016712,0.03254753123558974
0.9259999999999999,-0.0027,0.526,0.009708468966622062,1.092095152065347,0.030716353498346425,0.0332870879804329
0.9270000000000003,0.002799999999995026,1.526,0.009694220814813201,1.0833769493606484,0.030650241262094573,0.03254753123558974
0.9280000000000002,-0.0084,1.526,0.010037460191123108,1.092095152065347,0.03224289152592928,0.0332870879804329
0.929,-0.0009,-0.474,0.010283421121387904,1.0925683568573572,0.03338416425719531,0.03332722948751608
0.9299999999999999,-0.002,-0.474,0.010364139515281546,1.092568356857357,0.0337587022041905,0.03332722948751606
0.9310000000000003,-0.01579999999999436,-0.474,0.010712249250880799,1.1007443063324385,0.03537395121264052,0.034020787412767636
0.9320000000000002,-0.0031,0.526,0.011109668136563663,1.110723014259624,0.03721799748711056,0.0348672716024955
0.933,-0.0079,-0.474,0.011434858593423382,1.1111882863166516,0.03872689973627017,0.034906740183304745
0.9339999999999999,0.0026,-0.474,0.011387131464824644,1.103089748900805,0.03850544314008343,0.034219749048534934
0.9350000000000003,-0.006499999999998401,-0.474,0.011394338073875574,1.1130474296330524,0.038538882216711846,0.03506444952155324
0.9360000000000002,-0.0029,-0.474,0.011420225502138516,1.1405885178693709,0.038659001358915826,0.03740073353047091
0.937,0.0072,-0.474,0.011455175266303108,1.1497721340930125,0.03882117025607476,0.038179770856201466
0.938,0.0061,-0.47399999999988895,0.011467356078831384,1.1497721340930127,0.03887768992026785,0.03817977085620148
0.9390000000000003,0.009699999999994538,0.526,0.01152304116864311,1.1414945263023175,0.039136071909926955,0.03747758935387467
0.9400000000000002,-0.0026,0.526000000000111,0.01163088011783011,1.1336125176006377,0.039636450778810756,0.036808966141535476
0.9410000000000001,-0.0041,1.525999999999778,0.011436836560155003,1.1256753202160736,0.03873607761460931,0.03613566132634205
0.942,-0.0179,-0.47399999999988895,0.011377943158220492,1.1437564075382973,0.038462808873891065,0.03766946256223693
0.9430000000000003,-0.008799999999993428,0.526,0.011492829515125773,1.1529147900110674,0.038995888116148514,0.03844635933316659
0.9440000000000002,0.006,0.526000000000111,0.011515077631836679,1.1433043892785333,0.03909912064538332,0.03763111828829379
0.9450000000000001,0.0001,1.526,0.01157242734670907,1.1433043892785333,0.039365226590174135,0.03763111828829379
0.946,0.0055,1.525999999999889,0.011576699904276008,1.1433043892785333,0.03938505150073477,0.03763111828829379
0.9470000000000003,0.006999999999999334,0.526,0.011536479032187717,1.1433043892785333,0.0391984243624625,0.03763111828829379
0.9480000000000002,0.0055,0.526,0.011533307784504341,1.1336125176006377,0.03918370959251415,0.036808966141535476
0.9490000000000001,-0.0036,0.525999999999778,0.01144705169863754,1.1331564529311495,0.03878347643922619,0.036770278614549796
0.95,-0.0148,-1.474,0.011766802712741586,1.142852192237565,0.040267139364060386,0.03759275884851316
0.9510000000000003,-0.013399999999995959,-1.473999999999889,0.012255479340075924,1.142852192237565,0.0425346267596533,0.03759275884851316
0.9520000000000002,-0.0043,-0.47399999999977793,0.01276662533347469,1.1606657255831834,0.044906373294088135,0.03910386373807263
0.9530000000000001,0.0045,1.525999999999889,0.012899305742251106,1.161110985127989,0.04552201795093153,0.0391416346767306
0.954,0.0012,0.526,0.012881379728160279,1.1764538013961534,0.04543884022412701,0.04044315101448392
0.9550000000000003,-0.001299999999996314,0.525999999999889,0.012873345514855484,1.1764538013961534,0.04540156101660383,0.04044315101448392
0.9560000000000002,0.007,-0.474000000000111,0.012877321405031603,1.1844871268097856,0.04542000937356697,0.04112461027786739
0.9570000000000001,0.0038,-1.474,0.012940624017403753,1.1840506578422856,0.045713737101952374,0.041087585035422015
0.958,0.0045,-1.473999999999778,0.012970651941496285,1.1840506578422867,0.04585306838073083,0.041087585035422106
0.9590000000000003,0.0019000000000009326,0.525999999999889,0.013077380227517888,1.192032787760219,0.04634829370924168,0.04176470143417707
0.9600000000000002,0.004,-0.474,0.013132510461583272,1.1920327877602201,0.04660410113662211,0.04176470143417716
0.9610000000000001,-0.001,-0.474,0.013162219954968472,1.1920327877602201,0.04674195487877439,0.04176470143417716
0.962,-0.0018,-0.474,0.013194090722130195,1.1920327877602193,0.04688983705439897,0.04176470143417709
0.9630000000000003,-0.0003999999999977352,-0.474,0.012998301462176452,1.1920327877602193,0.04598136373215465,0.04176470143417709
0.9640000000000002,0.0047,-1.474,0.012912398164730126,1.1995309835984576,0.04558276753723954,0.04240076617070076
0.9650000000000001,-0.0062,2.526,0.012977110073226177,1.1995309835984578,0.045883034479941444,0.04240076617070078
0.966,-0.0229,-0.474,0.013192961125734655,1.1907311986218097,0.046884595662759335,0.04165428888024477
0.9670000000000003,-0.020699999999999243,-0.474,0.013269866337656722,1.1831772368728344,0.047241440228131565,0.041013493575183656
0.9680000000000002,-0.019,-0.474,0.013056697217189139,1.1738146307536517,0.04625232336279974,0.0402192727088783
0.9690000000000001,-0.0136,0.526,0.013079940700173485,1.0828997281210169,0.04636017444825921,0.03250704901712036
0.97,-0.0183,-0.474,0.013199043133571125,1.0741068915177492,0.04691281652567296,0.03176116115049094
0.9710000000000003,-0.007899999999998401,-0.474,0.013190474225278706,1.0745880176361888,0.046873056302940315,0.03180197461607146
0.9720000000000002,-0.0043,-1.474,0.013410122378761378,1.0731439921665709,0.04789223625063702,0.0316794793252467
0.9730000000000001,0.0069,-0.474,0.01340518497719986,1.0731439921665709,0.04786932642605877,0.0316794793252467
0.974,0.0174,0.526,0.01331757761813599,1.0458038125795435,0.04746282328814094,0.02936023820368935
0.9750000000000003,-0.00039999999999902304,1.526,0.013325707265844191,1.0366963912579523,0.04750054531673378,0.02858766441816803
0.9760000000000002,0.0018,0.526,0.013560397663521566,1.0553225167719626,0.04858952213459999,0.030167700719315026
0.9770000000000001,0.0263,1.526,0.013712256376498097,1.0642705582531902,0.049294155215710414,0.030926754466369076
0.978,0.0229,-0.474,0.013772564743063638,1.0558122028311951,0.04957398947294122,0.030209240316434727
0.9789999999999999,0.0142,-0.474,0.013862109633569536,1.0472855361027213,0.049989482867150464,0.029485931384116135
0.9800000000000002,0.0276,1.526,0.013926995381981213,1.0472855361027213,0.05029055643696626,0.029485931384116135
0.9810000000000001,0.0297,-1.474,0.014034530286465865,1.0467918613022422,0.050789524521106716,0.02944405342591534
0.982,0.0275,-0.474,0.01401234872269658,1.0462979535711905,0.050686600801313215,0.029402155708438245
0.9829999999999999,0.0093,-0.474,0.014048543053193035,1.056790894231193,0.0508545445571673,0.0302922617659817
0.9840000000000002,0.0042,-1.474,0.014032665281792324,1.0652414785612045,0.050780870793153646,0.031009116701662166
0.9850000000000001,-0.0125,-2.474,0.014059608364827496,1.0939867431235009,0.050905888233651914,0.03344754982938587
0.986,-0.0103,-1.474,0.014045949246375469,1.1021521708218247,0.05084250914573885,0.034140215202441496
0.9869999999999999,-0.0085,0.526,0.014107207675798933,1.1016830825631794,0.051126751748764944,0.03410042289692181
0.9880000000000002,-0.0176,0.526,0.014093899438747393,1.1016830825631794,0.05106500077054334,0.03410042289692181
0.9890000000000001,-0.019,-0.474,0.014091456667059018,1.10121379448523,0.05105366617072031,0.03406061364092288
0.99,-0.0114,-0.474,0.014058654637473666,1.10121379448523,0.05090146288438682,0.03406061364092288
0.9909999999999999,0.0034,-2.474,0.014060903938434748,1.1016830825631794,0.05091189976901126,0.03410042289692181
0.9920000000000002,0.0172,-1.474,0.014062808011772322,1.0935141521208673,0.050920734777791576,0.03340746038946479
0.9930000000000001,0.0081,0.526,0.013959933812142345,1.101683082563183,0.05044339262974346,0.03410042289692211
0.994,0.0128,0.526,0.013946638913458959,1.1021521708218283,0.050381703542310106,0.034140215202441794
0.9949999999999999,0.0052,-0.474,0.013934956375531523,1.1026210595161965,0.05032749590065658,0.034179990579115915
0.9960000000000002,-0.0013,0.526,0.013938487586627312,1.1201515110230702,0.05034388092134921,0.03566708190873907
0.9970000000000001,-0.0074,0.526,0.013943684483751335,1.1215350138855793,0.05036799482012353,0.03578444312505113
0.998,-0.0129,0.526,0.013944821720597236,1.1219958024042151,0.05037327166388819,0.03582353137161366
0.9989999999999999,-0.0277,-1.474,0.013935427890083184,1.1219958024042151,0.05032968375504315,0.03582353137161366
1.0000000000000002,-0.0342,0.526,0.013933554858671362,1.1224564017609024,0.050320992782567096,0.035862603571750154
1.0010000000000001,-0.036,-2.473999999999556,0.013991494664445795,1.1130474296330235,0.050589836782766726,0.03506444952155079
1.002,-0.0193,-0.474,0.01392677213762653,1.1030897489007774,0.05028952057044008,0.034219749048532595
1.003,0.001,2.5259999999995557,0.013978321670159912,1.12858566994532,0.050528713338683896,0.036382543492887304
1.0040000000000002,0.0036,0.526,0.014011146168904661,1.1206128684289833,0.05068102088319728,0.03570621841346183
1.0050000000000001,0.0058,1.525999999999778,0.01401087851301494,1.1206128684289833,0.050679778944617955,0.03570621841346183
1.006,0.0171,0.526,0.014195128827640787,1.1210740359717493,0.051534710903052505,0.035745338812276546
1.007,0.0113,0.5260000000002221,0.01440987837043995,1.1304162009504894,0.05253116101805523,0.036537825676311184
1.0080000000000002,0.0168,1.526,0.01451382457345594,1.1210740359717488,0.05301347732289713,0.035745338812276505
1.0090000000000001,0.0121,-0.474000000000222,0.014643402569827782,1.1196899635193382,0.053614726609408046,0.0356279292782013
1.01,0.0106,-1.474,0.014668296366863537,1.1196899635193387,0.05373023524610084,0.03562792927820134
1.011,-0.0097,0.525999999999778,0.014700825575296252,1.1192282256825845,0.05388117262674077,0.03558876050189647
1.0120000000000002,-0.0068,-0.474,0.014752122942259624,1.1192282256825845,0.054119195332371355,0.03558876050189647
1.0130000000000001,0.0012,1.525999999999556,0.014753172738385249,1.1187662972771544,0.054124066446211566,0.03554957555983423
1.014,0.0131,-0.474,0.014776781642653468,1.1187662972771544,0.05423361310724989,0.03554957555983423
1.015,0.0244,-0.474,0.014833484545347133,1.1093260272263885,0.05449671780667611,0.0347487665369582
1.0160000000000002,0.0186,-0.474,0.014898641143011064,1.0833769493606267,0.05479904813245533,0.032547531235587894
1.0170000000000001,0.0096,0.526,0.014785751209256811,1.0930413567872397,0.05427523240737471,0.033367353616342126
1.018,0.0081,0.526,0.014657752130879342,1.0930413567872397,0.05368130939032432,0.033367353616342126
1.019,0.0187,0.525999999999778,0.014575311411055959,1.0925683568573354,0.05329877975287711,0.03332722948751424
1.0200000000000002,-0.0016,-0.474,0.014545294088940832,1.0925683568573357,0.05315949766787791,0.03332722948751425
1.0210000000000001,-0.0283,1.525999999999556,0.014577536780062983,1.1007443063324172,0.05330910559187108,0.03402078741276583
1.022,-0.0174,-0.474,0.014771664340768268,1.1002746178485998,0.05420986853491905,0.03398094419072248
1.023,-0.001,0.526,0.014801539227293312,1.0988643478418192,0.054348489710664284,0.03386131234332318
1.0240000000000002,0.014,0.526,0.014832253425608188,1.0988643478418192,0.05449100534093828,0.03386131234332318
1.0250000000000001,0.0275,2.526,0.014871676727795791,1.0988643478418192,0.05467393170942588,0.03386131234332318
1.026,0.0206,1.526,0.015251702068510413,1.0902002789392318,0.05643727094416026,0.033126347716813505
1.027,-0.0131,-0.474,0.015266941227073491,1.0902002789392318,0.05650798150821918,0.033126347716813505
1.0280000000000002,-0.0178,-0.474,0.015077366623284842,1.0814668008961397,0.05562834454469159,0.032385495179715756
1.0290000000000001,-0.0134,-0.474,0.014921951088411507,1.0814668008961394,0.05490720760731251,0.032385495179715736
1.03,-0.0174,0.526,0.014890063691954183,1.0809887363886723,0.054759248270808816,0.03234494142764745
1.031,-0.0137,0.526,0.014688542716429514,1.0721802280589448,0.05382417946172262,0.03159772414354526
1.0320000000000003,-0.0105,-1.474,0.014386622027117093,1.06183937342605,0.05242325025989228,0.03072051939731031
1.0330000000000001,0.0044,1.526,0.014162004401075073,1.0613524681822128,0.05138101167635998,0.030679215694084275
1.034,-0.009,-2.474,0.01434030497654903,1.0613524681822126,0.05220833650611403,0.030679215694084255
1.035,-0.0021,1.526,0.014457907243907244,1.0509050743210686,0.052754017727625474,0.029792973327652694
1.0360000000000003,-0.0134,0.526,0.014475653893302107,1.0209475445639051,0.052836363192020536,0.027251704910159984
1.0370000000000001,-0.0036,-0.474,0.014565121006013518,1.010593932056647,0.05325149569283159,0.02637341792572126
1.038,0.0055,0.526,0.014540172145768925,1.010593932056647,0.05313573155971229,0.02637341792572126
1.039,0.0008,0.526,0.014433454764072066,1.010593932056647,0.05264055682788958,0.02637341792572126
1.0400000000000003,-0.0036,-0.474,0.014385830305793356,1.010593932056647,0.052419576627837916,0.02637341792572126
1.0410000000000001,-0.0047,-0.474,0.014502415664218855,1.0100823245005148,0.05296053933395816,0.0263300187491173
1.042,-0.0058,1.526,0.01475777170932777,0.9783480579754361,0.05414540593343392,0.023638031461574185
1.043,0.0065,-0.474,0.01502343789192661,0.9675386965403273,0.05537811215833388,0.022721083734209013
1.0440000000000003,0.001700000000000666,-0.474,0.015076105782883039,0.9675386965403273,0.05562249417338462,0.022721083734209013
1.0450000000000002,0.0032,2.526,0.015025072685612977,0.9675386965403273,0.05538569769418906,0.022721083734209013
1.046,0.0067,-1.474,0.015025417940042139,0.9670043102600958,0.055387299694412945,0.022675752260362475
1.047,-0.0071,-0.474,0.015024905483657335,0.9670043102600957,0.05538492186758772,0.022675752260362465
1.0480000000000003,0.0018999999999979127,0.526,0.01503679847667412,0.9783480579754361,0.055440106032847554,0.023638031461574185
1.0490000000000002,-0.0028,-0.474,0.015124015781502046,0.9783480579754361,0.055844799296885336,0.023638031461574185
1.05,-0.0195,-0.474,0.014924295223299903,0.9670043102600957,0.054918084526763326,0.022675752260362465
1.051,0.0008,0.526,0.014526843647968407,0.9783480579754361,0.05307388657046097,0.023638031461574185
1.0520000000000003,-0.012699999999999023,2.526,0.014122016573399662,0.9571473916294073,0.05119546587744232,0.021839599339443672
