time_sec,bts_raw,diy_raw,bts_rms,diy_rms,bts_norm_rms,diy_norm_rms
0.0,-0.0152,0.388,0.047858377637465095,0.9295012439024122,0.11869591030597923,0.010333607105701735
0.0010000000000000009,-0.017,1.388,0.04909448224673327,0.9430375390763432,0.1219488108148473,0.011222221550794394
0.0020000000000000018,-0.0186,0.388,0.04931573346913436,0.9448943888734521,0.12253104973584145,0.011344117795732672
0.0030000000000000027,0.0041,-0.612,0.04910501623122025,0.9457744871100288,0.12197653177247597,0.011401893427548734
0.0040000000000000036,0.0338,-0.612,0.04876397078379587,0.9466537671249935,0.12107904550702898,0.011459615345735306
0.0050000000000000044,0.0298,-2.612,0.04857260941719214,0.9599482238657331,0.12057546394755926,0.012332353871874426
0.006000000000000005,0.0551,0.388,0.04914499628344966,0.9943286488217441,0.12208174223060914,0.014589318709873244
0.007000000000000006,0.0321,-1.612,0.04908386012904025,0.9960898894603057,0.12192085792818237,0.014704938519621793
0.008000000000000007,0.0292,-0.612,0.04917310609570644,1.0087330199691484,0.12215571527618202,0.015534919563695508
0.009000000000000008,0.0426,-0.6119999999999982,0.048930625215251745,1.0185109956432068,0.12151760894318418,0.016176812364944875
0.010000000000000009,0.0061,0.388,0.048390048534515714,1.019327534499986,0.12009504151105599,0.016230415526946745
0.01100000000000001,-0.0094,0.388,0.04800614308125068,1.0290048421945632,0.11908476597699548,0.01686569979760663
0.01200000000000001,-0.0141,1.388,0.04780538456087993,1.0307068309064547,0.11855645511383944,0.016977429908049558
0.013000000000000012,-0.0098,0.388,0.047952031131478605,1.0402782867806408,0.11894236638748691,0.017605765345558994
0.014000000000000012,-0.0378,0.388,0.0479999058032492,1.0497624762856135,0.11906835211959793,0.018228372025291095
0.015000000000000013,-0.0415,0.388,0.047822978664388456,1.0505547253527572,0.11860275529573897,0.018280380640361107
0.016000000000000014,-0.0053,1.388,0.04751583819061208,1.0513463774155074,0.1177944924707725,0.01833235006400385
0.017000000000000015,0.0185,0.388,0.04729894169931338,1.0607316097744748,0.11722371334607129,0.01894846052388735
0.018000000000000016,0.0055,-1.612,0.047314429072879256,1.0700345277815977,0.11726446951264144,0.019559167310081147
0.019000000000000017,-0.0064,-1.612,0.047222008801925855,1.0716713566491154,0.11702125874863334,0.01966661988533394
0.020000000000000018,-0.0245,0.388,0.0463709249307843,1.0733056892980324,0.1147815687282516,0.019773908591826626
0.02100000000000002,-0.0213,-1.612,0.04525460933517164,1.0850494644810247,0.11184390184973746,0.02054484983782023
0.02200000000000002,0.0174,-1.612,0.04505690777721582,1.086663676759248,0.11132363560879265,0.020650817706387218
0.02300000000000002,0.033,0.388,0.04524248292744257,1.0882754947187296,0.11181199031281988,0.02075662839559364
0.02400000000000002,0.0092,-0.612,0.040699118695859945,1.11459600905515,0.09985579201853634,0.022484485903211757
0.025000000000000022,0.0223,-1.612,0.038758796856010316,1.123452983471808,0.09474969189327956,0.02306591792026881
0.026000000000000023,0.0103,-0.6119999999999931,0.038344885250411784,1.124193302068381,0.0936604529547766,0.02311451746618831
0.027000000000000024,-0.0224,1.388,0.038172985517084757,1.1329752526359294,0.09320808611962271,0.02369102440772148
0.028000000000000025,-0.0268,1.388,0.03777099191848314,1.1345212775011393,0.09215021029612984,0.023792515990909157
0.029000000000000026,-0.0468,0.388,0.037767372493029146,1.136065198446016,0.09214068551091924,0.02389386945846213
0.030000000000000027,-0.0505,0.388,0.03772258701306193,1.1367973035963315,0.0920228292150338,0.023941929817928136
0.031000000000000028,-0.0278,1.388,0.037683237585075434,1.1383381375853392,0.09191927829113852,0.024043080636710436
0.03200000000000003,-0.0192,1.388,0.03754334600440375,1.139068781867435,0.09155114327202984,0.024091045094854425
0.03300000000000003,0.0049,1.388,0.03748268332793595,1.140606547343268,0.09139150496175104,0.024191994475569887
0.03400000000000003,-0.0444,0.388,0.03746938349789436,1.1421422423935206,0.0913565054774147,0.02429280793947394
0.03500000000000003,-0.0797,-3.612,0.037496168743461414,1.1428704546900332,0.09142699282798514,0.02434061274554979
0.03600000000000003,-0.0091,-2.6119999999999863,0.03753813575132738,1.1435982032808143,0.09153743210652136,0.0243883871108288
0.03700000000000003,0.0191,-0.612,0.037538645045843685,1.152232265308147,0.09153877235262904,0.02495518564312511
0.038000000000000034,0.06170000000000603,-3.612,0.03748608830818295,1.1537524861227875,0.0914004654185725,0.025054983272998144
0.039000000000000035,0.11600000000000076,-1.612,0.03727359671442795,1.1646853810903386,0.09084127810685698,0.025772692828678986
0.040000000000000036,0.12279999999998929,0.388,0.03725783745310353,1.173164259426439,0.09079980644758377,0.026329304048427826
0.041000000000000036,0.026299999999992305,0.388,0.03723439805438683,1.1738732273713754,0.09073812393993723,0.026375845524428686
0.04200000000000004,-0.043000000000001364,0.388,0.03717878258250742,1.1745817673891386,0.09059176772103714,0.026422358908380527
0.04300000000000004,-0.05529999999998858,-0.612,0.03718821103715789,1.1752898802536742,0.09061657939530837,0.02646884425109041
0.04400000000000004,0.04760000000000152,-0.612,0.03713490438048213,1.1836928002217189,0.0904762989940167,0.027020469047138174
0.04500000000000004,0.06129999999999025,0.388,0.03716557955409147,1.1843954658982943,0.09055702297732304,0.02706659679939628
0.04600000000000004,-0.026500000000006317,0.388,0.03717126634167756,1.1927342379216235,0.09057198817856403,0.027614010488227134
0.04700000000000004,-0.08339999999999659,0.388,0.03760888059052497,1.1934315802148774,0.09172360237212848,0.02765978877741167
0.04800000000000004,-0.05259999999999266,-0.612,0.03797630509781651,1.2017076513546119,0.09269050708049846,0.028203086353955784
0.049000000000000044,0.013500000000010668,-2.612,0.03842309336338627,1.225594545647373,0.09386626337614777,0.029771184496335798
0.050000000000000044,0.10959999999999337,-1.612,0.03835471778200164,1.2336548678583603,0.09368632798733638,0.0303003188463741
0.051000000000000045,0.04979999999999568,-0.6119999999999931,0.039500920167426554,1.2336548678583603,0.09670264415900888,0.0303003188463741
0.051999999999999935,0.0109,0.388,0.040358343538772525,1.252705416163469,0.09895901704205959,0.03155092635702125
0.052999999999999936,-0.0103,0.388,0.04066970484493078,1.2785913165301435,0.09977838729895366,0.033250252848833865
0.05399999999999994,0.0342,-1.612,0.04067277184208567,1.287104263989499,0.0997864583283237,0.03380910059746059
0.05499999999999994,0.0751,-2.612,0.040533484946545593,1.2863886483898577,0.09941991458276707,0.033762122724209156
0.05599999999999994,0.0167,-0.612,0.040436189469192856,1.2678443232556682,0.09916387435330894,0.03254474714418551
0.05699999999999994,-0.0377,-1.612,0.04009482116153438,1.2749853318128637,0.09826553845732751,0.03301353149580595
0.05799999999999994,-0.0587,1.388,0.04012343123619149,1.2656635939263747,0.0983408279803283,0.032401589244778935
0.05899999999999994,-0.0649,0.38800000000000695,0.040127864933527116,1.2656635939263747,0.098352495582092,0.032401589244778935
0.05999999999999994,-0.0239,1.388,0.03994321460715936,1.2742629103384797,0.0978665746203055,0.03296610683866498
0.06099999999999994,-0.0189,-0.612,0.040657212210766125,1.2749853318128634,0.09974551201014185,0.03301353149580594
0.061999999999999944,-0.043,1.388,0.041219229880601,1.2757073441865978,0.1012245029875164,0.0330609292967989
0.06299999999999994,-0.0215,1.388,0.04120548344867431,1.275707344186598,0.10118832823735838,0.033060929296798915
0.06399999999999995,-0.0096,0.388,0.042461824407411176,1.3198122339903609,0.10449448219337873,0.03595627412160165
0.06499999999999995,-0.0205,0.388,0.04383854467489059,1.3266735473796716,0.10811742318484073,0.036406697380824846
0.06599999999999995,-0.0432,1.388,0.044867493842329575,1.3266735473796716,0.11082517885961593,0.036406697380824846
0.06699999999999995,-0.0343,1.388,0.04516924185339287,1.3287541519551154,0.11161925102096709,0.036543282410665644
0.06799999999999995,-0.0208,-0.612,0.04600669603716582,1.3376362957415922,0.11382307351311163,0.03712636671627784
0.06899999999999995,0.0157,-0.612,0.048393361817284666,1.3287541519551151,0.12010376065919631,0.03654328241066563
0.06999999999999995,0.0525,-1.612,0.04873294651954595,1.3205097366790948,0.12099740286593763,0.03600206294023599
0.07099999999999995,0.0665,-0.612,0.04867721143214408,1.329446963218775,0.12085073186996208,0.036588763252262284
0.07199999999999995,0.0447,-0.6119999999999584,0.04868543344519253,1.3273674446025212,0.12087236870411729,0.03645224951216587
0.07299999999999995,0.0167,2.388,0.048663770241786565,1.3191143624860437,0.12081536038552142,0.03591046109140495
0.07399999999999995,0.0058,1.388,0.04855331468333416,1.3259792870340381,0.12052468843138167,0.0363611214116355
0.07499999999999996,-0.0106,0.388,0.04868561005663689,1.3259792870340381,0.12087283347016775,0.0363611214116355
0.07599999999999996,-0.0077,1.388,0.049103948197130855,1.3170185292151229,0.12197372116194444,0.035772876346456955
0.07699999999999996,-0.0051,-0.612,0.04913656993717797,1.3170185292151229,0.12205956767849635,0.035772876346456955
0.07799999999999996,0.0018,-0.612,0.04917003592438854,1.3170185292151229,0.12214763589376777,0.035772876346456955
0.07899999999999996,-0.0094,0.388,0.04937207432129687,1.3101066513721817,0.12267931484649258,0.03531913369272243
0.07999999999999996,-0.0112,-0.612,0.04935713161118708,1.317018529215123,0.1226399920020055,0.03577287634645697
0.08099999999999996,0.0056,0.388,0.04911561301402917,1.3238943215462102,0.12200441798852357,0.036224250101857064
0.08199999999999996,0.0035,-0.612,0.04904234096890847,1.317018529215123,0.12181159719401166,0.03577287634645697
0.08299999999999996,0.0054,-0.612,0.04953186579330953,1.3191143624860437,0.12309981789835846,0.03591046109140495
0.08399999999999996,0.0144,0.388,0.050225095426192135,1.3129150637662332,0.12492410284047296,0.035503496975959455
0.08499999999999996,0.019,0.388,0.05012597555426893,1.3219036379447722,0.12466326158205486,0.03609356809610015
0.08599999999999997,0.0023,1.3879999999999721,0.04953596581303744,1.2735400790672537,0.12311060740287068,0.032918655279673185
0.08699999999999997,-0.0089,-0.6120000000000139,0.04954691137242473,1.2735400790672542,0.12313941145022542,0.03291865527967321
0.08799999999999997,-0.0071,-1.612,0.04955799822767818,1.2735400790672542,0.12316858732808017,0.03291865527967321
0.08899999999999997,0.002,1.388,0.04919196100550068,1.2225129063923892,0.12220533336287509,0.029568884744346283
0.08999999999999997,-0.0091,0.388,0.04781023095567939,1.2202511672909682,0.118569208759438,0.029420408812732127
0.09099999999999997,-0.0047,0.388,0.046271295568349094,1.2276690431876602,0.11451938670794869,0.029907368618868724
0.09199999999999997,-0.0083,0.388,0.046289913961956336,1.2503951440460623,0.11456838238483978,0.031399264388274
0.09299999999999997,0.0054,1.388,0.046154956317969766,1.257635235106073,0.11421323138426269,0.03187455318901631
0.09399999999999997,0.0181,0.388,0.04615136484825537,1.2569028414744878,0.11420378016664409,0.031826473891678454
0.09499999999999997,-0.0064,1.388,0.046285197787040024,1.256902841474488,0.1145559714224745,0.03182647389167847
0.09599999999999997,-0.0607,0.388,0.04588125333500323,1.2827040375424248,0.11349296178418598,0.03352023981743866
0.09699999999999998,-0.0531,1.388,0.045804920069919756,1.2919028257864322,0.11329208516341148,0.03412411081802941
0.09799999999999998,-0.06,2.388,0.04504780052040188,1.2919028257864322,0.11129966919033393,0.03412411081802941
0.09899999999999998,0.0106,1.388,0.04524774213680256,1.2919028257864322,0.11182583031040189,0.03412411081802941
0.09999999999999998,0.0958,0.388,0.04544529218297481,1.2919028257864322,0.11234569783690601,0.03412411081802941
0.10099999999999998,0.0846,-2.612,0.04416898214715279,1.2919028257864322,0.10898699378073648,0.03412411081802941
0.10199999999999998,0.0537,-2.6119999999999863,0.044325630837727024,1.2911898696943465,0.10939922637129702,0.034077307532935246
0.10299999999999998,0.0065,-1.6119999999999723,0.04434740579867187,1.2919028257864322,0.1094565287881046,0.03412411081802941
0.10399999999999998,-0.002,0.3880000000000139,0.044335207887869404,1.2926153886398823,0.10942442908557218,0.034170888288266
0.10499999999999998,-0.0096,1.388,0.044460540322662896,1.2834217076243113,0.10975425063777787,0.03356735256087257
0.10599999999999998,-0.0165,1.388,0.04391930064924059,1.264833883522513,0.10832993849146418,0.03234712141287652
0.10699999999999998,-0.0353,0.388,0.04402649322613749,1.264833883522513,0.10861202366881921,0.03234712141287652
0.10799999999999998,-0.0296,-0.612,0.043965028104995384,1.2776690597380764,0.10845027366615627,0.03318970964280997
0.10899999999999999,0.0182,-1.612,0.0435715010302822,1.2705431349960716,0.10741467812513991,0.03272191549536972
0.10999999999999999,0.0762,-0.612,0.04309415802497031,1.2776690597380764,0.10615851477679437,0.03318970964280997
0.11099999999999999,0.0686,-0.612,0.04307946973385094,1.2798293328537897,0.10611986145465777,0.03333152465728049
0.11199999999999999,-0.0093,1.388,0.04316461682400501,1.2798293328537895,0.10634393230660191,0.03333152465728047
0.11299999999999999,-0.1029,3.388,0.04331627704802005,1.2819859657008623,0.10674303737924269,0.033473100699768145
0.11399999999999999,-0.1153,1.388,0.04331378731417964,1.2841389766201197,0.1067364854608891,0.03361443897428944
0.11499999999999999,-0.1041,0.388,0.043303426740372374,1.2911898696943465,0.10670922084626253,0.034077307532935246
0.11599999999999999,-0.0523,-1.612,0.043297860453702715,1.2919028257864322,0.10669457275207658,0.03412411081802941
0.11699999999999999,0.0894,-1.612,0.04308663443341715,1.2855723140384983,0.10613871589035039,0.033708532987333416
0.118,0.1503,0.38799999999998613,0.043061541982059984,1.2792104744605675,0.1060726832526784,0.033290898584886375
0.119,0.0579,-0.6120000000000139,0.043154599174205145,1.2792104744605675,0.10631757012181,0.033290898584886375
0.12,0.008,-1.612,0.043135580126592875,1.2877193287526965,0.10626752009433478,0.03384947763018793
0.121,0.0233,1.388,0.04326125618327522,1.2877193287526965,0.10659824591290168,0.03384947763018793
0.122,0.0095,-0.612,0.04276724261118742,1.2870040551488677,0.10529821273772927,0.03380252220786678
0.123,-0.0028,1.388,0.04265355151193113,1.2870040551488677,0.10499902621916794,0.03380252220786678
0.124,-0.0369,-0.612,0.04278856203828326,1.2720931843396128,0.10535431638359295,0.032823671272676484
0.125,-0.0676,0.388,0.04279996047485262,1.287004055148867,0.10538431221067648,0.03380252220786674
0.126,-0.0205,-0.612,0.04286310860607755,1.287004055148867,0.1055504911785854,0.03380252220786674
0.127,-0.0288,1.388,0.042857693295572395,1.2799301034210007,0.10553624038931901,0.03333813992242602
0.128,-0.052,0.388,0.043042648043564335,1.2799301034210007,0.10602296245907712,0.03333813992242602
0.129,-0.0452,1.388,0.043102116834526215,1.2792104744605668,0.10617945897153346,0.03329089858488633
0.13,-0.0134,1.388,0.04309340772037506,1.286288383798891,0.10615654029487642,0.0337555406747843
0.131,-0.0076,0.388,0.04316885264521784,1.2862883837988908,0.10635507918274441,0.033755540674784285
0.132,0.0722,-1.612,0.04321304757936025,1.2862883837988908,0.10647138141370717,0.033755540674784285
0.133,0.0834,-0.612,0.04321200728081981,1.2855723140384976,0.1064686437913197,0.033708532987333374
0.134,0.0315,-1.612,0.04338623458174304,1.2855723140384976,0.10692713579238701,0.033708532987333374
0.135,0.0222,-0.612,0.04402541514553297,1.2855723140384976,0.10860918662014166,0.033708532987333374
0.136,0.014,-2.612,0.04510732939555646,1.30729220577305,0.11145632381877782,0.035134374348885694
0.137,0.0218,-0.612,0.045238558154117814,1.300328628827587,0.11180166198215145,0.034677237814572395
0.138,-0.0133,0.388,0.04576193527756668,1.300328628827587,0.11317896750988077,0.034677237814572395
0.139,0.0055,1.388,0.04651187136029665,1.2919028257864316,0.11515247965993668,0.034124110818029366
0.14,-0.0239,1.388,0.048059567005291716,1.294039337228959,0.11922535497601369,0.0342643659547223
0.14100000000000001,-0.0292,2.3879999999999724,0.04847770852059315,1.3010365769732601,0.12032572523408448,0.034723712344016264
0.14200000000000002,-0.0246,1.3879999999999721,0.0485638134577255,1.3101066513721806,0.120552316731045,0.035319133692722354
0.14300000000000002,-0.055,0.38799999999997226,0.04858595386189035,1.3101066513721806,0.12061058083865724,0.035319133692722354
0.14400000000000002,-0.059,-0.6120000000000555,0.04858641246024572,1.3038645256762527,0.12061178767407582,0.034909358123394636
0.14500000000000002,-0.0046,-2.612,0.048555059179635277,1.3038645256762527,0.12052927920214902,0.034909358123394636
0.14600000000000002,0.0029,-1.612,0.048553282022467247,1.2968825440226361,0.12052460248189988,0.03445101337890915
0.14700000000000002,0.0098,0.388,0.04818970812070271,1.2975923723050664,0.11956783092616463,0.034497611333312334
0.14800000000000002,0.0678,-0.612,0.04789863820990947,1.2912897537003927,0.11880185897376162,0.03408386459817843
0.14900000000000002,0.0445,-2.612,0.047595027393896386,1.2692960613501294,0.11800288470370245,0.03264004910270914
0.15000000000000002,0.0236,-1.612,0.047696380880968774,1.3066863541078328,0.11826960388523557,0.03509460212654732
0.15100000000000002,0.0622,0.388,0.04680329603658586,1.3157174815890194,0.11591938520392549,0.035687466734783034
0.15200000000000002,0.0177,-0.612,0.0460457459291153,1.2997195311625067,0.11392583618581852,0.03463725250273427
0.15300000000000002,0.0003,-0.612,0.04631166294884319,1.274262910338479,0.11462561644899678,0.03296610683866493
0.15400000000000003,-0.0476,0.388,0.04654917857821995,1.2742629103384795,0.11525065635732719,0.032966106838664966
0.15500000000000003,-0.0289,1.388,0.0465564590974822,1.2813681488903288,0.11526981558109792,0.03343254300394319
0.15600000000000003,-0.0348,-0.612,0.04672571755271511,1.3184161215804726,0.11571523169801001,0.035864623811198475
0.15700000000000003,-0.0297,2.388,0.047261866899221315,1.3328088527503212,0.11712614827335703,0.036809460537756696
0.15800000000000003,0.0037,0.388,0.04733035476896154,1.3328088527503212,0.11730637915726351,0.036809460537756696
0.15900000000000003,-0.0093,1.388,0.04726837571446405,1.3321177899480066,0.1171432767010455,0.03676409447705009
0.16000000000000003,-0.0211,-1.612,0.04755282697991272,1.3321177899480066,0.11789183119974117,0.03676409447705009
0.16100000000000003,0.0332,-0.612,0.04700180864231866,1.355810115629505,0.11644178577695406,0.03831941981296364
0.16200000000000003,0.0564,-1.612,0.04652291773714667,1.3638411569229598,0.11518154901588532,0.03884663196450149
0.16300000000000003,0.02119999999999789,-1.612,0.046517678049297045,1.3578460754681614,0.11516776039059863,0.038453074058753346
0.16400000000000003,0.002200000000001921,1.388,0.04538425373425092,1.3219036379447704,0.1121850706542018,0.03609356809610003
0.16500000000000004,0.019499999999997058,-0.612,0.043942234920976674,1.3219036379447704,0.10839029172018078,0.03609356809610003
0.16600000000000004,-0.007000000000002665,-0.612,0.04271414781296233,1.3219036379447704,0.10515848985758655,0.03609356809610003
0.16700000000000004,-0.031000000000000454,-0.612,0.04256417509610576,1.334189904517703,0.10476382558457822,0.036900122165192215
0.16800000000000004,-0.0350999999999951,-0.612,0.04186277453482892,1.3252846629949457,0.10291803824134635,0.036315521567134856
0.16900000000000004,0.009000000000005884,-1.612,0.039098535348513916,1.3259792870340366,0.0956437388103939,0.036361121411635396
0.17000000000000004,0.061999999999994525,-1.612,0.0386766508287417,1.346364057237973,0.0945335185598092,0.03769931631876165
0.17100000000000004,0.012699999999995059,0.388,0.038738736639815474,1.3443107079843186,0.09469690195383677,0.03756452051354522
0.17200000000000004,-0.031800000000000654,-0.6119999999999445,0.03886939782367147,1.3375398727794865,0.09504074650248392,0.037120036857489686
0.17300000000000004,-0.03769999999999707,1.3880000000000277,0.03914967977655692,1.3436255609088548,0.09577832914745715,0.03751954280136865
0.17400000000000004,-0.011300000000001576,2.3879999999999444,0.039214375427440364,1.3790019523482566,0.09594858052756074,0.03984188965066356
0.17500000000000004,-0.025499999999997577,0.388,0.03966029531291226,1.378334049824874,0.09712205161689248,0.03979804398812698
0.17600000000000005,-0.003699999999995115,0.388,0.039330744166681246,1.3790019523482568,0.09625481345336231,0.03984188965066358
0.17700000000000005,0.04029999999999806,-0.612,0.03994386011266477,1.423787652566667,0.09786827331568393,0.04278192749974302
0.17800000000000005,0.02279999999999705,0.388,0.04168873343258619,1.4893693529958552,0.10246003623584898,0.04708715618944747
0.17899999999999994,-0.0038,1.388,0.04162688347002195,1.5315311280995738,0.10229727349458083,0.04985494175458982
0.17999999999999994,-0.0278,-0.612,0.041439694135722814,1.546917619989059,0.10180467094603372,0.05086501569111487
0.18099999999999994,0.0204,0.388,0.041844350991624785,1.5410372333938853,0.10286955532767177,0.05047898713573408
0.18199999999999994,0.0017,0.388,0.04211632098526182,1.5416346475024314,0.1035852644384262,0.05051820545948773
0.18299999999999994,-0.0391,-0.612,0.041496101081321866,1.5416346475024316,0.10195310998644105,0.05051820545948774
0.18399999999999994,-0.076,0.388,0.040774858017447506,1.5410372333938858,0.1000551056331659,0.05047898713573411
0.18499999999999994,-0.0999,2.388,0.04072049558858629,1.5333337834140846,0.0999120468894479,0.04997328030523566
0.18599999999999994,-0.0344,0.388,0.040780041557045926,1.5327331338772856,0.10006874650018557,0.049933849585974625
0.18699999999999994,0.0697,-0.612,0.041293745288267146,1.5118159928833776,0.1014205957823319,0.04856070624073916
0.18799999999999994,0.0836,-0.612,0.0421077234259684,1.5297263485071284,0.10356263932661049,0.049736463751897914
0.18899999999999995,0.1211,-1.612,0.04262746123946308,1.530328178199244,0.10493036774159939,0.04977597194457751
0.18999999999999995,0.0643,1.388,0.04264120787161782,1.5243837983474775,0.1049665430186723,0.04938574243675987
0.19099999999999995,-0.0292,-1.612,0.042573694156432404,1.5243837983474775,0.1047888756943734,0.04938574243675987
0.19199999999999995,-0.0168,0.388,0.04248696825119481,1.5064099241857376,0.10456065007401394,0.0482058151369209
0.19299999999999995,-0.0056,-0.612,0.04259582960986018,1.5380466821062195,0.10484712677375564,0.05028266701720356
0.19399999999999995,0.0045,0.388,0.042729030795674784,1.5380466821062198,0.1051976555250194,0.050282667017203575
0.19499999999999995,-0.0049,0.388,0.04239747305686921,1.5374478738039494,0.10432513686503452,0.05024335716909509
0.19599999999999995,-0.0133,-0.612,0.04265346738796541,1.5165957606814529,0.10499880484074346,0.04887448269544725
0.19699999999999995,-0.0057,-0.612,0.042678558560711816,1.5303281781992448,0.10506483411365686,0.04977597194457757
0.19799999999999995,-0.0266,0.388,0.04274730861017556,1.5380466821062195,0.10524575494285571,0.05028266701720356
0.19899999999999995,-0.0327,3.388,0.04284823376482301,1.5374478738039494,0.10551134693599992,0.05024335716909509
0.19999999999999996,-0.0267,-1.612,0.042821149496521355,1.5165957606814529,0.10544007268503428,0.04887448269544725
0.20099999999999996,0.0104,-1.612,0.04300871617287482,1.5303281781992448,0.10593366823704675,0.04977597194457757
0.20199999999999996,0.0731,0.388,0.0446237411705592,1.5303281781992448,0.11018372571390746,0.04977597194457757
0.20299999999999996,0.0475,-1.612,0.04520379047820605,1.5303281781992446,0.11171016827699289,0.04977597194457755
0.20399999999999996,0.0086,1.3880000000000554,0.04520713511581105,1.535650047909122,0.11171896993769838,0.05012533565439127
0.20499999999999996,-0.0408,3.3879999999999724,0.044957206130226385,1.535650047909122,0.11106126336635037,0.05012533565439127
0.20599999999999996,-0.0728,2.3879999999999444,0.04488538940318884,1.529726348507129,0.11087227234878272,0.04973646375189796
0.20699999999999996,-0.0435,0.388,0.04484336940793255,1.529124281948099,0.11076169363001817,0.049696940009663695
0.20799999999999996,-0.0171,0.3879999999999445,0.04474812014399027,1.5184161472857007,0.11051103816216859,0.04899398524850203
0.20899999999999996,0.0551,-1.612,0.04476498515506383,1.526194895708042,0.11055541968351548,0.04950463518070403
0.20999999999999996,0.0242,-2.612,0.044868633607409,1.5202343540911536,0.11082817823554177,0.049113344704744
0.21099999999999997,0.0147,-1.612,0.04482755020387369,1.5130336611210213,0.11072006422701527,0.048640642262479036
0.21199999999999997,0.0064,-0.612,0.04484594930312538,1.5124249495467919,0.11076848281462492,0.048600682296269286
0.21299999999999997,0.014,1.388,0.04476683247555374,1.510597343103257,0.11056028104372449,0.048480705783877844
0.21399999999999997,0.021,1.388,0.04471734391467047,1.510597343103257,0.11043004824330185,0.048480705783877844
0.21499999999999997,0.0148,0.388,0.04471931924447793,1.505186897477503,0.11043524646947761,0.04812552734874053
0.21599999999999997,-0.0382,2.388,0.044689561077262976,1.5051868974775027,0.11035693565617692,0.04812552734874052
0.21699999999999997,-0.0452,0.388,0.044686945207944896,1.5045750113119267,0.11035005180300454,0.04808535898077154
0.21799999999999997,-0.0133,-0.612,0.04462077961104728,1.5118159928833768,0.11017593215147663,0.048560706240739104
0.21899999999999997,-0.0076,2.388,0.044486309116766584,1.5112067908344924,0.10982206312130419,0.0485207140764384
0.21999999999999997,-0.0232,1.388,0.04449788605495326,1.5112067908344924,0.10985252868856783,0.0485207140764384
0.22099999999999997,0.0395,0.388,0.044178421366198685,1.5033504918404605,0.10901183378230875,0.04800497319746374
0.22199999999999998,0.0478,1.388,0.044162960724936515,1.5033504918404605,0.10897114796376875,0.04800497319746374
0.22299999999999998,-0.0226,3.388,0.044140349240418,1.5027378579257562,0.10891164417343818,0.047964755742158215
0.22399999999999998,-0.0698,0.388,0.04426492483827458,1.4966839016027915,0.10923947405338671,0.04756733288978818
0.22499999999999998,-0.0444,-0.612,0.04458096636301094,1.4838815090803654,0.11007116065088836,0.04672689680436036
0.22599999999999998,0.0728,-3.612,0.045213640929558686,1.5027378579257566,0.11173609046673097,0.04796475574215824
0.22699999999999998,0.1229,-4.612,0.04556622141505127,1.5027378579257566,0.11266393203618745,0.04796475574215824
0.22799999999999998,0.047,-3.612,0.04540443597437433,1.508157089396181,0.11223818170861846,0.04832051093987247
0.22899999999999998,-0.0222,-2.612,0.0455803544680118,1.5087675228376392,0.11270112420813024,0.04836058394115364
0.22999999999999998,-0.0595,0.388,0.04563417318216564,1.510597343103258,0.11284275212646741,0.048480705783877906
0.23099999999999998,-0.0483,-0.612,0.04554894699548838,1.5105973431032578,0.11261847312618485,0.048480705783877885
0.23199999999999998,0.0036,-1.612,0.04588585605864886,1.511206790834493,0.11350507419115931,0.04852071407643844
0.23299999999999998,0.0318,0.388,0.04617142560181425,1.5172027989002066,0.11425657152020001,0.04891433281122685
0.23399999999999999,0.0234,0.388,0.04621747253754513,1.5165957606814533,0.11437774743002811,0.04887448269544728
0.235,-0.0311,0.38799999999997226,0.04560749805280446,1.535050304703274,0.11277255455481976,0.050085964432855776
0.236,-0.0663,-0.6119999999999167,0.04465121111102759,1.5243837983474742,0.11025601488964407,0.04938574243675965
0.237,-0.0851,2.387999999999917,0.04459768963599029,1.5243837983474742,0.1101151691779795,0.04938574243675965
0.238,-0.0676,-0.6119999999999722,0.04408927133558582,1.5237796208739003,0.10877722889711389,0.04934608011974315
0.239,0.0122,0.38800000000002777,0.04366631193852564,1.5231752037493724,0.10766418002761556,0.04930640207040871
0.24,0.001,1.388,0.042256849355208584,1.5153809547336972,0.10395507521550991,0.04879473457387562
0.241,0.0111,-0.612,0.04202002693549289,1.5093777094032088,0.10333185953956428,0.04840064073582304
0.242,0.0393,3.388,0.04234358782704017,1.502124974151489,0.10418333390578892,0.047924521884372254
0.243,0.0647,0.388,0.042576783598481875,1.5027378579257515,0.10479700578914004,0.04796475574215791
0.244,0.026,0.388,0.04259437170415942,1.5027378579257513,0.10484329018730468,0.047964755742157895
0.245,0.047,-0.612,0.04334055168878354,1.5027378579257513,0.10680691788797965,0.047964755742157895
0.246,0.015,-2.612,0.04334415818380286,1.5027378579257515,0.10681640864579708,0.04796475574215791
0.247,-0.026,-1.612,0.04470801957221366,1.5081570893961762,0.11040551054795211,0.04832051093987214
0.248,-0.0737,0.388,0.04573821342399375,1.5075464087789407,0.11311654170143372,0.04828042171229246
0.249,-0.0416,-0.612,0.04604756835449577,1.5075464087789407,0.11393063203270969,0.04828042171229246
0.25,0.0466,-2.612,0.04613327065080091,1.4697151769363146,0.11415616395061687,0.0457969224490857
0.251,0.1343,0.388,0.046824065004221226,1.467834393348223,0.11597404027509275,0.045673455027387476
0.252,0.0744,-0.612,0.047809118588907046,1.4789088138223005,0.11856628148417934,0.046400455279513135
0.253,-0.0054,1.388,0.0474235002259164,1.4978277658842998,0.11755149830175614,0.04764242391807274
0.254,0.0048,0.388,0.04746514688609367,1.5086820372627532,0.11766109456170659,0.04835497208682314
0.255,0.0141,0.388,0.048123740701325336,1.5086820372627525,0.11939423279340755,0.04835497208682309
0.256,-0.0289,0.388,0.04797213647438096,1.476416185533951,0.11899527508119104,0.04623682221191132
0.257,-0.0058,-1.612,0.04749407382803101,1.4572192752821918,0.11773721794434139,0.04497660650800785
0.258,-0.0127,-1.612,0.04769431072273872,1.4572192752821918,0.11826415611106703,0.04497660650800785
0.259,0.032,0.388,0.047763350768312826,1.4653229267302441,0.11844584008643319,0.045508585283751714
0.26,-0.0089,-0.612,0.047473298419002406,1.4653229267302441,0.11768254592217242,0.045508585283751714
0.261,-0.0354,0.388,0.04742102980112022,1.4509754125854866,0.11754499719657754,0.044566716910139685
0.262,-0.0495,1.388,0.04749087596109701,1.4434292557149995,0.1177288025214889,0.04407133586873302
0.263,-0.0014,-1.612,0.04749000535597432,1.4434292557149995,0.11772651145985433,0.04407133586873302
0.264,0.0048,-0.612,0.047469692380015284,1.44534179738737,0.11767305636443737,0.04419688810699855
0.265,0.0106,-0.612,0.04745705588573256,1.458482526327034,0.1176398024971074,0.04505953489511832
0.266,-0.0051,0.388,0.04747354941220904,1.458482526327034,0.11768320642932001,0.04505953489511832
0.267,-0.0193,-1.612,0.04732164092053793,1.44534179738737,0.11728344802201911,0.04419688810699855
0.268,-0.0063,0.388,0.04711091355638297,1.4459787491345155,0.11672890341070347,0.04423870195015637
0.269,0.0136,-1.612,0.04710712553210005,1.4459787491345153,0.11671893494523126,0.04423870195015635
0.27,0.0317,0.388,0.047104781009929486,1.4346501558370528,0.11671276516210409,0.04349501606584643
0.271,-0.0046,0.388,0.04704794198052974,1.4346501558370528,0.11656318906128567,0.04349501606584643
0.272,-0.0285,0.388,0.047121728405000576,1.5707231708997254,0.11675736348302078,0.05242777390086094
0.273,-0.0502,0.388,0.04734484785474059,1.6253142417945803,0.11734451878214013,0.05601150294539814
0.274,-0.0541,1.388,0.047433372641676866,1.607323245726869,0.11757747829245449,0.05483045164724366
0.275,-0.0795,2.388,0.04710222295020525,1.6275788494800958,0.11670603343914449,0.05616016719037504
0.276,-0.0566,0.388,0.046891791893707915,1.7949663877049649,0.11615226858329859,0.06714862322534505
0.277,-0.0119,1.388,0.0471871462546516,1.8781451562676421,0.11692951538248246,0.07260904310538442
0.278,0.0461,-0.612,0.048048875597697105,1.8781451562676423,0.11919721974785884,0.07260904310538442
0.279,0.0226,-1.612,0.04837341222355709,1.8444252039566718,0.12005126183094052,0.07039543618219392
0.28,0.0013,-0.612,0.048322022234025507,1.8265758779666432,0.11991602528069663,0.06922368507111787
0.281,0.0592,-0.612,0.047963872443123945,1.8265758779666434,0.11897352767301889,0.06922368507111787
0.28200000000000003,0.0514,1.3879999999999444,0.04775524714653048,1.8260716870637772,0.11842451480763251,0.06919058655238625
0.28300000000000003,0.0444,0.38800000000011103,0.04775599579555773,1.8245582783991727,0.11842648493280108,0.06909123611835567
0.28400000000000003,-0.0137,2.387999999999778,0.04771781692661311,1.8245582783991727,0.11832601442141652,0.06909123611835567
0.28500000000000003,-0.0369,-1.611999999999889,0.047862685802133736,1.8556637670262242,0.11870724755926494,0.07113321187025087
0.28600000000000003,0.0268,0.388,0.04791182150872742,1.870776510678554,0.11883655179758246,0.07212531511134347
0.28700000000000003,0.0184,0.388,0.04788451250565919,1.8751323925417365,0.11876468614049222,0.07241126481139104
0.28800000000000003,0.057199999999999245,0.388,0.04777149149913787,1.8649297898937014,0.11846726302041855,0.07174149660863754
0.28900000000000003,0.0503999999999893,0.388,0.047307184443509405,1.8649297898937016,0.11724540473577137,0.07174149660863754
0.29000000000000004,-0.04600000000000153,0.388,0.047587745337544105,1.8649297898937016,0.11798372143496585,0.07174149660863754
0.29100000000000004,-0.05979999999999863,-0.612,0.047598800668999915,1.860550022058073,0.11801281435562053,0.07145397887096387
0.29200000000000004,-0.04749999999999621,-0.612,0.04761936451735581,1.8664104629619827,0.11806692964026522,0.07183869805556434
0.29300000000000004,-0.013399999999989597,-0.612,0.04768020384189366,1.8419272989513698,0.11822703281297772,0.07023145671501628
0.29400000000000004,0.08029999999999025,0.388,0.047390804752791324,1.8483450538169597,0.11746545775116779,0.07065276177709928
0.29500000000000004,-0.007400000000011424,0.388,0.04734944187699576,1.8547406021643438,0.11735660829076225,0.0710726090523507
0.29600000000000004,-0.11029999999999847,1.388,0.04726798506272331,1.8718295768216393,0.11714224867215804,0.07219444553250816
0.29700000000000004,-0.09659999999999588,0.388,0.04758468836757056,1.854740602164342,0.11797567679286357,0.07107260905235058
0.29800000000000004,-0.05949999999998858,0.388,0.04767527681333761,1.8483450538169588,0.11821406697369759,0.07065276177709923
0.29900000000000004,0.043300000000004585,-0.612,0.04719539672465751,1.8635171516844922,0.11695122710322146,0.07164876143241218
0.30000000000000004,0.0846000000000014,1.388,0.049425599125781206,1.8678899623037108,0.12282016931984271,0.07193582245110032
0.30100000000000005,0.09719999999999374,2.388,0.05320655683347869,1.9272467039498646,0.13277003857780093,0.07583240252435294
0.30200000000000005,0.04080000000000119,2.388,0.057135048258002925,1.9418024087270782,0.14310815370018082,0.07678793794651528
0.30300000000000005,0.05150000000000315,2.388,0.05678677891657764,1.9459993142832688,0.14219165722451751,0.07706345136093186
0.30400000000000005,0.07989999999998951,1.388,0.0634364201520851,1.9474183490487988,0.15969067890649202,0.07715660645060272
0.30500000000000005,-0.01460000000000141,1.388,0.06829374635567999,1.9641698300383663,0.17247309130180427,0.07825628755187572
0.30600000000000005,-0.02730000000000381,0.388,0.06928808611728753,1.9963290430005787,0.1750897697708182,0.08036743693313834
0.30700000000000005,-0.06159999999999658,0.388,0.06922946821779197,1.996329043000579,0.17493551244205477,0.08036743693313834
0.30799999999999994,-0.0308,-1.612,0.0692470859518987,1.9903885009164106,0.17498187480961752,0.07997745936247788
0.30899999999999994,0.0163,-1.612,0.06933403178511614,1.9848941414862937,0.17521067918668753,0.0796167722547133
0.30999999999999994,-0.0091,-1.612,0.06928559770011716,1.9853579990974615,0.17508322131737902,0.07964722302196191
0.31099999999999994,0.0297,-0.612,0.06936963525169512,1.9853579990974615,0.17530437233667165,0.07964722302196191
0.31199999999999994,-0.0055,-0.612,0.06939874846979864,2.017179444490484,0.1753809859187857,0.08173619904358592
0.31299999999999994,0.0006,-1.612,0.06927466461702037,2.0288862555524396,0.17505445010230353,0.08250471371336489
0.31399999999999995,0.0179,2.388,0.06957503053651778,2.023496431006473,0.1758448851876951,0.08215088898610239
0.31499999999999995,-0.0192,0.388,0.06957770275446076,2.027524239793104,0.17585191732643266,0.08241530173891858
0.31599999999999995,-0.0051,1.388,0.06970943347603037,2.0270700311718235,0.1761985764425094,0.08238548439696722
0.31699999999999995,0.008,-0.612,0.07008249250348558,2.027524239793104,0.1771803088065408,0.08241530173891858
0.31799999999999995,0.0121,-0.612,0.07005707267696673,2.0221307849085672,0.1771134146569692,0.08206123869155055
0.31899999999999995,-0.006,-1.612,0.07006914629278548,2.022130784908567,0.17714518726807849,0.08206123869155052
0.31999999999999995,-0.0027,1.388,0.07006974068512226,2.0162662641445963,0.1771467514553813,0.08167625167719772
0.32099999999999995,-0.0473,6.388,0.07000062398879348,2.0207642158980206,0.17696486576789708,0.08197152781073831
0.32199999999999995,-0.0661,4.388,0.07005827640253301,2.02076421589802,0.17711658234963673,0.08197152781073828
0.32299999999999995,-0.0367,2.388,0.07000269713354634,2.0252521780213635,0.1769703214013208,0.08226614815704339
0.32399999999999995,-0.0418,-2.612,0.06986902279768104,2.0252521780213635,0.1766185475207782,0.08226614815704339
0.32499999999999996,0.0017,-7.612,0.06972920750715798,2.02076421589802,0.17625061326482616,0.08197152781073828
0.32599999999999996,0.0899,-6.612,0.06932288544227659,2.011300486731808,0.17518134676285954,0.08135026428674715
0.32699999999999996,0.1527,-4.612,0.06920804582222291,2.0113004867318076,0.17487913782705433,0.08135026428674712
0.32799999999999996,0.0731,-0.612,0.06922290697090315,2.038268335204159,0.17491824603661998,0.08312061720811018
0.32899999999999996,0.0008,0.388,0.06919207469307555,2.0378165213341135,0.17483710862196836,0.0830909570739112
0.32999999999999996,0.0103,0.388,0.06923274570747988,2.0319972714733003,0.17494413739806067,0.08270894194942716
0.33099999999999996,0.0187,0.388,0.06923551084609536,2.0315440629238815,0.17495141406440584,0.08267919025899204
0.33199999999999996,-0.0043,1.388,0.06910696496512399,2.0369125929393572,0.1746131360914176,0.08303161706849696
0.33299999999999996,-0.0252,0.388,0.06930505742682294,2.038268335204159,0.17513443102441276,0.08312061720811018
0.33399999999999996,-0.0438,3.388,0.06919284490953437,2.0692762824211255,0.17483913550342486,0.08515618967868781
0.33499999999999996,-0.0379,2.388,0.0693169484560851,2.055623408199551,0.17516572314552276,0.08425992219231612
0.33599999999999997,-0.0643,1.388,0.06998612545512838,2.0556234081995517,0.17692671180650624,0.08425992219231618
0.33699999999999997,-0.0785,1.388,0.06995657393987166,2.0613759627213253,0.17684894481308544,0.08463755898130078
0.33799999999999997,-0.0129,-0.612,0.06999027375563074,2.061822613941106,0.17693762836543978,0.08466688020403682
0.33899999999999997,0.0531,0.388,0.06978071876722021,2.0675579205203096,0.1763861689474217,0.08504338472080668
0.33999999999999997,0.0104,-0.612,0.06965390565989454,2.0680032365496754,0.17605245089616792,0.08507261829256625
0.34099999999999997,0.0179,-1.612,0.06950154599786254,2.098571874650615,0.1756515052007641,0.08707935152601537
0.34199999999999997,-0.0459,-1.612,0.06924502585927002,2.103769365864105,0.17497645352382188,0.08742055018570805
0.34299999999999997,-0.0376,-1.612,0.06909234258853403,2.1037693658641055,0.17457465622822987,0.08742055018570807
0.344,0.0168,-1.6120000000000556,0.06915003337344908,2.103331622230454,0.17472647378654985,0.08739181371748603
0.345,0.0379,-2.611999999999889,0.06878409064040318,2.103331622230454,0.17376346847646829,0.08739181371748603
0.346,0.0569,-0.6119999999999445,0.06878000550058798,2.103331622230454,0.17375271812954454,0.08739181371748603
0.347,0.0394,0.38800000000011103,0.06790364605500014,2.103331622230454,0.17144651356956658,0.08739181371748603
0.348,-0.0298,2.3879999999999444,0.06768600588521764,2.1089540479635693,0.17087377740004872,0.0877609079680701
0.349,-0.1525,1.388000000000222,0.06779068409938152,2.1089540479635693,0.17114924584630156,0.0877609079680701
0.35,-0.2023,5.387999999999834,0.06811263249978712,2.1089540479635693,0.17199647682307842,0.0877609079680701
0.351,-0.2476,2.3879999999999444,0.06759221391592268,2.1046445799933986,0.17062695691061786,0.08747800519151622
0.352,-0.0393,1.388,0.06756377346208091,2.0912226259877067,0.17055211375731133,0.08659689687808371
0.353,0.2829,-1.612,0.06792932655437597,2.0777139684735846,0.17151409369900003,0.08571009675688243
0.354,0.2531,-2.612,0.06787799554948797,2.064116905152802,0.171379012371199,0.08481749307748304
0.355,0.1179,-3.612,0.06741890761968308,2.0641169051528023,0.17017088860134943,0.08481749307748307
0.356,-0.0053,0.388,0.06744009340735323,2.0641169051528023,0.17022664056520126,0.08481749307748307
0.357,0.0168,0.388,0.0673870676692084,2.0641169051528023,0.17008709942175668,0.08481749307748307
0.358,0.0371,-0.612,0.06728117665874886,2.068510808882545,0.16980843941254245,0.08510593879135278
0.359,-0.0185,-0.612,0.0674463769502821,2.0763839817743888,0.17024317617216977,0.08562278738770122
0.36,-0.0352,-0.612,0.06743066015950297,2.1397380723008106,0.17020181627727102,0.08978178061842708
0.361,0.0409,-3.612,0.06801320849545564,2.1473501091715166,0.1717348352177817,0.09028148647094972
0.362,0.0273,-2.612,0.06836697163024198,2.1511460266591835,0.17266578901613908,0.09053067630233111
0.363,0.0647,-0.612,0.06847019043362364,2.15071792579546,0.172937416915208,0.0905025728510859
0.364,0.0078,1.388,0.06847439297031963,2.145204962932586,0.17294847620068793,0.09014066448751505
0.365,-0.044,0.388,0.06853366241384978,2.1324702173797396,0.17310444811566503,0.08930466920908524
0.366,-0.0723,-0.612,0.07006162916487195,2.162127599080649,0.17712540539117924,0.09125158137703268
0.367,0.0046,-0.612,0.07078108825894973,2.173053676603713,0.1790187150962704,0.09196884338930729
0.368,0.0146,0.388,0.07081873769385151,2.187657547411899,0.17911779236289682,0.09292754075721144
0.369,-0.0137,0.388,0.07092719028417753,2.202164573344957,0.17940319335858476,0.09387988056908814
0.37,-0.0054,1.388,0.07101135270215408,2.21164428418524,0.17962467297302093,0.09450219323882068
0.371,-0.0287,0.388,0.07101350847997104,2.2223269260988365,0.17963034606145148,0.09520347448263221
0.372,0.0064,1.388,0.07087927628898873,2.1325911762061267,0.17927710414399647,0.08931260976881801
0.373,-0.0256,0.388,0.07160946755257724,2.0912842991456775,0.18119865634523322,0.08660094552347324
0.374,-0.0313,0.388,0.07232427796221451,2.083467433522273,0.18307973269412725,0.08608779331904416
0.375,-0.0261,1.388,0.0722048831891649,2.083467433522273,0.18276553653702432,0.08608779331904416
0.376,-0.0402,0.388,0.07360708062495468,1.9574545686118898,0.18645552257721434,0.07781545213646361
0.377,-0.0186,-3.612,0.07357937575071573,1.8484846049643575,0.18638261515592144,0.07066192286318773
0.378,0.0412,0.388,0.0719806151189444,1.7960639033030659,0.18217535855833766,0.06722067161093767
0.379,0.0328,0.388,0.07163444578041858,1.8006005335445487,0.18126438839529313,0.06751848686339978
0.38,-0.0062,0.388,0.07205676266515887,1.8321128203197306,0.1823757464462016,0.06958716761145685
0.381,-0.0413,-1.612,0.07296474124520146,1.8839508644561982,0.18476515909211874,0.07299016926243507
0.382,-0.0732,-1.612,0.0744553964790948,1.8988384861114243,0.1886879283565658,0.07396749396508975
0.383,-0.0201,-3.612,0.07485122698550707,1.9088598598808295,0.189729585548101,0.0746253650721203
0.384,0.0438,0.388,0.07508855484718258,1.9093421894301517,0.19035413133186754,0.07465702846297542
0.385,0.1035,-1.612,0.07544271177814364,1.8964802625864359,0.19128612143392246,0.07381268413993924
0.386,0.0174,-1.612,0.07540583326092344,1.8878569630866049,0.191189072894072,0.07324659213311985
0.387,0.0285,-0.612,0.0751418958867066,1.8830415674509802,0.190494502214162,0.07293047682493028
0.388,0.0183,-1.612,0.07472989422710233,1.8830415674509802,0.1894102894395048,0.07293047682493028
0.389,0.0277,-0.612,0.0748229036039861,1.8873691428549195,0.18965505047924708,0.07321456829654462
0.39,0.0024,-3.612,0.07481588704894943,1.887856963086605,0.18963658589681762,0.07324659213311988
0.391,-0.0053,-1.612,0.07491996325168222,1.8878569630866049,0.18991047010555864,0.07324659213311985
0.392,-0.0123,-0.612,0.0749054930756988,1.887856963086605,0.18987239076950008,0.07324659213311988
0.393,-0.0312,0.388,0.07478951824944553,1.8815739819967878,0.1895671944547978,0.07283413453797168
0.394,-0.0371,0.388,0.07474650414524919,1.875269950268472,0.18945399966498822,0.07242029503579445
0.395,-0.0002,0.388,0.0747744795248653,1.8993233605712296,0.18952761894114548,0.0739993244211712
0.396,-0.0144,1.388,0.0750616086841502,1.8819947749636818,0.19028322051511073,0.07286175824918444
0.397,-0.0799,-1.612,0.0748671096461643,1.8815054348358748,0.18977138194182586,0.07282963463629441
0.398,-0.0704,0.388,0.07479394717024554,1.8815054348358746,0.1895788494867555,0.07282963463629438
0.399,-0.0789,-0.612,0.07474801512815589,1.8669728429567294,0.1894579759280239,0.07187561650190004
0.4,-0.0087,0.388,0.07323600412346476,1.8771643414108046,0.18547900737657919,0.07254465574986738
0.401,0.0952,0.388,0.0705450188242654,1.803084160919545,0.17839748095600824,0.06768152904985412
0.402,0.0814,0.388,0.06613123198915367,1.7873991593111687,0.16678227514388,0.06665185890588837
0.403,0.0442,0.388,0.06602392925088144,1.7873991593111687,0.16649990006873538,0.06665185890588837
0.404,-0.0124,1.388,0.05973223765647033,1.7873991593111689,0.14994284928545432,0.06665185890588837
0.405,-0.0223,1.388,0.05412583710358399,1.768974522056572,0.1351891924552291,0.06544234045200907
0.406,0.0061,0.388,0.0530636083082069,1.7394216269605096,0.13239385898336203,0.063502287495182
0.40700000000000003,0.0489,1.3880000000000554,0.053180166158236265,1.7394216269605098,0.13270058956816067,0.06350228749518201
0.40800000000000003,0.0565,2.3880000000001664,0.053171348710253794,1.7446334757376063,0.13267738580303104,0.06384442868296326
0.40900000000000003,0.0072,5.387999999999834,0.053071344560972254,1.760176431396377,0.13241421750348117,0.06486477396506213
0.41000000000000003,-0.0892,2.3879999999999444,0.05305993114896997,1.7755833336180782,0.13238418226744067,0.06587618777455856
0.41100000000000003,-0.0754,1.3879999999999444,0.05318554866667022,1.7801721577631073,0.13271475403635574,0.06617742938970271
0.41200000000000003,0.0381,0.388,0.053050330842998816,1.8030126297252116,0.1323589183537357,0.06767683325593545
0.41300000000000003,-0.007499999999995425,0.3879999999999445,0.05409620966271266,1.8698608071109515,0.1351112256579498,0.07206520210352713
0.41400000000000003,0.03370000000001257,-0.6120000000001665,0.055679138751185145,1.9031301408444499,0.13927682038090997,0.07424922735964967
0.41500000000000004,0.1468999999999949,-3.6119999999999446,0.05639494200968104,1.9045811161543138,0.1411605094848518,0.07434447924380637
0.41600000000000004,0.1008999999999861,-2.612,0.05622344898891298,1.9093421894301572,0.1407092129438139,0.0746570284629758
0.41700000000000004,-0.02430000000000184,-2.612,0.0559044130513184,1.91361028764757,0.1398696463278759,0.07493721544769605
0.41800000000000004,-0.04089999999999155,-2.612,0.05614303060679036,1.919308720520042,0.14049758603605247,0.075311299323661
0.41900000000000004,0.035199999999995416,-2.612,0.0562805150368898,1.9197884248890413,0.14085938646077276,0.07534279037983178
0.42000000000000004,-0.006100000000001366,-2.612,0.05635854718056598,1.920268009422542,0.14106473380594817,0.07537427356918572
0.42100000000000004,-0.018400000000011445,1.388,0.05669040845319448,1.916014741947186,0.14193805123759012,0.07509506017520456
0.42200000000000004,-0.12149999999999847,1.388,0.05682967642796817,1.9160147419471858,0.14230454519175356,0.07509506017520456
0.42300000000000004,-0.10779999999998742,-1.612,0.056831681743567834,1.9174559672597267,0.14230982232775458,0.07518967200324916
0.42400000000000004,0.0056000000000152655,-2.612,0.05708867663987355,1.9174559672597262,0.14298612336465816,0.07518967200324914
0.42500000000000004,0.14309999999999384,-2.612,0.05701684447144936,1.9344669243491677,0.1427970917119419,0.07630638687983078
0.42600000000000005,0.0875999999999907,1.388,0.056970313957689006,1.9466712121197014,0.1426746432308392,0.07710755930298017
0.42700000000000005,0.0039000000000016764,1.388,0.05706134127496935,1.9527447532749687,0.14291418833445096,0.0775062678368949
0.42800000000000005,0.01899999999998925,1.388,0.057205571605112096,1.9260137092179752,0.14329374109301024,0.07575146036732978
0.42900000000000005,-0.07780000000000413,3.388,0.05707349395743732,1.9260137092179752,0.14294616901528312,0.07575146036732978
0.43000000000000005,-0.1151000000000038,4.388,0.05726213390047885,1.9321521864084392,0.1434425889477967,0.07615443174407865
0.43100000000000005,-0.14929999999999194,2.388,0.0572665414534362,1.9326287028595475,0.14345418774869945,0.07618571352364524
0.43200000000000005,-0.07689999999998426,2.388,0.05733951635534573,1.9410531101497235,0.14364622658892076,0.07673874889360462
0.43300000000000005,0.06490000000000226,-0.612,0.05716711789148127,1.9494411121465693,0.14319254730754927,0.07728939437259935
0.43400000000000005,0.08529999999999385,-2.612,0.05713866029066624,1.9461318629557443,0.14311765903071713,0.07707215275695835
0.43499999999999994,0.0299,-1.612,0.05703961224446674,1.9507915307223194,0.14285700678699198,0.07737804502906878
0.43599999999999994,0.0133,0.388,0.05613776076933672,1.9591378383470799,0.14048371806985765,0.07792595340601023
0.43699999999999994,-0.0018,1.388,0.05631948372777091,2.0017920170690253,0.14096193544687527,0.08072606369238168
0.43799999999999994,0.0396,1.388,0.056713193459808305,2.029730216779219,0.14199801166412113,0.08256011706617139
0.43899999999999995,0.0521,-0.612,0.0568408779336778,2.0283687677258344,0.14233402278074542,0.08247074229415659
0.43999999999999995,0.0409,-0.612,0.05680049230778579,2.0283687677258344,0.14222774502558613,0.08247074229415659
0.44099999999999995,0.0101,-1.612,0.05680699594728102,1.9971867621393407,0.14224485983291305,0.08042374344882397
0.44199999999999995,0.0196,0.388,0.05682268252434287,1.9971867621393407,0.1422861402181849,0.08042374344882397
0.44299999999999995,0.028,0.388,0.05684944775431082,2.0026473964575713,0.14235657489622905,0.08078221661095576
0.44399999999999995,-0.0263,3.388,0.056772908770275826,2.0026473964575713,0.1421551569108507,0.08078221661095576
0.44499999999999995,-0.0756,0.388,0.05667461183340222,2.0031071429686316,0.1418964812667516,0.08081239749764298
0.44599999999999995,-0.0175,0.388,0.056674659859218185,2.0090100770178543,0.14189660765023082,0.08119990622120203
0.44699999999999995,0.0213,0.388,0.05667195173848643,2.010384635978966,0.1418894810306548,0.08129014161669104
0.44799999999999995,0.0145,-0.612,0.05634763740782586,2.0049450747854953,0.14103602393379666,0.08093305183773937
0.44899999999999995,-0.0301,2.388,0.056484253571697125,2.0049450747854953,0.1413955394518559,0.08093305183773937
0.44999999999999996,-0.0476,1.388,0.056057960294231365,2.0044857498203745,0.14027371723001628,0.0809028986241936
0.45099999999999996,-0.032,0.388,0.05605108110102401,2.0328399411198004,0.1402556141253785,0.08276426051412299
0.45199999999999996,0.0117,1.388,0.05579350301904571,2.060804049683268,0.13957777839233604,0.08460001472118939
0.45299999999999996,0.0293,-1.612,0.05671746217884654,2.060804049683268,0.1420092451133192,0.08460001472118939
0.45399999999999996,-0.0131,0.388,0.0578238615306832,2.060804049683268,0.14492081666447743,0.08460001472118939
0.45499999999999996,-0.0498,-1.612,0.05797379191671224,2.0840417624998846,0.1453153695407889,0.08612549617785326
0.45599999999999996,-0.0355,0.388,0.058026135552616764,2.0796806724873154,0.1454531156818462,0.08583920457947103
0.45699999999999996,-0.0135,1.388,0.058254666401590334,2.1100801468692967,0.1460545114774321,0.08783483275630606
0.45799999999999996,-0.0174,2.388,0.061408345542862716,2.2061666481934847,0.1543536508921173,0.09414260397124863
0.45899999999999996,0.0151,2.388,0.06271313629375691,2.2222108517517545,0.15778730405199262,0.09519585457332937
0.45999999999999996,-0.0507,1.388,0.06271631160187835,2.161275662972897,0.15779566010966492,0.09119565449881992
0.46099999999999997,0.0152,-4.612,0.06213251426207043,2.1537128448457556,0.15625935432332752,0.09069917969925076
0.46199999999999997,0.1094,-5.612,0.06170288860255823,2.1494931146033625,0.15512876269218928,0.09042216791725252
0.46299999999999997,0.1469,-3.612,0.061624697857716744,2.1646813956673303,0.15492299797634193,0.09141922994760492
0.46399999999999997,0.09,-1.612,0.06171427510261951,2.1646813956673308,0.15515872710747083,0.09141922994760494
0.46499999999999997,-0.0036,1.388,0.0617905227405625,2.168446974542133,0.15535937839410555,0.09166642814617329
0.46599999999999997,-0.0407,1.388,0.06027936269137889,2.139307688571221,0.15138264919488284,0.08975352730434578
0.46699999999999997,-0.0518,-1.612,0.0598093244106204,2.1282083684839876,0.15014570876831815,0.08902489247232635
0.46799999999999997,-0.0418,-0.612,0.05997249663255362,2.1127579048874203,0.15057510851311318,0.08801061899802085
0.469,-0.0326,-0.612,0.059834011339450884,2.1028324548072335,0.15021067424353196,0.0873590449741117
0.47,0.0616,-0.6119999999999445,0.05973838540598458,2.1174857649260077,0.14995902754203014,0.08832098787448832
0.471,0.0492,0.387999999999889,0.059735774334355694,2.1023945160975255,0.14995215631433095,0.08733029569977102
0.472,-0.0078,-1.611999999999889,0.0597232842095675,2.1282083684839876,0.14991928762912848,0.08902489247232635
0.473,-0.0598,0.3879999999998335,0.05852101954568461,2.1239379678698107,0.14675543943406824,0.08874455434262907
0.474,-0.0128,-2.612,0.05784447119943696,2.122636944071677,0.14497505252888085,0.08865914629518508
0.475,0.0126,-2.6119999999999446,0.05862497776979073,2.107145628882102,0.14702901317334588,0.08764219104457481
0.4760000000000001,0.05169999999999847,-1.612,0.056854635221263605,2.0958759921861523,0.1423702260983716,0.08690237547241934
0.477,0.0448,-1.611999999999889,0.05628747750048424,2.0915395779893706,0.14087770869757982,0.08661770376235009
0.4780000000000001,-0.013299999999984411,0.387999999999889,0.056336904374071725,2.0928599335160842,0.14100777916333085,0.08670438087588964
0.479,0.0569,-1.6119999999999446,0.05640774699886443,2.0889581050524395,0.14119420675894848,0.0864482383279829
0.4800000000000001,0.009599999999986676,-0.612,0.056035517416811245,2.077208644962338,0.14021465714170903,0.08567692388603639
0.481,-0.0504,2.388,0.054838549255020436,2.036134952489217,0.1370647470828076,0.08298056746236737
0.4820000000000001,-0.05819999999998908,2.388,0.0527687937608319,2.028105537550481,0.1316180327434246,0.08245346207581045
0.483,-0.009,3.388,0.05222245173198258,2.020044206976072,0.13018029337223,0.08192426152994153
0.4840000000000001,-0.027799999999998687,1.388,0.05192261030630127,2.0240788855156455,0.12939123853102533,0.0821891252600466
0.485,-0.0219,2.388,0.051242012164922794,2.0123441077747106,0.1276001942910597,0.08141877466732099
0.4860000000000001,-0.04830000000000535,4.388,0.051201296129562666,2.0109708881718302,0.1274930470389995,0.08132862719641226
0.487,-0.0724,3.388,0.052040236252484426,2.0109708881718302,0.1297007798896825,0.08132862719641226
0.4880000000000001,-0.042099999999986766,1.388,0.05242101546021272,2.0538936238407293,0.1307028284778834,0.08414636738663307
0.489,0.0175,-0.612,0.05229586957951098,2.0538936238407293,0.1303734978565386,0.08414636738663307
0.4900000000000001,0.008999999999994826,-0.612,0.05210621953231157,2.0538936238407293,0.12987441976038375,0.08414636738663307
0.491,-0.0143,-1.612,0.052060715213474835,2.059203887362121,0.1297546717869599,0.08449496918732702
0.4920000000000001,-0.021299999999992915,-1.612,0.05251441462344971,2.059203887362121,0.130948615269182,0.08449496918732702
0.493,0.0106,0.388,0.05370646597305369,2.0868147389517526,0.1340855863739329,0.08630753320492528
0.4940000000000001,0.01649999999999654,-0.612,0.054131210614577215,2.1002648621921334,0.13520333324599484,0.08719049073843833
0.495,0.0009,-1.612,0.05426811496405496,2.077208644962338,0.1355636071457468,0.08567692388603639
0.4960000000000001,-0.01329999999998541,-1.612,0.0544876521689498,2.081574914105329,0.13614133550317176,0.08596355547775111
0.497,0.0524,-0.612,0.05529545227162766,2.108892891545612,0.138267121092322,0.08775689324500822
0.4980000000000001,0.08079999999999052,0.388,0.05546206161996153,2.1088928915456115,0.13870556588891433,0.0877568932450082
0.499,0.0381,0.388,0.055841977270751575,2.1088928915456115,0.13970534196329817,0.0877568932450082
0.4999999999999999,-0.0005,3.388,0.05576902431276414,2.0954981487367013,0.1395133608701274,0.08687757125953453
0.501,-0.0784,3.388,0.05617372168452665,2.0911609510108513,0.14057835187224266,0.08659284811329022
0.5019999999999999,-0.1303,0.388,0.05622654379958551,2.0954981487367013,0.14071735716650832,0.08687757125953453
0.503,-0.1208,0.388,0.05626452998688701,2.0911609510108513,0.1408173206219283,0.08659284811329022
0.5039999999999999,-0.0434,3.388,0.056431574957303866,2.1011415360956227,0.1412569117901827,0.08724804157374935
0.505,-0.0332,0.388,0.05654732624670336,2.1312349193368934,0.14156151985115634,0.08922357584707125
0.5059999999999999,0.052,-3.612,0.05822587398049151,2.197618895098874,0.145978742096312,0.09358147134408897
0.507,0.2004,-6.612,0.06027909080331771,2.212476825441702,0.15138193370138342,0.09455684690713406
0.5079999999999999,0.1393,-3.612,0.06208314790972959,2.208786310729022,0.15612944312370378,0.09431457643050983
0.509,0.0096,-1.612,0.06207516992669414,2.1964202379064255,0.15610844847253819,0.09350278333660703
0.5099999999999999,0.0263,-1.612,0.06254410905078787,2.1835624847556456,0.15734249638721734,0.09265871300315105
0.511,-0.0194,0.388,0.06239985660809883,2.179400549808574,0.1569628854378605,0.09238549529727343
0.5119999999999999,0.022,-2.612,0.063331840985682,2.13129543466204,0.15941547111173177,0.08922754848444238
0.513,0.0342,0.388,0.06241397204625675,2.062778151696539,0.15700003125515016,0.08472960819876497
0.5139999999999999,-0.0454,1.388,0.06077400595577236,2.031671030561279,0.15268433945183152,0.08268752527793194
0.515,-0.0556,-0.612,0.0606649561911183,2.030310882944022,0.15239736694782544,0.08259823594103267
0.5159999999999999,0.0673,1.388,0.06104937204236325,2.0303108829440215,0.15340898563183955,0.08259823594103265
0.517,0.0506,0.388,0.06107810687803181,2.0258341277297593,0.15348460347264983,0.0823043512924326
0.5179999999999999,0.0048,-1.612,0.0627145208688281,2.0258341277297593,0.15779094766347976,0.0823043512924326
0.519,-0.0093,-3.612,0.06281298419017889,2.031217749220466,0.15805006116061043,0.08265776880897482
0.5199999999999999,0.0028,-0.612,0.06275191724775096,2.0312177492204655,0.1578893589946211,0.0826577688089748
0.521,0.014,-3.612,0.06245292506410268,2.0352302772416,0.15710253899650387,0.0829211784284537
0.5219999999999999,0.024,0.388,0.062309019667989,2.0352302772416,0.15672384132582354,0.0829211784284537
0.523,-0.0613,1.388,0.062398366031455973,2.029857297872749,0.15695896287541417,0.08256845953314318
0.5239999999999999,-0.0954,0.388,0.06216415641624721,2.0343251996801266,0.1563426229873642,0.08286176298392324
0.525,-0.002,1.388,0.062241536794746026,2.0186123339329565,0.15654625516437243,0.08183026364844574
0.5259999999999999,0.0353,0.388,0.062249037210590726,2.018612333932953,0.15656599306222915,0.08183026364844552
0.527,0.024,-1.612,0.062035552940281895,2.0127375614716674,0.15600419344889863,0.08144460364298223
0.5279999999999999,0.0341,-0.612,0.06188043763694477,2.006845591472245,0.1555959960800228,0.0810578146741939
0.529,0.0435,-2.612,0.061913245069122685,2.011364610491574,0.15568233125912176,0.08135447380629955
0.5299999999999999,0.0007,-1.612,0.06191975343926239,2.0194605887818815,0.15569945851548872,0.08188594886380116
0.531,-0.0069,-1.612,0.062139783315185076,2.0329033854618537,0.1562784833730846,0.08276842543207753
0.5319999999999999,-0.0138,-1.612,0.062128561860005156,2.0234964310064725,0.15624895328558933,0.08215088898610236
0.533,-0.0327,1.388,0.061876406319860286,2.0095325500332812,0.15558538737158728,0.08123420490209765
0.5339999999999999,-0.0153,1.388,0.06241077864274808,1.980844760364693,0.15699162757813084,0.07935094334716482
0.535,0.0218,1.388,0.06257836771897286,1.9822388503117514,0.15743265060097605,0.07944246088935761
0.5359999999999999,0.0941,0.388,0.06280894925144859,1.968450089462837,0.15803944292154665,0.07853727288090824
0.537,0.0632,4.388,0.06347820736182049,1.9250572834978816,0.15980064503297778,0.07568867408056426
0.5379999999999999,0.0159,1.388,0.06315763158515972,1.9123010575718027,0.1589570262168907,0.07485126868439576
0.539,-0.0268,-0.612,0.06301705249732945,1.9246459054810308,0.15858708197195334,0.07566166843068221
0.5399999999999999,-0.0344,-1.612,0.06299862987525232,1.941119554492259,0.15853860148229246,0.07674311075198707
0.541,-0.0695,-1.612,0.0631141831533075,1.946737464710096,0.1588426884617995,0.0771119085734484
0.5419999999999999,-0.1141,3.388,0.06310698554936085,1.9411195544922593,0.15882374743580127,0.07674311075198707
0.543,-0.0731,2.388,0.06307113766859535,1.935009524908055,0.15872941109184652,0.07634200686952125
0.5439999999999999,-0.0466,1.388,0.06309670283818687,1.9411195544922593,0.15879668772244077,0.07674311075198707
0.545,-0.09,1.388,0.06309159465847221,1.9406451229316921,0.15878324517051706,0.07671196583881028
0.5459999999999999,-0.0957,3.388,0.06316427319735865,1.9345335949037514,0.15897450410957034,0.07631076358831003
0.547,-0.0478,0.388,0.0631501169332135,1.9288801409464418,0.15893725085568214,0.07593963243413672
0.5479999999999999,-0.0665,-0.612,0.06298482547855604,1.9284026982100757,0.15850227419356525,0.07590828984690823
0.549,0.01,0.388,0.062525369003777,1.9284026982100757,0.15729318057041605,0.07590828984690823
0.5499999999999999,0.0826,0.388,0.06250236359307818,1.9331051018478624,0.15723264013426863,0.07621698759215546
0.551,-0.0402,1.388,0.06254954420374517,1.903749421926346,0.157356799393361,0.0742898811802021
0.5519999999999999,-0.0236,0.388,0.06207879252398552,1.8734424881767502,0.15611798160467297,0.07230032799963741
0.553,0.0524,-2.612,0.06069473523506991,1.8734424881767502,0.1524757326997994,0.07230032799963741
0.5539999999999999,0.0386,-3.612,0.059794475827323695,1.8734424881767502,0.15010663362548665,0.07230032799963741
0.555,0.1476,-5.612,0.060036193708806036,1.8475578529110321,0.1507427320703763,0.07060108455765267
0.5559999999999999,0.1601,-2.612,0.061103866624044,1.8475578529110321,0.15355239214545557,0.07060108455765267
0.557,0.1493,-0.612,0.060922821662595154,1.8127612896238052,0.15307595896754386,0.0683168015703727
0.5579999999999999,0.0145,-0.612,0.05773096851991133,1.6896904163534128,0.1446763618507469,0.06023759272090441
0.559,-0.0778,0.388,0.05634592079923887,1.6896904163534128,0.14103150655160726,0.06023759272090441
0.5599999999999999,-0.0278,0.388,0.05864013428056269,1.683214802526078,0.14706889865005482,0.05981248940320391
0.561,0.1094,-0.612,0.05860924168618722,1.676164910769693,0.14698760250795587,0.059349686577868946
0.5619999999999999,-0.02,-1.612,0.05858038818662855,1.6761649107696932,0.1469116723943609,0.05934968657786896
0.5630000000000001,-0.0366,0.38800000000011103,0.05884615512110882,1.6570593063461074,0.14761105769713312,0.05809546480929222
0.564,-0.0821,1.388,0.05874735459608119,1.6570593063461074,0.14735105682363983,0.05809546480929222
0.5650000000000001,-0.0684,1.3879999999998889,0.05931085618822032,1.6570593063461074,0.14883395285207757,0.05809546480929222
0.566,0.045,0.38799999999977797,0.0590568354117484,1.6565035203930527,0.14816547843101882,0.058058979240684414
0.5670000000000001,0.1516,-1.612,0.05872651504268152,1.6510134901775462,0.14729621600082426,0.057698576332000096
0.568,0.0548,-1.611999999999889,0.058532555931646545,1.6581703193868758,0.14678579828515956,0.058168399258787265
0.5690000000000001,0.0175,-0.6119999999997779,0.05853217969186021,1.689145367173265,0.1467848081823938,0.060201811987066846
0.57,0.0063,1.3879999999998889,0.059009580692201205,1.6707394888998222,0.1480411241489387,0.05899352500024809
0.5710000000000001,-0.0247,0.387999999999889,0.059177252121219485,1.6772632683758695,0.14848236388923794,0.05942179023859625
0.572,-0.0342,-0.6119999999997779,0.059199994769729106,1.6443855731167727,0.14854221284729155,0.05726347479458519
0.5730000000000001,-0.0258,1.3879999999997779,0.05922727526018018,1.649897657856666,0.1486140034713254,0.05762532551219343
0.574,-0.0335,-0.612000000000222,0.05930856020465659,1.644385573116773,0.14882791080187663,0.057263474794585205
0.5750000000000001,0.0159,-2.611999999999667,0.058567067735438655,1.6788326355100383,0.14687661864395088,0.05952481416701662
0.576,-0.0029,0.388,0.05862350156997463,1.6739660335266402,0.14702512844458024,0.05920533732602009
0.5770000000000001,-0.0086,0.388,0.05852363337216399,1.6934246887363809,0.14676231791135982,0.060482735748503776
0.578,-0.0241,1.388,0.058479251174655904,1.6864174788807715,0.14664552288302948,0.06002273485331926
0.5790000000000001,-0.0574,2.388,0.05838087812311492,1.6858713715467475,0.1463866469375656,0.05998688465506713
0.58,-0.053,2.388,0.05823997989886637,1.6831381770468474,0.14601586286158996,0.0598074591857898
0.5810000000000001,-0.049,1.388,0.058240999391923634,1.692804653921392,0.14601854573281292,0.0604420324477867
0.582,-0.0164,0.388,0.05845882617193577,1.6857948668182001,0.14659177298092266,0.05998186236454882
0.5830000000000001,-0.0819,0.388,0.05860249706607737,1.6787558100102773,0.14696985354235623,0.05951977081889501
0.584,-0.0535,-1.612,0.05872559538294581,1.6738889846673204,0.1472937958483551,0.05920027931505847
0.5850000000000001,0.0582,-0.612,0.058710571156129855,1.6879783350757955,0.14725425848663948,0.06012520006583042
0.586,0.104,-1.612,0.0599851405157606,1.7200229702110321,0.15060838182494268,0.062228827779544464
0.5870000000000001,0.0347,-2.612,0.059387849602389235,1.720558237819123,0.14903656670389212,0.06226396638448977
0.588,-0.0026,-2.612,0.0593223104163135,1.6690852419059494,0.1488640954986737,0.05888492898075988
0.5890000000000001,0.0085,-2.612,0.05931466232660099,1.6690852419059494,0.1488439689861349,0.05888492898075988
0.59,0.0393,-1.612,0.05925362946918128,1.6739660335266398,0.14868335651736025,0.059205337326020055
0.5910000000000001,0.0109,-0.612,0.059163314445159806,1.6836851708993135,0.14844568586602938,0.05984336758113968
0.592,0.0025,0.388,0.05889398188161255,1.6933485252633578,0.14773691734720934,0.06047773586031819
0.5930000000000001,-0.0207,-1.612,0.05783102943938383,1.6592028577098656,0.14493967954524412,0.05823618209427741
0.594,0.0144,0.388,0.05739074014003757,1.6493394586097934,0.14378102575886229,0.05758868151857204
0.5950000000000001,-0.0302,0.388,0.05720779398223306,1.6510134901775464,0.14329958944242457,0.05769857633200011
0.596,-0.0008,-0.612,0.056506105724560884,1.646064642745106,0.1414530450048952,0.05737370034056226
0.5970000000000001,0.0256,0.388,0.05569096759760681,1.6114885462795678,0.13930794886328585,0.05510389029435656
0.598,-0.0272,0.388,0.055926928339480486,1.6171127675943224,0.13992889697039484,0.05547310241912715
0.5990000000000001,-0.0339,1.388,0.05703042134615787,1.6338692750938102,0.14283282025976626,0.05657311349468529
0.6,0.0244,-0.612,0.05904664353787999,1.6510134901775462,0.1481386577627321,0.057698576332000096
0.6010000000000001,0.017299999999995402,0.388,0.05894914830355855,1.6581703193868755,0.14788209185806797,0.05816839925878725
0.602,-0.0034,0.388,0.059366362330841894,1.659835444589785,0.14898002136296673,0.05827770939787485
0.6030000000000001,-0.061300000000001735,0.388,0.06390048748258483,1.666954398435632,0.16091190633677022,0.058745045928297934
0.604,-0.0691,1.388,0.06440110308741853,1.6471830716234623,0.1622293132483705,0.057447121616054996
0.6050000000000001,-0.11839999999997858,0.388,0.06428673102495497,1.6086289741335347,0.16192833472487136,0.05491616853717714
0.606,-0.0219,0.388,0.06258657310114984,1.5094631555800166,0.15745424366976554,0.04840625000379584
0.6070000000000001,0.047500000000002755,-0.612,0.06051586118763432,1.488218987483445,0.1520050124423359,0.04701163837616628
0.608,0.0599,-3.612,0.058753976765789424,1.506409924185729,0.14736848355197027,0.04820581513692033
0.6090000000000001,0.16279999999995987,-0.612,0.05873929966340331,1.5433419365100505,0.14732985967381101,0.0506302835173776
0.61,-0.0179,0.388,0.05822415735253023,1.5614804096251933,0.14597422466313775,0.05182101621158494
0.6110000000000001,0.006599999999985234,0.388,0.05861365632743336,1.5794105882562428,0.14699921996221368,0.05299807503971444
0.612,-0.0599,-0.612,0.05818071546364577,1.59656284288309,0.14585990412634908,0.05412406564729791
0.6130000000000001,0.0010000000000205391,0.388,0.058608709125820224,1.5948316576535402,0.14698620103604498,0.05401041887893608
0.614,0.0935,1.388,0.0590615195278135,1.6022394576346162,0.1481778050281511,0.054496717233468016
0.6150000000000001,0.009900000000003377,0.388,0.05859368796225647,1.6359643755197102,0.14694667173550363,0.05671065013070368
0.616,0.0251,0.388,0.06221513558333657,1.6376520793473182,0.156476778428031,0.0568214424842229
0.6170000000000001,-0.016499999999997246,-1.612,0.06205313026735144,1.6760879629915784,0.15605044948236083,0.059344635202564854
0.618,-0.0041,-3.612,0.06024187648600906,1.6885237609696002,0.1512840014788168,0.06016100552971362
0.6190000000000001,0.07559999999999314,-2.612,0.05999323300048859,1.6885237609696013,0.15062967779576286,0.060161005529713686
0.62,0.0447,-1.612,0.060024762061169246,1.6933485252633609,0.15071264884591773,0.06047773586031839
0.6210000000000001,-0.021400000000001865,1.388,0.060022763876344545,1.6933485252633618,0.1507073904750773,0.060477735860318446
0.622,-0.0298,1.388,0.05999475200980782,1.709896477762403,0.15063367518089552,0.061564055967734135
0.6230000000000001,-0.06869999999998905,0.388,0.060001141864360195,1.7093578715384936,0.15065049055474752,0.061528698193348094
0.624,-0.0194,3.388,0.059962733067803795,1.7109731815582652,0.15054941497188298,0.061634738125133585
0.6250000000000001,-0.025699999999996115,-0.612,0.05995028389611043,1.7173441296622163,0.15051665405777206,0.06205297047315518
0.626,-0.0082,-2.612,0.05993780473227942,1.6987017384867662,0.1504838142171374,0.060829157171456774
0.6270000000000001,0.007299999999998957,0.388,0.05993749494508445,1.7056584827231074,0.15048299898927028,0.06128584516028943
0.628,0.0026,0.388,0.059937781067972574,1.7061982567565113,0.15048375194276742,0.06132127959763034
0.6289999999999999,0.0156,2.388,0.05992893442750137,1.706198256756511,0.15046047135544918,0.06132127959763033
0.63,0.0036,2.388,0.0597344979090307,1.690158982575294,0.14994879730688282,0.060268352593372924
0.6309999999999999,-0.0508,0.388,0.059566202358043704,1.680477287283174,0.14950591514356013,0.05963278029098015
0.632,-0.0432,0.388,0.05958728730652515,1.6750658329594932,0.14956140174164453,0.05927753563805306
0.6329999999999999,-0.0501,-0.612,0.059564874264811864,1.6750658329594932,0.14950242016820184,0.05927753563805306
0.634,0.0079,-2.612,0.058999069936579565,1.6750658329594932,0.14801346431978357,0.05927753563805306
0.6349999999999999,0.125,-3.612,0.058763243709565836,1.6847786258299988,0.1473928701984563,0.05991514939691569
0.636,0.0414,-0.612,0.05849458481980562,1.6842319871027132,0.14668587450192674,0.05987926431439706
0.6369999999999999,0.0567,1.388,0.05768975408724459,1.6771863709894088,0.14456790302939057,0.05941674217134293
0.638,-0.0125,1.388,0.05759720549970986,1.6646658797965908,0.14432435459082843,0.05859481200576702
0.6389999999999999,-0.0002,1.388,0.05762346348583416,1.65205050155414,0.14439345441926135,0.05776665280913997
0.64,0.0111,2.388,0.05762942104566097,1.6320986381540454,0.1444091321776379,0.05645687684784267
0.6409999999999999,-0.0407,2.388,0.057551172591692235,1.6248269758091043,0.14420321559596302,0.05597951549331227
0.642,0.0253,0.388,0.05756981055965451,1.629840310573287,0.14425226278421407,0.05630862487163888
0.6429999999999999,0.017,-1.612,0.057569353608470396,1.6354014205374656,0.1442510602834482,0.05667369393827942
0.644,0.0093,-1.612,0.05755483538119913,1.6281445092339404,0.1442128544968793,0.05619730094239619
0.6449999999999999,-0.0117,-0.612,0.05756248676973103,1.628709972531111,0.14423298969050477,0.0562344217976656
0.646,-0.0056,-0.612,0.05749692589429998,1.6287099725311114,0.14406046140814704,0.05623442179766563
0.6469999999999999,-0.0701,1.388,0.05768861183374949,1.6337113916708035,0.14456489710501522,0.05656274895338933
0.648,-0.1299,2.388,0.057633693537425916,1.6409436841714822,0.14442037555504472,0.057037525803676645
0.6489999999999999,-0.1532,2.388,0.05866949993691367,1.6409436841714826,0.14714617654204803,0.05703752580367668
0.65,-0.0751,-1.612,0.06080481676383662,1.6409436841714824,0.15276542036721633,0.05703752580367666
0.6509999999999999,0.0811,-1.612,0.06188777355624399,1.6459079291609673,0.15561530109307956,0.057363412595443045
0.652,0.2377,-1.612,0.06233510577699888,1.645907929160967,0.15679248884694463,0.057363412595443024
0.6529999999999999,0.0958,0.388,0.06333936042727474,1.6464672917943457,0.15943525907724865,0.05740013296166425
0.654,0.0033,-0.612,0.06456167288377039,1.6464672917943455,0.1626518645181785,0.057400132961664234
0.6549999999999999,-0.0135,-0.612,0.0645230099289395,1.6415047384323742,0.16255012009905673,0.0570743572198288
0.656,-0.0103,-0.612,0.06357240307637861,1.641504738432374,0.1600485280078667,0.057074357219828786
0.6569999999999999,0.0354,2.388,0.063575203810953,1.6487028445548542,0.16005589834760486,0.05754688984382654
0.658,-0.0058,3.388,0.063399665227838,1.64814424064449,0.15959395561067197,0.05751021928534235
0.6589999999999999,0.0067,2.388,0.06312941748520833,1.6264469397824235,0.15888277873055257,0.05608586094224969
0.66,-0.0729,2.388,0.06163846381220119,1.6314552965313758,0.15495922410155155,0.0564146435298123
0.6609999999999999,-0.0829,2.388,0.061643027163765074,1.66616970611018,0.15497123289798592,0.058693533389128937
0.662,-0.0734,1.388,0.06190169338025895,1.66616970611018,0.1556519321373149,0.058693533389128937
0.6629999999999999,-0.0816,-1.612,0.06178166570455039,1.6656169601338773,0.15533607045015416,0.05865724738526318
0.664,0.0355,-3.612,0.0618247801919514,1.6656169601338773,0.15544952940577553,0.05865724738526318
0.6649999999999999,0.2202,-1.612,0.0612171163475174,1.6656169601338773,0.1538504171510689,0.05865724738526318
0.666,-0.0015,-3.612,0.06138491191465626,1.6656169601338773,0.15429198356999435,0.05865724738526318
0.6669999999999999,0.0284,-2.612,0.06138991569746935,1.6727113083951304,0.15430515139376666,0.05912296863782631
0.668,0.0016,-1.612,0.06236677005658386,1.7034219631612948,0.15687581573562592,0.0611390248107165
0.6689999999999999,0.0262,1.388,0.06459366208983532,1.6851720247222874,0.1627360464748727,0.05994097477482591
0.67,0.0039,1.388,0.0651983603207517,1.6851720247222874,0.1643273544987333,0.05994097477482591
0.6709999999999999,-0.0166,2.388,0.06523905810058805,1.6975412762522974,0.16443445371003537,0.060752976540694566
0.672,-0.0353,0.388,0.06521083113879711,1.7294087264000393,0.16436017237681722,0.06284497262719316
0.6729999999999999,0.0146,-1.612,0.06516547673377894,1.7430493594971048,0.1642408189126712,0.06374043652292774
0.674,-0.0312,-1.612,0.06480991882957846,1.7430493594971048,0.16330514204613916,0.06374043652292774
0.6749999999999999,0.0101,-0.612,0.06492050416609572,1.7151980448305664,0.16359615552083476,0.061912086874113176
0.676,-0.0022,-1.612,0.06497408813816791,1.7146611039260593,0.16373716569805916,0.061876838422614794
0.6769999999999999,0.009,-0.612,0.06500468837099559,1.7119738733253511,0.1638176924691676,0.06170043033617745
0.678,-0.0218,1.388,0.0650986805261907,1.7119738733253513,0.16406503976256923,0.06170043033617746
0.6789999999999999,-0.0312,-0.612,0.06509925149203581,1.7119738733253516,0.16406654230133028,0.061700430336177475
0.68,0.0286,-1.612,0.06508097583049352,1.7007928076700793,0.16401844854916312,0.06096642916930436
0.6809999999999999,0.0517,0.388,0.06509897693430144,1.6841554079032026,0.16406581978238882,0.059874237135098415
0.682,0.0024,0.388,0.06491652897933888,1.6847020714782979,0.16358569452349908,0.0599101238487962
0.6829999999999999,-0.0039,0.388,0.06478110959408029,1.6917163866885603,0.16322932841668628,0.06037059118776767
0.684,-0.0097,2.388,0.06460278665153432,1.6981595816248436,0.16276005843241362,0.060793566309051646
0.6849999999999999,-0.0149,0.388,0.06464375993483505,1.6793042313163309,0.16286788265141547,0.05955577292200327
0.686,0.0381,0.388,0.06343253436564772,1.6409436841714806,0.1596804531726951,0.05703752580367655
0.6869999999999999,-0.0113,-1.612,0.06337630269007302,1.6459079291609664,0.15953247536829251,0.05736341259544298
0.6880000000000001,-0.0175,-1.611999999999778,0.06331299667763822,1.6459079291609662,0.15936588092432752,0.05736341259544297
0.689,0.0119,0.388,0.06353209014188588,1.657459284447517,0.15994244154548953,0.05812172209121953
0.6900000000000001,-0.0251,0.38800000000011103,0.06355728712069958,1.6525297404127424,0.16000874925487793,0.05779811330604343
0.691,0.0183,1.388,0.06356107279378892,1.6409436841714802,0.1600187115330107,0.05703752580367651
0.6920000000000001,0.0008,1.3879999999998889,0.06346987583038656,1.6236931477251488,0.15977871999310828,0.05590508330926867
0.693,0.0164,0.387999999999889,0.06349508413783177,1.6236931477251488,0.1598450575146266,0.05590508330926867
0.6940000000000001,-0.017,-0.611999999999889,0.06347726970292975,1.623693147725149,0.15979817751440373,0.05590508330926868
0.695,-0.0127,0.38800000000011103,0.06347067028128094,1.6219909195025126,0.15978081064927055,0.05579333747571208
0.6960000000000001,0.0471,1.3879999999996668,0.06346182408132565,1.6219909195025126,0.15975753122120248,0.05579333747571208
0.697,0.0042,-1.611999999999778,0.06355295947397484,1.6219909195025124,0.15999736073312373,0.055793337475712065
0.6980000000000001,-0.113,0.38800000000011103,0.06319229222692344,1.616953248024177,0.15904823825378914,0.05546263047000926
0.699,-0.1632,1.388,0.061856889796765575,1.5994439876542308,0.15553402820066428,0.05431320357825627
0.7000000000000001,-0.1177,1.3879999999998889,0.05992718929458412,1.5817409184157178,0.15045587890937948,0.053151053754712664
0.701,-0.0764,0.387999999999889,0.05956660799990663,1.5799934930149562,0.14950698262006046,0.05303634087109964
0.7020000000000001,0.1125,-0.611999999999889,0.05902721982065826,1.572480898015067,0.14808754281731332,0.05254316305905776
0.703,0.1394,0.387999999999889,0.054213813737019736,1.5655205341829939,0.13542070945915083,0.05208623745535253
0.7040000000000001,0.0656,-0.612,0.053372639679886286,1.5655205341829939,0.13320709784571627,0.05208623745535253
0.705,0.0433,0.388,0.053400356126016346,1.5655205341829939,0.13328003571929467,0.05208623745535253
0.7060000000000001,0.0229,-1.612,0.05345127800462944,1.5857294240493667,0.13341404040110807,0.05341288638135481
0.707,0.0043,0.388,0.05345948251992334,1.5857294240493667,0.13343563118863078,0.05341288638135481
0.7080000000000001,-0.0124,2.388,0.05336253761346193,1.5678715092899886,0.13318051351234672,0.05224057144506576
0.709,-0.0886,1.388,0.0534446813486558,1.5309297713037862,0.13339668081405323,0.04981546460604029
0.7100000000000001,-0.0194,3.388,0.05355511641247228,1.5309297713037862,0.13368729883504596,0.04981546460604029
0.711,-0.0568,0.388,0.05357855430091459,1.5309297713037862,0.133748977368294,0.04981546460604029
0.7120000000000001,0.0461,0.388,0.053696487358684056,1.5184161472856934,0.13405932691375663,0.04899398524850155
0.713,-0.023,0.388,0.05387386536103067,1.549807837440048,0.13452611021815425,0.05105474921446133
0.7140000000000001,-0.0352,1.388,0.05328753794549144,1.542745183533863,0.13298314635079994,0.05059110859484684
0.715,-0.0463,0.388,0.054553732797488944,1.5008984557998157,0.13631523155419334,0.04784400488097777
0.7160000000000001,0.0263,-1.612,0.050946165829919864,1.4929879139748388,0.12682165282582925,0.04732470313379648
0.717,0.1113,-3.612,0.05102063448942503,1.449705619972648,0.1270176225994089,0.04448335909003146
0.7180000000000001,0.1683,-2.612,0.05113351498734715,1.449705619972648,0.12731467596073368,0.04448335909003146
0.719,0.1165,-2.612,0.05260586663758435,1.485035234574456,0.1311892779939102,0.04680263518968273
0.7200000000000001,0.0503,-2.612,0.052848269868053764,1.486894260849979,0.1318271799852409,0.04692467431346145
0.721,-0.0096,-3.612,0.05284842123778896,1.481397247970961,0.13182757832587078,0.04656381301527085
0.7220000000000001,-0.0173,-2.612,0.052841911681980304,1.4684615888642105,0.13181044794932845,0.04571462840520191
0.723,-0.0105,0.388,0.052814815403322495,1.4690885166126877,0.13173914209222418,0.045755784204936464
0.7240000000000001,-0.0425,1.388,0.052996650869385833,1.469088516612688,0.13221765554137138,0.04575578420493648
0.725,-0.0368,0.388,0.05362116771524861,1.4610057516299986,0.1338611177131583,0.04522517655878089
0.7260000000000001,-0.021500000000003128,2.388,0.05367632984226084,1.4665791976393932,0.13400628092158173,0.04559105544729908
0.727,-0.0356,0.388,0.05368752500277941,1.4972128721662394,0.134035741812735,0.04760205811391109
0.7280000000000001,0.0037999999999988455,0.388,0.0536807327496425,1.5026520293244703,0.13401786749730915,0.04795912136924267
0.729,-0.0014,1.388,0.05374947194164281,1.5343662724022638,0.13419875975429166,0.05004105990205342
0.7300000000000001,-0.015599999999993227,0.388,0.05385593459976278,1.5520164183618101,0.13447892409651424,0.05119973548175355
0.731,0.0149,-0.612,0.05407335690880279,1.5502354878674482,0.1350510869494092,0.051082823096003885
0.7320000000000001,0.011000000000000822,-1.612,0.05448588619370511,1.5907848988905717,0.13613668820897915,0.05374476212083698
0.733,0.0147,-1.612,0.054665177621072265,1.6552355581326221,0.13660850683253692,0.057975741577352365
0.7340000000000001,0.02439999999999667,-0.612,0.05502323713548009,1.7172690270528204,0.1375507668709586,0.06204804022727063
0.735,0.0094,0.388,0.05520729538167557,1.719947984574902,0.13803512973007384,0.062223905212580345
0.7360000000000001,-0.03140000000000388,1.388,0.055526286185740285,1.7204832755121255,0.13887457757379693,0.06225904534900853
0.737,-0.0489,1.388,0.05540190260550432,1.7204832755121255,0.13854725300238874,0.06225904534900853
0.7380000000000001,-0.054099999999983994,2.388,0.055427362988858385,1.7135867173766264,0.13861425388026544,0.061806308385025335
0.739,0.018,-0.612,0.055406882539858635,1.7135867173766286,0.13856035806718164,0.06180630838502548
0.7400000000000001,-0.01290000000000211,1.388,0.05539441114079219,1.7188769026012143,0.138527538660098,0.06215359210980979
0.741,-0.0224,0.388,0.055343428929251565,1.7194125269898461,0.138393375207733,0.06218875413625546
0.7420000000000001,-0.03079999999999485,0.388,0.05533871531007757,1.714123994827467,0.13838097097099225,0.06184157892971314
0.743,-0.0076,-1.612,0.05534599361029221,1.708819095550182,0.1384001243551754,0.061493329274472514
0.7440000000000001,-0.0007999999999986455,1.388,0.05532235574777299,1.714123994827468,0.1383379195753851,0.06184157892971322
0.745,0.0053,-0.612,0.055335029907692936,1.7188769026012154,0.1383712725626193,0.06215359210980986
0.7460000000000001,0.034599999999996536,-0.612,0.05532126402841414,1.7241508561092564,0.13833504663531893,0.062499810274364805
0.747,0.019,-0.612,0.05520178063319365,1.7351814149963185,0.13802061726243264,0.06322393115371484
0.7480000000000001,0.014299999999997069,0.388,0.055217500745094766,1.733588661686398,0.13806198589710902,0.06311937199772139
0.749,0.0011,0.388,0.0541378655989865,1.7335886616863978,0.135220846328633,0.06311937199772137
0.7500000000000001,0.03679999999999469,1.388,0.05175370578209654,1.7283435074085536,0.12894675380973544,0.06277504441043529
0.751,0.0129,0.388,0.05047400792068263,1.7283435074085547,0.12557913444048546,0.06277504441043535
0.7520000000000001,-0.043999999999987896,-0.612,0.04989165865043646,1.728343507408555,0.12404663935607327,0.06277504441043537
0.753,0.0105,0.388,0.048611479209236856,1.7283435074085551,0.12067775267407466,0.06277504441043538
0.7540000000000001,0.01759999999999012,-0.612,0.04678602381809452,1.7288761989439767,0.11587393208620511,0.0628100139044566
0.755,-0.0269,-2.612,0.04639654182386448,1.7283435074085556,0.11484898147302365,0.06277504441043542
0.7559999999999999,0.0141,-0.612,0.046394731444110056,1.7288761989439767,0.11484421732508644,0.0628100139044566
0.757,-0.0144,0.388,0.04648456076069156,1.722547903427161,0.11508060980144186,0.06239458156223881
0.7579999999999999,-0.0301,0.388,0.04702174571023837,1.722547903427161,0.11649425164262199,0.06239458156223881
0.759,-0.0349,2.388,0.04704430727434366,1.7061226635118116,0.11655362406370082,0.06131631714310874
0.7599999999999999,-0.0746,2.388,0.04621087864054634,1.700792807670089,0.11436039510341922,0.06096642916930499
0.761,-0.0902,1.388,0.046286087386547776,1.6722378532881124,0.11455831246923524,0.05909188782569913
0.7619999999999999,-0.0854,3.388,0.04627390014214682,1.68899265084911,0.11452624083612561,0.06019178664926932
0.763,-0.0197,-0.612,0.04693151645882353,1.722547903427161,0.11625680670823581,0.06239458156223881
0.7639999999999999,0.1222,0.388,0.04687984975412842,1.7414638022716113,0.11612084196161639,0.06363634976684045
0.765,0.102,0.388,0.04731171075154016,1.7430493594971124,0.11725731604941438,0.06374043652292824
0.7659999999999999,-0.0275,0.388,0.047132202405272064,1.7498298011494238,0.11678492658775928,0.06418555081150813
0.767,-0.0441,-2.612,0.04755812052643215,1.7792098235840388,0.11790576155809245,0.06611425523151994
0.7679999999999999,0.1237,-3.612,0.04718959311365803,1.7498298011494182,0.1169359544725461,0.06418555081150777
0.769,0.057,-1.612,0.04409617530939463,1.7315371984578565,0.10879539721373328,0.06298470000401596
0.7699999999999999,-0.0039,-0.612,0.042583054143076886,1.713049271415142,0.10481350719003367,0.06177102677815321
0.771,0.0146,1.388,0.0422943021547028,1.6991678197286106,0.10405363502154881,0.060859753912940906
0.7719999999999999,0.0312,-0.612,0.04232720739872893,1.6618202022421933,0.10414022759974526,0.058408002384048405
0.773,0.0463,-1.612,0.04262593303446666,1.6425477531058126,0.10492634615736354,0.05714282779418846
0.7739999999999999,0.0875,0.388,0.04268658852127131,1.6431082596428686,0.10508596554751312,0.057179623254024176
0.775,-0.0262,1.388,0.042603782159350505,1.6431082596428686,0.10486805449467013,0.057179623254024176
0.7759999999999999,-0.0111,3.388,0.042447357421185127,1.648624615014876,0.10445641125140209,0.05754175432495935
0.777,0.0026,1.388,0.042476366524334744,1.6314552965313758,0.10453275084733085,0.0564146435298123
0.7779999999999999,-0.0348,3.388,0.04237616830418034,1.6314552965313758,0.10426907183595582,0.0564146435298123
0.779,-0.046,2.388,0.04254551656609979,1.6314552965313758,0.10471472428579164,0.0564146435298123
0.7799999999999999,-0.0561,1.388,0.04288284099709172,1.6258806894277156,0.1056024184218704,0.05604868841917252
0.781,-0.0844,-3.612,0.04286622528796023,1.6264469397824222,0.10555869295698356,0.056085860942249606
0.7819999999999999,0.0444,-4.612,0.042846722855783885,1.6314552965313718,0.1055073708673522,0.056414643529812035
0.783,0.0629,-4.612,0.042841300780458766,1.6314552965313707,0.1054931022759628,0.056414643529811966
0.7839999999999999,0.0462,-2.612,0.043287640720469166,1.6247475966766645,0.10666767876981437,0.055974304507380106
0.785,0.0614,-0.612,0.043344418313232304,1.624180753867294,0.10681709319558927,0.05593709309155095
0.7859999999999999,-0.0079,0.388,0.04345993401098767,1.6247475966766645,0.10712108127976375,0.055974304507380106
0.787,-0.0202,0.388,0.04335227492074767,1.6191498956490293,0.10683776843811574,0.05560683335456082
0.7879999999999999,-0.009,-1.612,0.04310266852464542,1.6135327750789348,0.10618091078479913,0.0552380873709459
0.789,0.0011,1.388,0.04281912321392982,1.5959859897885253,0.1054347403728467,0.054086197088291176
0.7899999999999999,-0.0083,-0.612,0.042792255320433674,1.601089634047366,0.1053640355281511,0.05442123499583873
0.791,-0.0166,0.388,0.04285639067662954,1.6129619910525674,0.10553281245143227,0.05520061722683771
0.7919999999999999,-0.0089,0.388,0.04312669351287662,1.6202869029673705,0.10624413431447198,0.05568147424516432
0.793,-0.0019,1.388,0.04302677547912047,1.6403824380151688,0.10598119263428288,0.057000681790204386
0.7939999999999999,-0.0207,1.388,0.0437248042983623,1.633147660072799,0.10781810698950127,0.05652574177862657
0.795,-0.0033,1.388,0.043735254158184696,1.6281445092339284,0.10784560656686633,0.0561973009423954
0.7959999999999999,-0.0297,2.388,0.04394998816223249,1.6275788494800871,0.10841069494676639,0.05616016719037447
0.797,0.0139,1.388,0.0439430545761577,1.6618202022421869,0.10839244870328356,0.05840800238404799
0.7979999999999999,0.0315,0.388,0.04411348115087293,1.6612660090745843,0.10884093881282536,0.058371621376706206
0.799,-0.0376,0.388,0.044090639159576395,1.6612660090745845,0.1087808284268961,0.05837162137670622
0.7999999999999999,-0.0281,1.388,0.04464270298051396,1.6991678197286042,0.11023362511626258,0.06085975391294048
0.801,-0.0027,0.388,0.044901039086975014,1.7007928076700745,0.11091345564667673,0.06096642916930404
0.8019999999999999,0.0049,-0.612,0.044917282479900754,1.7007928076700745,0.1109562013339897,0.06096642916930404
0.803,-0.0445,-0.612,0.04471120107011284,1.705582865555035,0.11041388289448137,0.061280881135275
0.8039999999999999,-0.0256,0.388,0.0447131457943961,1.7108977992858776,0.11041900057996139,0.0616297895202689
0.805,-0.0429,-0.612,0.04488632429739045,1.7103595083863492,0.11087473259187326,0.06159445244591904
0.8059999999999999,0.0369,-0.612,0.04481574081890492,1.6964560475393788,0.11068898695888903,0.06068173474978076
0.807,0.0711,0.388,0.044794879040294805,1.7012583160371622,0.11063408764879186,0.060996988303394305
0.8079999999999999,0.0193,0.388,0.04486459099743605,1.7177300703365095,0.11081753980903679,0.062078306242929635
0.809,0.0099,0.388,0.0451539313348162,1.7340453659552677,0.11157896026135365,0.06314935317094776
0.8099999999999999,-0.0327,1.388,0.045486362305653054,1.750734617101425,0.11245377689587696,0.06424494908221422
0.811,-0.0558,2.388,0.04541617476809537,1.7345763064404531,0.1122690732106664,0.06318420771412653
0.8119999999999999,-0.0907,3.388,0.044509726083060745,1.7361681536894984,0.10988368659637521,0.06328870739012406
0.8130000000000001,-0.0069,-2.611999999999889,0.0438014802900219,1.70342196316129,0.10801988552055548,0.06113902481071618
0.814,0.073,-1.612,0.043758612319883546,1.7028813091071842,0.10790707529330477,0.06110353260283337
0.8150000000000001,0.0215,-1.6120000000002221,0.04203897319962466,1.7028813091071842,0.10338171803193887,0.06110353260283337
0.816,0.0688,-3.611999999999778,0.04078828548843012,1.708204648522223,0.10009044101405896,0.06145299279408605
0.8170000000000001,0.0943,-1.611999999999889,0.040777101349083286,1.724610059661488,0.1000610091259325,0.06252995551754306
0.818,-0.0071,-0.612,0.04054302737091319,1.7055072450343343,0.09944502617676038,0.061275916890171256
0.8190000000000001,-0.0207,-0.6119999999997779,0.038677484884424664,1.68727986154963,0.09453571343889564,0.0600793475148266
0.82,-0.0082,1.3879999999997779,0.038713596903868754,1.7177300703365095,0.09463074488327758,0.062078306242929635
0.8210000000000001,-0.0192,-0.612,0.0387441775547424,1.753887536177638,0.09471122012302878,0.06445192812628285
0.822,0.0534,-0.612,0.03918839157895351,1.7847491834786176,0.09588020211255323,0.06647789647571868
0.8230000000000001,0.0252,-0.6119999999997779,0.04126672652765957,1.7908576938442815,0.10134949391969797,0.06687890062635074
0.824,0.0334,1.388,0.04189730762322402,1.7847491834786176,0.1030089146121413,0.06647789647571868
0.8250000000000001,-0.0055,1.3879999999998889,0.04105800688204988,1.8030126297252023,0.10080023276791203,0.06767683325593483
0.826,-0.0266,0.388,0.04126797262162765,1.7984820839518865,0.1013527731079418,0.06737941742933
0.8270000000000001,-0.0205,0.388,0.041252764646434,1.7668911491630097,0.10131275219880889,0.06530557369094586
0.828,-0.038,0.388,0.04137595747557832,1.7622677425232274,0.10163694322083712,0.06500206184572842
0.8290000000000001,-0.0536,0.387999999999889,0.041312301034787585,1.7294833018444866,0.10146942659879046,0.06284986826638643
0.83,-0.0101,-0.6119999999997779,0.04117494225154883,1.7131245590167223,0.10110795682305734,0.06177596916818246
0.8310000000000001,0.0073,1.3879999999996668,0.04078996077973332,1.7078165552482223,0.10009484966676668,0.06142751571303181
0.832,-0.0084,-1.611999999999889,0.03991003197670716,1.675538488967525,0.0977792520792566,0.059308563991889926
0.8330000000000001,0.0638,-0.612,0.039667250996658916,1.612470992395496,0.09714035601202975,0.05516838473681082
0.834,0.033,0.388,0.03917759796332375,1.5538783112895038,0.0958517979164105,0.051321962792070394
0.8350000000000001,-0.0329,-0.612,0.03895134798065866,1.5332496675194778,0.09525640438885269,0.049967758366030804
0.836,-0.0075,0.388,0.038466339383143235,1.5509125210428836,0.09398006846887146,0.05112726815661821
0.8370000000000001,0.0157,0.388,0.038460091669963704,1.5509125210428836,0.09396362715053272,0.05112726815661821
0.838,0.0225,0.388,0.03854459729840337,1.5509125210428836,0.09418600994863292,0.05112726815661821
0.8390000000000001,-0.0094,1.388,0.03898446537255817,1.549130321472857,0.09534355524983529,0.05101027246011378
0.84,-0.0267,2.388,0.03936210076071912,1.5613978100512795,0.09633733064481793,0.05181559381397945
0.8410000000000001,-0.0531,-1.612,0.03935386160782159,1.5608079604997107,0.09631564870588488,0.051776872079175314
0.842,-0.0096,-2.612,0.04029546567098506,1.566614138160894,0.09879354929233292,0.052158029055601046
0.8430000000000001,0.0783,0.388,0.040645680320133985,1.5723988763071333,0.09971516498884266,0.05253777859650397
0.844,-0.0095,-0.612,0.040645728174169816,1.5666141381608942,0.09971529092026976,0.05215802905560106
0.8450000000000001,-0.0436,0.388,0.04060902313846286,1.5608079604997107,0.09961869890982505,0.051776872079175314
0.846,-0.0335,3.388,0.040631048382163824,1.555572162551965,0.09967665996417727,0.05143315870500824
0.8470000000000001,-0.043,0.388,0.04057861219606595,1.5432583661138088,0.09953867027045558,0.050624797388394135
0.848,-0.0002,0.388,0.040650301980453274,1.5373639830092054,0.09972732722907031,0.05023785000697562
0.8490000000000001,0.0701,-3.612,0.04053863222744065,1.5432583661138088,0.0994334600323328,0.050624797388394135
0.85,0.0606,-1.612,0.04044850339291824,1.5509125210428838,0.09919627935241025,0.05112726815661823
0.8510000000000001,0.01769999999999829,0.388,0.04040622962902747,1.5456432030953728,0.09908503282275491,0.05078135430177249
0.852,0.01,1.388,0.040465665455990035,1.5456432030953728,0.09924144258801416,0.05078135430177249
0.8530000000000001,-0.011100000000007083,1.388,0.04055891338166401,1.5450473389515478,0.09948683138650376,0.05074223772824095
0.854,-0.043,0.388,0.04044696967364932,1.5444512449176224,0.09919224325695934,0.05070310606316026
0.8550000000000001,0.009899999999998492,1.388,0.040539988467429004,1.550318682159874,0.09943702907795822,0.05108828453497584
0.856,0.0031,1.388,0.04031752630341821,1.5573469902136754,0.09885160347474568,0.05154967045933104
0.8570000000000001,-0.02880000000000675,2.388,0.040150374401484085,1.5625768411762226,0.09841173090831162,0.051892993432957626
0.858,-0.0592,2.388,0.03952285575040006,1.563166023253425,0.09676036926453944,0.051931671350206356
0.8590000000000001,-0.06500000000000115,3.388,0.03959001356172413,1.5631660232534252,0.09693710000156007,0.05193167135020637
0.86,-0.0702,0.388,0.03957935130244507,1.5631660232534252,0.09690904147934884,0.05193167135020637
0.8610000000000001,0.0019000000000068168,-1.612,0.039608932293471115,1.5573469902136754,0.09698688604043208,0.05154967045933104
0.862,0.0326,-0.612,0.03922444339159433,1.5391598069319912,0.09597507511828886,0.050355740098623716
0.8630000000000001,0.004200000000001843,0.388,0.038161731444247914,1.507546408778932,0.09317847019635593,0.04828042171229189
0.864,0.0125,0.388,0.038165925237080574,1.485655168469879,0.09318950647171415,0.046843331865353374
0.8650000000000001,0.005000000000004663,1.388,0.037464480876782356,1.477663025271301,0.09134360386812496,0.04631867324922163
0.866,0.026,2.388,0.03752028701975313,1.4702538503878373,0.09149046185207428,0.04583228463674934
0.8670000000000001,0.007199999999993472,0.388,0.036886107328227224,1.4262818297537185,0.08982157118876727,0.042945662247586204
0.868,-0.0222,-2.612,0.03568033077357106,1.4243436954838613,0.08664848119394523,0.042818429937223984
0.8690000000000001,-0.059199999999990364,-3.612,0.03579238927881466,1.4236970644034348,0.08694337142087005,0.04277598067682225
0.87,-0.0158,-3.612,0.03573192046258184,1.4294159883825386,0.08678424326810728,0.04315140972834038
0.8710000000000001,0.060700000000016074,-3.612,0.035724979913700404,1.4427017835193698,0.08676597870148488,0.044023579647910885
0.872,0.1331,-1.612,0.03569910227402966,1.4427017835193696,0.08669787978281561,0.04402357964791087
0.8730000000000001,0.0859999999999867,-0.612,0.035310984985414046,1.4427017835193696,0.08567652049317935,0.04402357964791087
0.874,0.0261,-2.612,0.03539815747326072,1.4420633843546222,0.08590592132863424,0.043981670786421054
0.8750000000000001,0.049299999999989075,-0.612,0.035483574740673866,1.4363948161434021,0.08613070317197583,0.04360954742986304
0.876,0.0001,-0.612,0.035479187072271,1.4300600335361124,0.08611915669874579,0.043193689230922434
0.8770000000000001,-0.031899999999998735,-0.612,0.035693317683661886,1.4695396573404582,0.08668265720633636,0.04578540014949998
0.878,-0.0262,0.388,0.03603166856009334,1.5079860441911639,0.0875730525093451,0.048309282369721686
0.8790000000000001,-0.0313999999999926,0.388,0.035829674339848586,1.5454763066622272,0.08704148981077092,0.05077039808521382
0.88,0.0019,0.388,0.036590110732158024,1.5513398669474894,0.08904263430045102,0.05115532204721416
0.8810000000000001,0.00639999999999738,1.388,0.03742571630048172,1.5513398669474903,0.09124159202460547,0.051155322047214215
0.882,-0.0054,-0.612,0.037485796721172936,1.5861473894783527,0.09139969808583533,0.05344032447375557
0.8829999999999999,-0.009,-1.612,0.03814273700503173,1.5992827057223689,0.09312848492769119,0.05430261593573344
0.884,-0.0188,-0.612,0.04081842137084214,1.6190702381830109,0.10016974581277764,0.055601604096920235
0.8849999999999999,0.0017,2.388,0.04106375361800263,1.619070238183011,0.10081535572770432,0.05560160409692025
0.886,0.0041,0.388,0.04095384930916283,1.6185014070109198,0.10052613442760461,0.05556426215144371
0.8869999999999999,-0.0325,0.388,0.04094706779465494,1.619070238183011,0.1005082883716736,0.05560160409692025
0.888,-0.059,1.388,0.040928840235213905,1.619070238183011,0.10046032120373602,0.05560160409692025
0.8889999999999999,-0.0543,2.388,0.04106669017079351,1.6263676397165925,0.10082308348310313,0.056080655146787284
0.89,0.0025,0.388,0.04117179342119506,1.6213435671888452,0.10109967044358484,0.055750840868656934
0.8909999999999999,0.0883,1.388,0.041146558115391814,1.6038822357679448,0.10103326187389475,0.054604560358976206
0.892,0.0541,1.388,0.040801213919205985,1.6021589594016512,0.10012446313381675,0.054491432782168905
0.8929999999999999,0.0022,0.388,0.040946500379563544,1.581577831208438,0.10050679517698302,0.0531403476016378
0.894,0.0117,0.388,0.04030248027986519,1.5873080370540311,0.09881200875330781,0.053516517271574866
0.8949999999999999,-0.0137,-0.612,0.040310123542855285,1.5924394937167912,0.09883212256397034,0.05385338097440526
0.896,-0.0214,1.388,0.040110725733505374,1.5981307548117973,0.09830739251229169,0.05422699404613821
0.8969999999999999,0.0279,0.388,0.03997117427519083,1.567706979260681,0.09794015255026822,0.05222977057534361
0.898,0.009,1.388,0.0397381784397212,1.5682942340314565,0.09732700681318372,0.05226832197109521
0.8989999999999999,0.0264,-1.612,0.039753954314955,1.5682942340314563,0.0973685221931856,0.05226832197109519
0.9,0.0214,-0.612,0.039243159556002584,1.5277506044755194,0.0960243280862587,0.04960676248107496
0.9009999999999999,-0.022,0.388,0.03886247431765309,1.519979817671269,0.09502252678541348,0.0490966352036135
0.902,-0.0278,0.388,0.03910370834986015,1.5199798176712687,0.09565735194522518,0.04909663520361347
0.9029999999999999,-0.0328,0.388,0.03909626115097283,1.521796156240701,0.09563775409171944,0.04921587201614139
0.904,-0.0375,1.388,0.03952759287146917,1.515818317880688,0.09677283534825173,0.04882344606436644
0.9049999999999999,-0.007,-1.612,0.03947813511935135,1.5217961562407003,0.0966426836233692,0.04921587201614134
0.906,-0.0029,1.388,0.04032936278831691,1.5158183178806872,0.09888275205833766,0.04882344606436639
0.9069999999999999,-0.0063,-0.612,0.0405463907943848,1.515818317880685,0.09945387727386033,0.04882344606436624
0.908,0.0301,0.388,0.04061948660549319,1.4977416559085304,0.09964623429556205,0.0476367710738231
0.9089999999999999,-0.0033,0.388,0.040229638753851694,1.4868075176492377,0.09862032090160057,0.04691897990001952
0.91,0.0363,0.388,0.04024750194794266,1.4559549281851454,0.09866732921522778,0.04489360616857893
0.9109999999999999,0.0098,0.388,0.04444821154906321,1.4565872389185197,0.10972180656013635,0.044935115344039704
0.912,-0.0045,1.388,0.045025588519284857,1.4484347141769789,0.1112412166700579,0.044399928193034
0.9129999999999999,-0.0089,0.388,0.04496151425518756,1.4477988429195823,0.11107260051514296,0.04435818528056929
0.914,0.0031,0.388,0.044964635337407695,1.4559549281851454,0.11108081387335389,0.04489360616857893
0.9149999999999999,-0.0295,-0.612,0.044953152606089966,1.4565872389185197,0.11105059621841872,0.044935115344039704
0.916,0.0009,0.388,0.04499277251133348,1.4565872389185197,0.11115485892317818,0.044935115344039704
0.9169999999999999,-0.011,1.388,0.045024354363334185,1.4377660726283927,0.11123796889758795,0.043699566028366735
0.918,-0.0291,0.388,0.04501877013690323,1.4384063790441621,0.11122327359359614,0.043741600094780564
0.9189999999999999,0.0006,1.388,0.04504995332864703,1.4352019902810236,0.11130533446411711,0.043531242230532646
0.92,0.0045,2.388,0.04468311904071636,1.3966376031520433,0.11033998296155585,0.040999613669790706
0.9209999999999999,-0.0136,-0.612,0.044660947057735476,1.3590118951616847,0.11028163575195857,0.03852960638955191
0.922,0.0093,-0.612,0.04424797537636348,1.3120169344067012,0.10919487029342799,0.03544453765864352
0.9229999999999999,-0.0352,0.388,0.042207219478627434,1.30990974542102,0.10382447053239861,0.035306207447374
0.924,-0.0413,-0.612,0.04132401020458198,1.30990974542102,0.10150024014328907,0.035306207447374
0.9249999999999999,-0.0004,0.388,0.04127555693230872,1.2846550689301643,0.1013727317812522,0.03364831878230295
0.926,0.0474,3.388,0.041180970020070255,1.2846550689301643,0.10112381934079546,0.03364831878230295
0.9269999999999999,0.0535,3.388,0.041648095704331055,1.2839380882481446,0.10235309505471495,0.033601251295763336
0.928,0.0006,3.388,0.041737854434718086,1.2902766180579146,0.10258930177829005,0.03401735548655104
0.9289999999999999,-0.0915,1.388,0.041665280781338326,1.2972941530097575,0.10239831885318859,0.03447803419125006
0.93,-0.0792,-0.612,0.04154890926294089,1.3188210098743398,0.10209207861383145,0.035891203431541875
0.9309999999999999,-0.0223,-3.612,0.041909627089294466,1.3256874535169698,0.10304133419633268,0.03634196347547225
0.932,0.0711,-2.612,0.04200858549345889,1.327769603294677,0.10330175054042659,0.03647864994289507
0.9329999999999999,0.1588,-2.612,0.04206201912131379,1.327769603294677,0.10344236507574717,0.03647864994289507
0.934,0.0557,0.388,0.04227141688629758,1.327769603294677,0.10399341074871402,0.03647864994289507
0.9349999999999999,-0.0136,0.388,0.04229897485965165,1.3359692178740383,0.10406593158948646,0.0370169283910073
0.936,-0.0014,-0.612,0.042304460731141906,1.3236994665714839,0.10408036806519283,0.03621145849654592
0.9369999999999999,0.0098,0.388,0.04231111600542762,1.3236994665714839,0.10409788191066217,0.03621145849654592
0.9380000000000001,0.0405,-1.611999999999889,0.042245294656424834,1.3236994665714839,0.1039246681728764,0.03621145849654592
0.939,0.031,-0.611999999999889,0.04186897206557514,1.317521742192121,0.10293434750090814,0.03580591066748594
0.9400000000000001,0.0227,0.38800000000011103,0.04151433433407353,1.2966836299460087,0.10200109213674574,0.03443795530655241
0.941,-0.0006,1.3879999999998889,0.041654257013741154,1.3057839405955673,0.10236930899515748,0.03503536156831908
0.9420000000000001,-0.0357,0.38800000000011103,0.040891438853358754,1.2988122771174262,0.10036189670700914,0.03457769417902248
0.943,-0.0296,1.388,0.0405898168412477,1.291802989183962,0.09956815612120003,0.034117556864679245
0.9440000000000001,-0.0123,1.388,0.04061041749712035,1.2988122771174262,0.09962236826754162,0.03457769417902248
0.945,-0.0174,1.388,0.040597720253166006,1.2995210513356907,0.09958895453296719,0.03462422293748751
0.9460000000000001,-0.0033,1.3879999999997779,0.040603455456565185,1.2995210513356907,0.09960404714399362,0.03462422293748751
0.947,0.0009,-0.611999999999889,0.04055690968857931,1.2995210513356907,0.09948155852027062,0.03462422293748751
0.9480000000000001,-0.0111,0.387999999999889,0.040469850090147495,1.3210116197510484,0.09925245476164266,0.03603500995725615
0.949,-0.0293,-0.611999999999889,0.040481930570709326,1.3210116197510484,0.09928424543783002,0.03603500995725615
0.9500000000000001,-0.0261,0.388,0.04056736931675038,1.312016934406701,0.09950908380376616,0.0354445376586435
0.951,-0.0467,0.38799999999977797,0.040541077157185454,1.3113149143116967,0.09943989404540209,0.03539845228674887
0.9520000000000001,-0.0062,-1.611999999999778,0.040573423670804555,1.311314914311696,0.09952501628329583,0.03539845228674882
0.953,-0.0592,0.38800000000011103,0.04048782596191171,1.3120169344067003,0.09929975959488307,0.03544453765864346
0.9540000000000001,-0.0382,1.3879999999998889,0.04044412052270769,1.3127185790730684,0.09918474550597743,0.03549059838484997
0.955,-0.0829,0.38800000000011103,0.04027012914595618,1.3127185790730684,0.09872687435678017,0.03549059838484997
0.9560000000000001,-0.0419,1.3879999999997779,0.04042718882352619,1.3036666769141128,0.09914018848995261,0.034896369985523666
0.957,0.0379,-0.612000000000111,0.04054554395498172,1.296683629946006,0.09945164875347091,0.034437955306552234
0.9580000000000001,-0.019,-1.612,0.040697394688915686,1.296683629946006,0.09985125516702376,0.034437955306552234
0.959,0.0663,-1.611999999999889,0.040698132995831734,1.2973935670580519,0.09985319807616341,0.034484560405271286
0.9600000000000001,0.2014,-0.612,0.04088889614781304,1.3064889326706672,0.10035520538970352,0.035081642041192934
0.961,0.072,0.388,0.04072946641959986,1.3071935445314151,0.09993565429334414,0.03512789755421174
0.9620000000000001,0.022,0.388,0.04092990057232128,1.3071935445314131,0.1004631115590913,0.03512789755421161
0.963,0.0068,-1.612,0.040932320396010746,1.3251873413066022,0.10046947950372301,0.03630913270984624
0.9640000000000001,-0.007,-0.612,0.0416460482558095,1.3258820163321205,0.10234770704282038,0.036354735901442524
0.965,-0.0194,1.388,0.04310655044739701,1.334783272512905,0.10619112635102172,0.03693907487455745
0.9660000000000001,-0.0308,-0.612,0.04375168517304427,1.3340932324641313,0.10788884599514545,0.036893775954346716
0.967,-0.0002,-0.612,0.043775625114685024,1.3340932324641313,0.10795184571843876,0.036893775954346716
0.9680000000000001,0.028,2.388,0.04376579113551513,1.3340932324641288,0.10792596687646527,0.03689377595434656
0.969,-0.0149,1.388,0.04370173399673535,1.3340932324641288,0.10775739578808727,0.03689377595434656
0.9700000000000001,-0.0073,-1.612,0.0437136134636782,1.3483186274886632,0.10778865748210066,0.03782762759864987
0.971,-0.0005,-0.612,0.043808840683449646,1.334093232464125,0.10803925493908777,0.036893775954346314
0.9720000000000001,-0.0066,1.388,0.04384989986953864,1.340194571530286,0.10814730521761692,0.037294309332123146
0.973,-0.0008,-0.612,0.04387844147513698,1.3462682593792057,0.10822241455923626,0.03769302749600656
0.9740000000000001,-0.0165,0.388,0.04375734470313738,1.3529954155643948,0.10790373946628194,0.03813464376425003
0.975,-0.0404,-0.612,0.043883508455790095,1.4217554065907196,0.10823574869278883,0.04264851705715115
0.9760000000000001,-0.06209999999999554,0.388,0.0445996128178214,1.441424702446372,0.11012023017290676,0.0439397433637254
0.977,-0.042,1.388,0.04469531777408113,1.441424702446372,0.11037208482872168,0.0439397433637254
0.9780000000000001,-0.009199999999999023,1.388,0.04444671252681563,1.401153120770035,0.10971786177245786,0.04129604294610741
0.979,-0.0048,2.388,0.04444984759638676,1.4057458837070325,0.10972611193941526,0.041597543130335216
0.9800000000000001,0.05499999999999436,1.388,0.0434960267641014,1.422493590935976,0.10721606202337543,0.042696976496303995
0.981,0.0296,-1.612,0.043033258510652775,1.4447045648163703,0.1059982532102344,0.044155055828653714
0.9820000000000001,0.022000000000004682,-0.612,0.04352368509696065,1.3999302671585454,0.1072888469675927,0.041215766521174244
0.983,0.0431,-1.612,0.04296656446145018,1.376328397543842,0.105822742897464,0.03966637933647323
0.9840000000000001,0.02439999999999616,-1.612,0.04001362669751369,1.393997872252181,0.09805186923277333,0.04082632378665543
0.985,0.0071,-1.612,0.04038400246782398,1.4140533244882518,0.09902654040759247,0.04214290002342072
0.9860000000000001,-0.008400000000003108,0.388,0.04093795379009769,1.4147043635226204,0.10048430419603034,0.042185638651887784
0.987,-0.0224,0.388,0.0413779023406438,1.4147043635226204,0.10164206127679594,0.042185638651887784
0.9880000000000001,-0.017999999999995624,-0.612,0.04409138449963733,1.4147043635226204,0.10878278984427558,0.042185638651887784
0.989,0.0017,-0.612,0.04404919225053614,1.4294159883825321,0.10867175782680516,0.04315140972833996
0.9900000000000001,0.034300000000000955,-1.612,0.04398755142692272,1.4515210405608814,0.1085095454501214,0.04460253564003236
0.991,0.0386,0.388,0.043934273690267596,1.45965632754367,0.10836934115399843,0.045136591187358376
0.9920000000000001,-0.021299999999998157,0.388,0.04397484054970528,1.4615476350633507,0.10847609583860895,0.045260749471475674
0.993,-0.013,1.388,0.04383543748768034,1.4696274197586963,0.10810924639237383,0.045791161471307795
0.9940000000000001,-0.005499999999995337,-0.612,0.04373540656464511,1.4634364983080983,0.10784600763571514,0.045384747296768356
0.995,0.0155,-0.612,0.04372341700157273,1.4578510376329947,0.10781445621561134,0.04501807968390833
0.9960000000000001,0.009299999999996136,1.388,0.04368856560954221,1.4516098923613274,0.10772274220530766,0.04460836847629474
0.997,-0.0081,2.388,0.04369610785234755,1.4459787491345097,0.10774259017389831,0.04423870195015599
0.9980000000000001,-0.013200000000005306,1.388,0.04372460052640892,1.4453417973873646,0.10781757074856675,0.044196888106998206
0.999,-0.0371,0.388,0.04384857921612083,1.4453417973873648,0.10814382982067831,0.04419688810699822
1.0,-0.015400000000002642,0.388,0.043753349309934096,1.4509754125854817,0.10789322529419113,0.044566716910139366
1.001,-0.0273,0.38799999999977797,0.04379191104231157,1.4516098923613308,0.10799470333895611,0.04460836847629496
1.0020000000000002,-0.009099999999991962,-0.612,0.04355600639973297,1.4708800142275185,0.10737390286128247,0.04587339028831691
1.0030000000000001,0.0271,-0.6119999999995559,0.043588226475675965,1.4690007219987862,0.10745869236909993,0.04575002076958641
1.004,0.0031999999999912515,1.388,0.043410614192468694,1.4751682919447833,0.10699129253732663,0.046154901992602825
1.005,-0.0362,0.388,0.043518077534489254,1.469000721998787,0.10727409025308816,0.045750020769586466
1.0060000000000002,-0.03100000000000102,0.388,0.04275880453706804,1.469627419758703,0.10527600732291972,0.04579116147130823
1.0070000000000001,-0.0356,-0.612,0.0427529027811333,1.469627419758705,0.10526047641660372,0.045791161471308364
1.008,0.03020000000000211,-0.612,0.04261553017562786,1.4690007219987886,0.10489897026655566,0.04575002076958657
1.009,0.0397,-1.611999999999778,0.04257895733940248,1.4671190225104322,0.1048027261488036,0.04562649322196799
1.0100000000000002,-0.0029000000000085706,-0.612,0.04215363885453476,1.4813101828738082,0.10368346916562941,0.04655809747035999
1.0110000000000001,-0.0415,0.3879999999993339,0.03709235142216617,1.4806884298230907,0.0903643177436258,0.04651728137296784
1.012,-0.0063,-2.612,0.03641617075961885,1.486807517649243,0.08858489842523237,0.04691897990001987
1.013,0.0774,-0.612000000000222,0.03660841286116943,1.4868075176492432,0.08909079770371656,0.046918979900019885
1.0139999999999998,0.1114,-1.612,0.03660493355300886,1.484948382778778,0.08908164164750484,0.04679693364733085
1.0150000000000001,0.0806,0.388,0.03659853411972036,1.4922846012711428,0.08906480106650179,0.0472785329062792
1.016,0.0146,0.388,0.03657939987142063,1.4922846012711428,0.0890144478799152,0.0472785329062792
1.017,0.0062,1.3879999999997779,0.03644863382996218,1.4995849301938984,0.0886703273907483,0.04775777612987421
1.0179999999999998,-0.017,0.388,0.03670725086354311,1.4995849301938984,0.08935089720161196,0.04775777612987421
1.0190000000000001,-0.0101,2.387999999999778,0.03662784292716101,1.480688429823091,0.08914192935639179,0.04651728137296785
1.02,-0.0291,1.388,0.03661879783173322,1.474543949119739,0.0891181265202085,0.04611391588481664
1.021,-0.0233,1.388,0.036611544754222264,1.4671190225104334,0.08909903951143162,0.045626493221968066
1.0219999999999998,-0.0182,1.388,0.036812350431117885,1.4726693324927491,0.0896274744704632,0.045990853304372754
1.0230000000000001,-0.0135,1.388000000000666,0.03682548859757583,1.472669332492749,0.08966204852514773,0.04599085330437274
1.024,-0.053,4.388,0.03682603361430505,1.4800664155835386,0.08966348277689513,0.046476448129364835
1.025,-0.0795,2.388,0.03684131119341694,1.4861880644335153,0.08970368685387592,0.04687831477943245
1.0259999999999998,-0.0555,3.388,0.03661799738032992,1.4916674225568205,0.08911602007326412,0.0472380170994278
1.0270000000000001,-0.0251,0.388,0.03608761466799653,1.4916674225568205,0.08772027882134406,0.0472380170994278
1.028,-0.0052,-3.612,0.035896389735084515,1.4935181935745891,0.08721705629720347,0.047359514291962085
1.029,-0.0015,-2.612,0.03588796150544191,1.4874267128877205,0.0871948767888611,0.04695962808522666
1.0299999999999998,0.0479,-2.612,0.03591112813276033,1.4683737567660697,0.08725584147844144,0.04570886250913154
1.0310000000000001,0.069,0.388,0.035583403550962296,1.4628071482278966,0.08639341005402458,0.045343432478710574
1.032,-0.0148,0.388,0.03547646516884278,1.4628071482278964,0.08611199380898682,0.04534343247871056
1.033,-0.026,3.388,0.035412207656429266,1.4628071482278964,0.08594289542260328,0.04534343247871056
1.0339999999999998,-0.0778,2.388,0.035165872870857824,1.4553223427244446,0.08529464725385673,0.04485207895814865
1.0350000000000001,-0.0684,-0.612,0.03508678891920658,1.4534229343903893,0.0850865319983672,0.044727388881500386
1.036,0.0603,-0.612,0.035107746034827705,1.4452525602345905,0.0851416821948451,0.04419102997358909
1.037,0.1527,0.388,0.03537096611295112,1.4452525602345905,0.08583436525714584,0.04419102997358909
1.0379999999999998,0.0356,-2.612,0.03544499026922214,1.4515210405608916,0.08602916528765871,0.044602535640033025
1.0390000000000001,0.0204,-2.612,0.035430913559844235,1.450886521929716,0.08599212138801199,0.04456088152314963
1.04,0.0066,-1.612,0.03549450559237079,1.456498690754639,0.08615946851495786,0.04492930244054581
1.041,0.019,-1.612,0.03533867276191588,1.4483456675885926,0.08574938292051515,0.0443940825695669
1.0419999999999998,0.0077,-1.612,0.0352993475812848,1.4546008184890387,0.0856458958053252,0.04480471320187429
1.0430000000000001,-0.0024,0.388,0.03588652714078426,1.4608291855912914,0.08719110215240253,0.04521358556357194
1.044,0.0071,-0.612,0.03588009243251329,1.4546008184890387,0.08717416874267966,0.04480471320187429
1.045,-0.0012,0.388,0.03589544033919716,1.4620893176624494,0.08721455789185659,0.04529630920004465
1.0459999999999998,-0.0087,-0.612,0.03601297323637728,1.4614593874442703,0.0875238543851949,0.04525495629778581
1.0470000000000002,-0.0157,0.388,0.03712856130042536,1.4633483645974317,0.09045960671070205,0.04537896160080121
1.048,-0.0347,0.388,0.037728189582518494,1.443977735118277,0.09203757279005131,0.04410734178573805
1.049,-0.0054,1.388,0.03771935505603353,1.443977735118277,0.09201432408158192,0.04410734178573805
1.0499999999999998,-0.0319,-0.612,0.03753546405813945,1.4521552819394485,0.09153040134871543,0.044644171556169565
1.0510000000000002,0.0115,2.388,0.03751650803842503,1.4521552819394483,0.09148051718380511,0.044644171556169544
1.052,-0.0178,1.388,0.03758247037910536,1.452789246428506,0.09165410195159608,0.04468578929539684
1.053,-0.0443,1.388,0.03781536070026722,1.452155281939449,0.09226697001999232,0.04464417155616959
1.0539999999999998,-0.0489,0.388,0.03804623287876255,1.451521040560894,0.09287452719701439,0.044602535640033185
1.0550000000000002,-0.0183,-0.612,0.03808754148496608,1.4452525602345931,0.09298323384298317,0.044191029973589264
1.056,0.0415,1.388,0.03819819600264804,1.4452525602345931,0.0932744293730195,0.044191029973589264
1.057,0.0161,0.388,0.0384636982186601,1.4452525602345931,0.09397311804960534,0.044191029973589264
1.0579999999999998,-0.0072,1.388,0.03829767391874825,1.4508865219297187,0.09353621285111452,0.044560881523149805
1.0590000000000002,0.028,-2.612,0.03818459369972507,1.4564986907546413,0.0932386339089721,0.04492930244054597
1.06,0.0204,0.388,0.037998955095826126,1.4676586488265346,0.09275011222192332,0.04566191796214093
1.061,0.0142,1.388,0.03800349585173572,1.486101280012346,0.0927620615562258,0.04687261766000139
1.0619999999999998,0.0435,0.388,0.037785586181078044,1.4921981714171457,0.09218861617526464,0.04727285906304793
1.0630000000000002,-0.0043,1.388,0.03785012249382723,1.4707046336478793,0.0923584482453081,0.04586187711470082
1.064,0.002,-1.612,0.03706001815761992,1.4921981714171448,0.09027923037164508,0.04727285906304787
1.065,-0.0154,1.388,0.03545532316400675,1.4848615259030067,0.08605635706289433,0.04679123177148711
1.0659999999999998,0.0002,-1.612,0.03454167758656472,1.4854815322920278,0.08365203129507295,0.0468319332061304
1.0670000000000002,0.0436,-0.612,0.03456348883056018,1.5277506044755251,0.08370942919340607,0.049606762481075345
1.068,0.0141,0.388,0.03478536819072436,1.5224011208688297,0.08429332110528291,0.04925558600733453
1.069,-0.0125,0.388,0.03532961482319868,1.5230058451944086,0.08572554628626788,0.04929528422343455
1.0699999999999998,0.0014,-0.612,0.03534586827072613,1.5044035588377462,0.08576831843300732,0.048074103674703966
1.0710000000000002,-0.0383,1.388,0.03556423789945193,1.4983563326249674,0.08634297422757152,0.047677122632522856
1.072,-0.0118,1.388,0.0357186771568141,1.4929015248383508,0.08674939253156931,0.047319031963539336
1.073,0.0023,-1.612,0.035672261749440784,1.4929015248383508,0.08662724696141941,0.047319031963539336
1.0739999999999998,-0.0196,1.388,0.03564982056323764,1.4874267128877257,0.08656819132367446,0.046959628085226995
1.0750000000000002,0.0002,1.388,0.0352522771508936,1.427572457437093,0.08552202649376035,0.043030387823376814
1.076,-0.0035,0.388,0.03439158060672632,1.416096623796428,0.08325704001485681,0.04227703608188892
1.077,-0.0198,-1.612,0.03396558046642211,1.381670333789854,0.08213598920509256,0.04001706035014617
1.0779999999999998,-0.005,0.388,0.03407673364360383,1.381670333789854,0.0824284969944056,0.04001706035014617
1.0790000000000002,0.0139,0.388,0.034738724358535,1.3415680202310405,0.08417057441837092,0.0373844718425739
1.08,0.026,-0.612,0.03531760819962902,1.3169205966517639,0.08569394997020638,0.035766447387179136
1.081,0.0106,-1.612,0.0361043507985253,1.2918029891839697,0.08776432118402545,0.03411755686467975
1.0819999999999999,0.005,-0.612,0.03605022818349229,1.2925156070772628,0.08762189352809559,0.03416433794810583
1.0830000000000002,0.0106,-0.612,0.03608294312851039,1.2925156070772625,0.08770798532040755,0.03416433794810582
1.084,0.006,1.388,0.036063736024448144,1.2474459866300027,0.08765744040850487,0.03120566164490226
1.085,-0.0139,0.388,0.0369323552704011,1.2246651595055014,0.08994327606188522,0.029710173271320073
1.0859999999999999,-0.0438,0.388,0.04025568707727841,1.2467076072141532,0.09868886898717084,0.03115718939998944
1.0870000000000002,-0.032,1.388,0.03988463636976653,1.2467076072141543,0.0977124216652926,0.031157189399989512
1.088,0.0152,0.388,0.03685369131741662,1.25617002083037,0.0897362660638849,0.031778366562334806
1.089,0.0214,1.388,0.036758802588749015,1.2298122727522167,0.0894865593712196,0.030048064778766474
1.0899999999999999,-0.008,0.388,0.036709582447413916,1.2126815717814416,0.08935703293664843,0.028923489099705484
