time_sec,bts_raw,diy_raw,bts_rms,diy_rms,bts_norm_rms,diy_norm_rms
0.0,-0.0096,1.457,0.003286625300875111,0.9830646709571479,0.00024102590567718932,0.04767484669574537
0.001,-0.008,0.457,0.003287195717595691,0.9830646709571479,0.0002437852648070216,0.04767484669574537
0.002,-0.0003,-0.543,0.003339505805430232,0.9819829796890893,0.0004968324025238159,0.04753976247042113
0.003,0.0009,-0.543,0.003373649986120653,0.9819829796890893,0.0006620029757548332,0.04753976247042113
0.004,0.002,0.457,0.00359045621111404,0.9809000955826436,0.0017107910192253625,0.04740452928055014
0.005,-0.0054,1.457,0.003605476630645644,0.972839219647386,0.0017834514624997103,0.04639786757096322
0.006,-0.0006,-0.543,0.003630881506434279,0.9809000955826562,0.0019063461347988424,0.04740452928055172
0.007,-0.0105,0.457,0.0036450641863587535,0.9809000955826562,0.00197495405936195,0.04740452928055172
0.008,0.0019,-0.543,0.0036455785192616875,0.9809000955826562,0.001977442116146192,0.04740452928055172
0.009000000000000001,-0.0027000000000000023,-0.543,0.0036641820110467713,0.9684595230282048,0.0020674354719716222,0.04585092044988759
0.01,-0.004,-0.5429999999991119,0.003664243546392331,0.967361500608224,0.002067733145779999,0.04571379675075857
0.011,-0.0049,0.457,0.0036721758476046156,0.9754676432813899,0.002106105211291055,0.04672611148020787
0.012,-0.0012,0.457,0.003674432702754934,0.9754676432813899,0.0021170226224381345,0.04672611148020787
0.013000000000000001,0.0063999999999999925,-0.543,0.003684430013000481,0.9408296330547696,0.0021653840541853778,0.042400432872637964
0.014,0.0018,0.457,0.003696723887375617,0.9491623931993418,0.0022248549870562593,0.043441048140765735
0.015,0.0026,0.457,0.003722963401523858,0.939699326140508,0.00235178717595439,0.042259277407672706
0.016,0.0005,-0.543,0.003744522214976264,0.9396993261405079,0.0024560767358182017,0.04225927740767269
0.017,-0.0001,-0.543,0.00376927193141943,0.9267058183581663,0.0025758021112573543,0.040636616686585074
0.018000000000000002,-0.0035999999999999774,1.4569999999964474,0.0038303385025277715,0.9267058183581662,0.002871208249324307,0.04063661668658506
0.019,0.0029,-2.543,0.00383562105429767,0.917011040644496,0.002896762299423434,0.039425909365731523
0.02,0.0005,-0.543,0.0038425849171576437,0.9048666607732206,0.0029304495983196333,0.03790928979469723
0.021,-0.0016,0.457,0.003843667884737886,0.9060404233056613,0.00293568839369859,0.03805587210250668
0.022,-0.0022,0.457,0.00394117172236995,0.9072126672114564,0.003407357780055551,0.03820226476054266
0.023,0.0043,2.457,0.003955066582141727,0.9083833983698447,0.0034745733906533763,0.03834846850301872
0.024,-0.0032,0.457,0.003955708053137677,0.9083833983698447,0.0034776764708846094,0.03834846850301872
0.025,-0.0006,0.457,0.003959745302127092,0.8984909422576116,0.0034972064381110636,0.0371130746249915
0.026000000000000002,0.00020000000000001874,0.4570000000008882,0.003959960005483722,0.8973073043467036,0.003498245053645896,0.03696525905600166
0.027,0.0056,1.457,0.003960149733518644,0.8984909422576116,0.0034991628524523788,0.0371130746249915
0.028,-0.0041,-0.543,0.003961643039617025,0.9072126672114564,0.003506386637568657,0.03820226476054266
0.029,0.005,2.457,0.00398166152480991,0.8937469853258048,0.0036032249452294727,0.03652063779386605
0.03,-0.0061,1.457,0.003983215019411274,0.8937469853258049,0.003610739888878144,0.036520637793866065
0.031,-0.0074,-0.543,0.004010993022385744,0.8937469853258048,0.0037451144318231266,0.03652063779386605
0.032,-0.0008,-1.543,0.004015085481498249,0.9301399886221607,0.0037649114749463944,0.041065484186436345
0.033,0.0078,-0.543,0.004027915569205339,0.9301399886221609,0.0038269763099587867,0.04106548418643636
0.034,-0.0044,0.45699999999911184,0.004104894377354181,0.9289966757470182,0.004199357008850528,0.04092270450557688
0.035,0.0035,-0.543,0.00410661208243915,0.9278519540659422,0.004207666311571788,0.04077974888962045
0.036000000000000004,-0.0008000000000000445,0.457,0.004114289999397835,0.9289966757470182,0.004244807807418014,0.04092270450557688
0.037,-0.0072,-0.543,0.00413078313024559,0.9301399886221645,0.004324592409696149,0.04106548418643682
0.038,-0.0082,-0.543,0.004134330774402971,0.9301399886221589,0.004341753940804688,0.04106548418643611
0.039,-0.0027,0.457,0.004183763167640808,0.9170110406445409,0.004580880391115599,0.03942590936573713
0.04,-0.0002,-0.543,0.0041838797682490735,0.9204813812995094,0.0045814444400667466,0.03985929391161502
0.041,0.0027,0.457,0.00418813584499909,0.9204813812995093,0.004602032974402631,0.039859293911615
0.042,-0.0056,-0.543,0.004189547889405785,0.9204813812995093,0.004608863660609344,0.039859293911615
0.043000000000000003,0.0020000000000000174,0.457,0.004189646631822141,0.9204813812995093,0.0046093413215513215,0.039859293911615
0.044,0.0045,0.457,0.004244273766234747,0.8836906973958611,0.004873597043095972,0.03526478420165568
0.045,0.007,0.457,0.004250984376408112,0.8836906973958673,0.004906059246219667,0.03526478420165644
0.046,-0.0038,-0.543,0.004282820901989059,0.8836906973958674,0.0050600666663293,0.035264784201656456
0.047,-0.0024,1.457,0.004284756131900464,0.8824872088472282,0.005069428233288508,0.03511448963695011
0.048,-0.0034,1.457,0.00428936386143726,0.8913655389395113,0.005091717868403389,0.03622323700147448
0.049,-0.0095,-0.543,0.004291007723391464,0.8913655389395113,0.005099669959090536,0.03622323700147448
0.05,0.0006,-0.543,0.004349552112383124,0.8913655389395113,0.005382875181581788,0.03622323700147448
0.051000000000000004,-0.005899999999999992,0.457,0.004246021241088675,0.8812820768028522,0.004882050355417243,0.034963989828515736
0.052000000000000005,-0.004800000000000052,-0.543,0.0041777735052010686,0.8812820768028522,0.00455190573251705,0.034963989828515736
0.053,-0.0123,0.457,0.004181497427346475,0.8800752945111715,0.0045699199985789985,0.03481328393320118
0.054,-0.0033,-0.543,0.004186351876114339,0.8889777130158155,0.004593403124238932,0.03592503951700137
0.055,-0.0043,1.456999999999112,0.004184246462071887,0.8901724266252313,0.004583218301020198,0.03607423824604531
0.056,0.0032,0.457,0.004155853885153955,0.893746985325781,0.004445870790837994,0.03652063779386308
0.057,0.0006,-0.543,0.004155853885153955,0.893746985325781,0.004445870790837994,0.03652063779386308
0.058,-0.0037,0.457,0.004042066708800894,0.893746985325781,0.0038954316599366452,0.03652063779386308
0.059000000000000004,0.00020000000000001527,0.457,0.00404582390877705,0.9025145561202189,0.003913606905652214,0.03761555326902244
0.06,0.0024,1.457,0.004059854819426578,0.9013362020488541,0.003981480654796995,0.0374683975587118
0.061,-0.0013,-0.543,0.004091980361438272,0.9001563054485818,0.004136886175800383,0.03732104921365531
0.062,0.0027,0.457,0.004093186846863884,0.9001563054485818,0.004142722481879889,0.03732104921365531
0.063,0.003,1.456999999999112,0.004135044406122388,0.9001563054485818,0.004345206094518397,0.03732104921365531
0.064,0.0044,0.457,0.004114158412016283,0.9088620491960232,0.0042441712607854285,0.038408243577445614
0.065,0.004,0.457,0.004113229768348314,0.9100306584691625,0.004239678998740648,0.03855418233375275
0.066,0.0043,0.457,0.0041061738499867375,0.9111977690045343,0.004205546386480315,0.03869993392405764
0.067,0.0068,-0.543,0.004109423349692603,0.9401620336855618,0.004221265660402808,0.04231706144653942
0.068,0.002,0.457,0.004109596832029609,0.9390309231855725,0.004222104871550048,0.04217580562784226
0.069,0.0023,-0.543,0.004097486549074713,0.9306074491797782,0.0041635220519537575,0.041123861793023415
0.07,0.0009,-0.543,0.004091480135246015,0.8942334705287118,0.004134466359443698,0.03658139124423304
0.07100000000000001,0.008699999999999925,-0.543,0.00410707631580902,0.893044189796228,0.00420991201465395,0.03643287098601836
0.07200000000000001,0.003299999999999964,-0.543,0.0041067019101629935,0.8942334705287118,0.004208100848185034,0.03658139124423304
0.073,0.0007,0.457,0.004240386195151965,0.904172508390297,0.0048547911344100575,0.037822602363936586
0.074,-0.0018,0.457,0.004328211521639967,0.8829798977405005,0.005279641261925172,0.03517601781919475
0.075,0.0004,0.457,0.004321502845270824,0.8829798977405005,0.005247188413471747,0.03517601781919475
0.076,-0.0004,-0.543,0.004328992691551635,0.8829798977405003,0.005283420127883941,0.03517601781919474
0.077,-0.0011,1.457,0.004342967103996861,0.914003473759138,0.005351020570110754,0.039050317129003385
0.078,-0.004,0.457,0.0043107944522199505,0.9140034737591246,0.005195387158240805,0.039050317129001706
0.079,0.0011,1.457,0.004299314447456541,0.912839950461593,0.005139853274307279,0.0389050135216463
0.08,0.0047,1.457,0.004273840642359621,0.881775439059611,0.00501662516031672,0.035025602102023407
0.081,0.0018,-2.543,0.004256428439717937,0.881775439059611,0.004932394599401592,0.035025602102023407
0.082,0.0032,1.457,0.004194465550079295,0.8805693328998839,0.004632652570343738,0.03487498064370476
0.083,0.0079,0.457,0.004194330933135443,0.8769410615250478,0.004632001368372183,0.03442187332703433
0.084,-0.0012,0.457,0.004143434197578409,0.8757282971924881,0.004385791243614343,0.03427042037996679
0.085,0.0025,-0.543,0.004224065921889676,0.875728297192492,0.004775842721078368,0.034270420379967276
0.08600000000000001,-0.003699999999999925,-0.543,0.004281319383078093,0.8757282971924798,0.005052803152189364,0.03427042037996575
0.08700000000000001,0.0017000000000000652,-0.5429999999991119,0.004280998141792888,0.8858749774198486,0.005051249165356177,0.03553756238120143
0.088,0.0064,0.457,0.004274464171128601,0.8846744603149761,0.005019641446023858,0.03538763889758927
0.089,0.0003,-1.543,0.0042097868779714465,0.8834723118743287,0.004706768641060203,0.035237511688814574
0.09,-0.0019,0.457,0.004223021444064517,0.8834723118743287,0.004770790117746847,0.035237511688814574
0.091,-0.0011,0.457,0.004277181188968678,0.8822685254295021,0.0050327848685646805,0.035087179922110856
0.092,-0.0003,-0.543,0.004274301738059981,0.8822685254295021,0.0050188556850973036,0.035087179922110856
0.093,-0.0068,0.457,0.004239974693553226,0.8810630942665372,0.00485280051833508,0.03493664275902266
0.094,-0.0024,-0.543,0.0042621713689264705,0.8810630942665372,0.004960175699730198,0.03493664275902266
0.095,0.0052,0.457,0.004254230617094408,0.8810630942665372,0.004921762754816426,0.03493664275902266
0.096,-0.0013,0.457,0.004197719798741979,0.8810630942665372,0.004648394817080457,0.03493664275902266
0.097,-0.002,1.457,0.004197719798741979,0.8899556316516454,0.004648394817080457,0.03604716436468394
0.098,-0.0012,0.457,0.004190977702187414,0.879856011625483,0.004615780300340605,0.034785899355350924
0.099,0.0071,-0.543,0.004191797870267019,0.9069999452776136,0.004619747817765677,0.03817569953024899
0.1,0.0017,0.457,0.004092520652848724,0.9058274260854389,0.004139499805419596,0.038029272493783205
0.101,0.0025,0.457,0.004104459297133763,0.9046533871950893,0.004197252332505838,0.03788265567372876
0.10200000000000001,-0.0017999999999999444,0.457,0.004065943855879508,0.9046533871950854,0.004010936029652049,0.037882655673728276
0.10300000000000001,0.0021999999999999906,1.4569999999982237,0.004040397880907887,0.9046533871950854,0.0038873587979104296,0.037882655673728276
0.10400000000000001,0.001500000000000011,-0.543,0.00385364572865381,0.9046533871950854,0.0029839556581600026,0.037882655673728276
0.105,0.0023,-1.543,0.003849164624355663,0.9133162657007128,0.002962278565587663,0.0389644969223047
0.106,-0.0006,-0.543,0.003910285535924156,0.9034778226821857,0.0032579475726053826,0.03773584833023484
0.107,-0.0041,0.457,0.0038989535354140717,0.9034778226821857,0.003203129651007694,0.03773584833023484
0.108,-0.0026,1.457,0.003964627329911241,0.902300726583726,0.0035208229757269097,0.0375888497186273
0.109,0.0043,0.457,0.0039519507507185525,0.9326818597053734,0.0034595007296068813,0.041382919203514876
0.11,-0.0065,0.457,0.0040101802864542365,0.9326818597053697,0.003741182867000713,0.041382919203514404
0.111,-0.005,0.457,0.004017226961046742,0.9242005200136564,0.0037752707630427777,0.04032374896169196
0.112,-0.006,0.457,0.004110730917649158,0.9242005200136565,0.0042275909475983295,0.040323748961691976
0.113,-0.0049,1.457,0.004166442795711729,0.9242005200136564,0.004497094056160342,0.04032374896169196
0.114,-0.0016,-0.543,0.004195990656750066,0.9144791829662176,0.004640030188958565,0.03910972484691284
0.115,0.001,-0.543,0.004178070026366614,0.9500783655749824,0.004553340137147586,0.04355543698944701
0.116,0.0017,2.457,0.004161419207084133,0.9500783655749823,0.004472792725845227,0.043555436989447
0.117,-0.0004,0.457,0.0041574644865423425,0.9500783655749823,0.004453661985389671,0.043555436989447
0.11800000000000001,0.00169999999999995,-0.543,0.004133950308122021,0.958330710644078,0.004339913456351733,0.04458600982819044
0.11900000000000001,-0.0018999999999999237,0.457,0.004130057297955475,0.958330710644078,0.004321081236400912,0.04458600982819044
0.12,0.0036,0.457,0.004128486301203422,0.9665125975348369,0.004313481627072655,0.04560778367897914
0.121,-0.0015,-0.543,0.0041362192153188305,0.9654123607601649,0.004350889168602757,0.0454703834458733
0.122,-0.0108,1.457,0.004048303951789557,0.9643108686639862,0.003925603975657423,0.0453328264451774
0.123,-0.0097,1.457,0.004101806964616586,0.9917251266194795,0.00418442182161341,0.04875638537378309
0.124,-0.0021,0.457,0.004107702011573982,0.9917251266194794,0.00421293878308351,0.04875638537378307
0.125,0.0026,0.457,0.004106155705293809,0.9927962034846052,0.004205458612538415,0.048890144046761834
0.126,-0.0035,2.457,0.004136131050032083,0.9927962034846052,0.004350462673936413,0.048890144046761834
0.127,0.0019,1.456999999999112,0.004136266734454198,0.9927962034846052,0.004351119039774636,0.048890144046761834
0.128,0.0026,0.457,0.004177964990370307,0.9837529550341736,0.004552832031362967,0.04776080127825291
0.129,0.0018,0.457,0.004229797054520184,0.9848327022512462,0.00480356675611751,0.04789564272578169
0.13,0.0047,1.457,0.0042334846451362014,0.9757156482851521,0.004821405270428671,0.04675708294572583
0.131,-0.0015,0.457,0.004225099613701784,0.967611583270136,0.004780843147672235,0.045745027679258185
0.132,0.0007,1.457,0.004221992372699539,0.9422154087778692,0.004765812042308743,0.04257349190117578
0.133,0.0043,0.457,0.004216099756839274,0.933820660677677,0.004737306841135671,0.041525135427020334
0.134,0.0093,0.457,0.004155223818527192,0.9433427009435491,0.004442822878607804,0.042714270877036664
0.135,0.0078,-0.5429999999982237,0.004159957933567393,0.943342700943549,0.004465723896559335,0.04271427087703665
0.136,-0.0006,1.457,0.004153538850432929,0.943342700943549,0.004434671939256565,0.04271427087703665
0.137,-0.0068,0.457,0.004154664680973645,0.943342700943549,0.0044401180818205675,0.04271427087703665
0.138,-0.0035,0.457,0.004151550332709349,0.954997919530982,0.004425052595472578,0.0441698028022355
0.139,-0.0043,0.457,0.004115899502333535,0.9643108686639422,0.004252593688265969,0.04533282644517191
0.14,-0.0068,0.457,0.004124708701796671,0.9643108686639422,0.004295207700247246,0.04533282644517191
0.14100000000000001,0.002199999999999978,0.457,0.004121343109381584,0.9643108686639421,0.004278926834306955,0.0453328264451719
0.14200000000000002,0.0013999999999998278,0.457,0.00412036274874141,0.9654123607601208,0.0042741843942882924,0.0454703834458678
0.14300000000000002,-0.004799999999999969,0.457,0.004141738929336367,0.9643108686639421,0.004377590477871648,0.0453328264451719
0.14400000000000002,-0.0036999999999999308,0.457,0.004111692945159823,0.9654123607601208,0.0042322447021236245,0.0454703834458678
0.145,-0.0012,0.457,0.004110580044883087,0.9768042798808023,0.0042268611089917784,0.046893033895968626
0.146,-0.0038,1.457,0.00413557595279785,0.9859112669548055,0.004347777421968925,0.04803033649815897
0.147,0.0002,0.457,0.004137434577860404,0.985911266954809,0.0043567684172365236,0.048030336498159416
0.148,-0.0035,-2.543,0.00417333112279867,0.985911266954809,0.004530415954959688,0.048030336498159416
0.149,-0.0028,0.457,0.004172054763646079,0.9981343477100078,0.0045242416386159,0.04955678442618526
0.15,-0.0032,0.457,0.004149116800598304,0.9970690052315635,0.004413280519363862,0.04942374187730351
0.151,-0.0018,0.45699999999911184,0.0041456361995660315,0.9970690052315634,0.004396443305640639,0.049423741877303494
0.152,-0.0015,-0.543,0.004142787385515674,0.9981343477100076,0.0043826623262698825,0.049556784426185246
0.153,-0.0019,0.457,0.004175149442173205,0.9991985543241672,0.00453921197370537,0.04968968512558415
0.154,0.0027,1.457,0.004200210550117583,0.9912864877186621,0.0046604436881959935,0.048701607085500934
0.155,0.0081,0.457,0.004265515161751632,0.9902137778523272,0.004976351111367844,0.04856764447937618
0.156,0.0012,0.457,0.004259797899363701,0.9778916995652085,0.004948694172854989,0.04702883349980012
0.157,0.0072,0.457,0.004288495153421056,0.9859112669548341,0.0050875155417373094,0.048030336498162546
0.158,-0.0019,2.457,0.004269892453298973,0.985911266954834,0.0049975260155375725,0.04803033649816253
0.159,0.0068,0.45699999999911184,0.004262085724631457,0.9778916995652085,0.004959761400221019,0.04702883349980012
0.16,-0.0034,-0.543,0.004240655641171383,0.9789779113767354,0.004856094564528516,0.047164482261541074
0.161,0.0088,-0.543,0.004191475757444748,0.988064864307264,0.004618189614920455,0.04829928295137324
0.162,0.0073,0.457,0.004184760126409751,0.9891399046462311,0.004585703123658134,0.048433536592564524
0.163,0.0058,0.457,0.004151756674271217,0.9891399046462276,0.004426050761290765,0.04843353659256408
0.164,0.0021,-2.543,0.004143345005847881,0.9811467274233727,0.004385359783583354,0.04743532926214284
0.165,-0.0015,0.457,0.004143440444764256,0.9811467274233728,0.004385821464028086,0.047435329262142854
0.166,0.0039,0.457,0.004143208177759262,1.0081032566550538,0.004384697885322089,0.050801725919136766
0.167,-0.0052,1.457,0.004141371423526095,0.9800629193314944,0.004375812688974068,0.04729998068273321
0.168,0.0009,0.457,0.004142427220651727,0.9800629193314943,0.0043809200487914665,0.047299980682733195
0.169,0.002,1.457,0.004151334002974372,0.9789779113767317,0.004424006112423035,0.047164482261540616
0.17,-0.0027,0.457,0.00417261075143075,0.9789779113767317,0.004526931198571554,0.047164482261540616
0.171,-0.002,0.457,0.004179252742818315,0.9912864877186297,0.004559061462139053,0.04870160708549689
0.17200000000000001,-0.0073999999999997314,2.457,0.004216854003580701,0.9902137778522948,0.004740955467757252,0.048567644479372125
0.17300000000000001,0.002299999999999897,0.457,0.004086923494552109,1.009156950609513,0.004112423863762101,0.05093331377213148
0.17400000000000002,-0.0014000000000001,-0.543,0.003986621535686367,1.0013235744421167,0.0036272187217129223,0.04995506278454118
0.17500000000000002,-0.0049999999999998474,0.457,0.0039823765686365226,1.00238439513919,0.003606683929933125,0.050087540642413934
0.176,0.0005,-0.543,0.00397738109652252,1.0144090030104258,0.0035825186116872315,0.05158920279600516
0.177,-0.006,0.457,0.003963291342230521,1.0196340028724626,0.003514360209697909,0.05224171343330494
0.178,0.0077,-0.543,0.00396227062696982,1.0227561901395732,0.003509422556449054,0.05263161974090768
0.179,-0.0021,0.457,0.003955745774708639,1.0227561901395699,0.003477858946884122,0.052631619740907264
0.18,-0.0039,-0.5429999999982237,0.003951648920794133,1.0237948033438296,0.003458040644150837,0.0527613242732927
0.181,0.0008,1.457,0.0039980575941507964,1.0269043402425075,0.0036825400178716904,0.053149650772247405
0.182,0.0023,-0.543,0.003995298554168973,1.027938762229503,0.003669193315559607,0.0532788318952701
0.183,0.0034,1.457,0.004002556109284476,1.0192073752573347,0.003704301334391632,0.05218843514347007
0.184,0.0023,0.457,0.003983732304565305,1.019207375257335,0.0036132422270127103,0.052188435143470095
0.185,-0.001,-0.543,0.003917852266966549,1.0310358012935303,0.003294551212771439,0.053665597634364876
0.186,0.0038,-0.543,0.003872735227642522,1.0310358012935408,0.0030763000467762167,0.05366559763436617
0.187,-0.0006,-1.543,0.003872289559648827,1.0233699103056768,0.003074144152667738,0.052708262601631486
0.188,0.0034,1.4569999999973355,0.0038152373886543027,1.0233699103056768,0.002798157451663566,0.052708262601631486
0.189,0.0027,-1.543,0.0038051307960406643,1.0320660823968715,0.0027492673725445973,0.053794261633807926
0.19,-0.0009,0.457,0.0037838224583842117,1.0320660823968715,0.002646189475399338,0.053794261633807926
0.191,0.0006,-0.543,0.00372294793286045,1.0330953360261814,0.0023517123471563164,0.0539227973198055
0.192,0.0042,0.457,0.003720311510546524,1.0341235652493717,0.002338958800986373,0.05405120507548582
0.193,0.0046,-0.543,0.0037184639307449537,1.0351507731191116,0.002330021236553878,0.054179485282073635
0.194,-0.0022,-1.543,0.0036875750510465067,1.0467990604023012,0.0021805980006439356,0.0556341516092115
0.195,0.0069,1.457,0.0037117661911010226,1.0467990604022979,0.0022976212938997966,0.055634151609211084
0.196,-0.0018,0.4570000000008882,0.0037195883551201956,1.047813842122806,0.002335460576870681,0.0557608800081877
0.197,0.0058,1.457,0.0037040999645990285,1.0402715979561312,0.0022605363499869843,0.05481898628994575
0.198,-0.0006,-1.543,0.003711726546536102,1.0402715979561312,0.002297429515524066,0.05481898628994575
0.199,0.0056,0.457,0.0037002497982350064,1.0089171659478078,0.0022419113845456922,0.0509033688828386
0.2,0.0002,0.457,0.0036956354764420595,1.017736838705927,0.0022195898597586815,0.052004790977409225
0.201,-0.002,-0.543,0.0036924003622257817,1.0177368387059271,0.0022039401748412063,0.05200479097740925
0.202,-0.0055,-0.543,0.0036889650345926003,1.0187805689863563,0.002187321968665648,0.05213513454265988
0.203,-0.0051,-0.543,0.003692597660665912,1.017736838705927,0.0022048945950614296,0.052004790977409225
0.20400000000000001,-0.007599999999999808,0.457,0.003687973455627113,1.0187805689863527,0.0021825252606228252,0.05213513454265944
0.20500000000000002,-0.0007000000000001194,0.457,0.003691130865959394,1.009970010757339,0.0021977990573273597,0.05103485069255815
0.20600000000000002,-0.0049999999999998865,1.457,0.003620746605032794,1.0099700107573393,0.0018573191134946606,0.05103485069255818
0.20700000000000002,-0.0008999999999999806,0.457,0.003621006503920117,1.011021759169506,0.0018585763598931155,0.051166195581519476
0.20800000000000002,-0.0001999999999999778,-0.543,0.0035696841218945483,1.0229448407828494,0.0016103071940401289,0.05265517889013667
0.209,0.0006,-0.543,0.0036162973740709614,0.9953227100063049,0.0018357962064123048,0.049205660300186894
0.21,-0.0008,1.457,0.0035584364270127198,0.9953227100063085,0.0015558970962257037,0.04920566030018734
0.211,-0.0044,-0.543,0.0035830120714213727,0.9942543548656414,0.0016747804078887556,0.049072241522750776
0.212,-0.0029,0.45699999999911184,0.0034849367056352123,1.0208648282286072,0.0012003462859041998,0.05239542188474011
0.213,0.0041,-0.543,0.00341028234225867,1.0219053637197755,0.000839209959193055,0.05252536647697031
0.214,0.0016,-0.543,0.003361557636736732,1.0229448407828594,0.0006035069088097488,0.05265517889013792
0.215,0.0009,2.457,0.0033586686779130907,0.9899694048955254,0.0005895317313331504,0.04853712659267916
0.216,-0.0012,0.457,0.0033911409660528323,0.9899694048955254,0.000746614617427079,0.04853712659267916
0.217,0.001,0.457,0.003369476351731095,0.9899694048955254,0.0006418132517479728,0.04853712659267916
0.218,0.0032,0.457,0.003417463844318857,0.9809000955827376,0.0008739500756039784,0.04740452928056189
0.219,0.0046,0.457,0.0034854758686076047,0.9809000955827376,0.0012029544567671187,0.04740452928056189
0.22,0.0043,-1.5429999999982236,0.003480341179267809,0.971746146068636,0.0011781156829418857,0.04626136189511279
0.221,0.0058,0.457,0.003473135658852258,0.9728392196474553,0.0011432593790740274,0.04639786757097188
0.222,0.0029,2.457,0.0034914541796498416,0.9728392196474553,0.0012318742036121974,0.04639786757097188
0.223,-0.0036,-0.543,0.003414923498199103,0.9448771729380168,0.0008616612926746319,0.0429058994560733
0.224,-0.001,-0.543,0.003413023344980435,0.9448771729380168,0.0008524694072637698,0.0429058994560733
0.225,-0.0017,-1.543,0.0034241507264448257,0.9448771729380168,0.0009062974956193711,0.0429058994560733
0.226,-0.001,-2.543,0.003523428243874732,0.9460012932466646,0.001386546959254922,0.04304628232274605
0.227,-0.0017,-1.543,0.0035232970176635957,0.9460012932466589,0.001385912159764115,0.04304628232274534
0.228,-0.0013,0.45699999999911184,0.00347491737871483,0.9460012932466589,0.0011518783497181432,0.04304628232274534
0.229,0.0002,-0.543,0.0034219090295872522,0.944877172938011,0.000895453411869561,0.04290589945607258
0.23,-0.0077,-1.543,0.0034659085727418147,0.9576241547232265,0.0011082987523577234,0.044497773413573
0.231,-0.0001,-0.543,0.003557483065581584,0.9576241547232378,0.001551285263377678,0.04449777341357441
0.232,0.0025,0.457,0.003563905104675642,0.9482455360266235,0.0015823515199704186,0.043326548796482484
0.233,-0.0019,0.457,0.003632819850066819,0.9482455360266235,0.001915722764210692,0.043326548796482484
0.234,-0.0059,-1.543,0.0036600442339257623,0.9399046474852992,0.002047419205505138,0.04228491843448198
0.23500000000000001,-0.005099999999999859,-0.543,0.003653871615628468,0.9527181619631705,0.002017559508131101,0.043885101155778074
0.23600000000000002,-4.1633363423443333e-17,-0.5429999999991119,0.0037504167386984235,0.9527181619631706,0.0024845911661669747,0.04388510115577809
0.23700000000000002,-0.0014999999999999,0.457,0.0038503421240400934,0.9527181619631706,0.002967974654757882,0.04388510115577809
0.23800000000000002,0.0020999999999999,1.457,0.003850750638895671,0.9527181619631706,0.0029699508226290914,0.04388510115577809
0.23900000000000002,-0.0014999999999999417,0.457,0.0038575838925879913,0.9444167755311225,0.003003006306947979,0.042848403912854924
0.24,0.0006,-0.543,0.003848650825473351,0.9314890746189975,0.0029597930920984505,0.041233961313098894
0.241,0.0017,-0.543,0.003879819565273645,0.9314890746189975,0.003110570135670835,0.041233961313098894
0.242,-0.0008,-0.543,0.0038881221894662655,0.9303474196500646,0.0031507336179828183,0.041091388675582215
0.243,0.0002,-1.543,0.003865236878617716,0.9303474196500645,0.003040027200813306,0.0410913886755822
0.244,0.0056,0.45699999999911184,0.0038382798543884038,0.92920436200252,0.0029096240968428805,0.04094864086816333
0.245,-0.0027,-0.543,0.0038606054401064027,0.916062004776131,0.003017622874854111,0.039307391468001704
0.246,-0.0017,-0.543,0.0038063566765113095,0.907425339278395,0.0027551975010746983,0.038228823763336556
0.247,-0.0024,0.457,0.0038063566765113095,0.9172214408088596,0.0027551975010746983,0.03945218464782949
0.248,0.0019,-0.543,0.0038059800580417576,0.908595796407581,0.002753375630195169,0.03837499328438216
0.249,-0.0021,1.457,0.0038112482832212222,0.8963374065409206,0.002778860376210655,0.03684413586900116
0.25,-0.0028,0.457,0.003778739475625047,0.8963374065409205,0.0026216008292793223,0.03684413586900115
0.251,0.0008,-0.543,0.0038186754146781643,0.9269140179080567,0.002814788711153816,0.04066261715061792
0.252,0.0022,0.45699999999911184,0.003835608105782414,0.9554019426081298,0.0028966996617017463,0.044220258182621056
0.253,-0.0004,-0.543,0.0038228734018853697,0.9542888960133431,0.002835096240560287,0.04408125822815493
0.254,0.0031,0.457,0.003796383588809396,0.9625051414326675,0.0027069532445337767,0.04510732285520448
0.255,-0.0038,0.457,0.003732578268562607,0.9717461460686615,0.0023982985599799466,0.04626136189511598
0.256,-0.0013,-0.543,0.003836888475889902,0.9717461460686614,0.0029028933808165516,0.04626136189511597
0.257,-0.0039,-1.543,0.003805679450483982,0.9625051414326675,0.0027519214578697123,0.04510732285520448
0.258,-0.0061,0.457,0.0038188221899518094,0.9636086976409782,0.0028154987283688696,0.045245137627222536
0.259,0.0022,0.457,0.003825037073980926,0.9625051414326675,0.002845562883867597,0.04510732285520448
0.26,-0.0054,0.4570000000017764,0.0038275358983086575,0.9625051414326675,0.0028576508074396167,0.04510732285520448
0.261,-0.0029,2.457,0.0038270683752165066,0.9531745496861225,0.0028553891905090645,0.04394209595995461
0.262,0.0014,-0.543,0.003848695481285899,0.9531745496861225,0.0029600091121055926,0.04394209595995461
0.263,-0.0009,-0.543,0.003841129808195936,0.9542888960133469,0.002923410589725519,0.044081258228155396
0.264,-0.0016,0.457,0.0038660894699287717,0.9531745496861298,0.003044151563815472,0.043942095959955525
0.265,0.0049,0.457,0.0039004598397701395,0.9614003184934516,0.0032104163144718984,0.04496934989076307
0.266,0.0008,0.457,0.003910253350206285,0.9319558584875983,0.0032577918759870085,0.041292254413122675
0.267,0.0077,0.457,0.003916357997816163,0.9319558584875983,0.0032873227689447,0.041292254413122675
0.268,0.0069,0.457,0.003941836618109287,0.9319558584875983,0.003410574176178828,0.041292254413122675
0.269,-0.0007,0.457,0.003985238905414001,0.9330955455120228,0.0036205303247434997,0.041434581288962935
0.27,-0.0015,-0.543,0.003960632971678234,0.9342338422147864,0.0035015004901467867,0.04157673453806695
0.271,-0.0041,0.457,0.003964011564251008,0.9211632440395207,0.0035178442436261514,0.03994444658200423
0.272,0.0013,-0.543,0.00392685283966781,0.9211632440395207,0.0033380909821381054,0.03994444658200423
0.273,0.002,0.457,0.004003287129033406,0.8903891688129745,0.0037078376017300875,0.03610130553538279
0.274,-0.0031,-0.543,0.003987815264644922,0.9257667209991431,0.0036329933190932108,0.04051933993397213
0.275,-0.0097,-0.543,0.004000329153005482,0.9257667209991431,0.003693528557370067,0.04051933993397213
0.276,0.0004,-0.5429999999991119,0.00399798778609746,0.9137387191229681,0.003682202325299998,0.03901725392882409
0.277,0.0014,0.457,0.004000329153005481,0.886801075373948,0.0036935285573700626,0.03565321573664399
0.278,-0.0048,0.457,0.004014674870545408,0.8742371373942928,0.0037629251673213654,0.034084200732899285
0.279,-0.0059,-1.543,0.004055573624478701,0.8742371373942968,0.00396077061257733,0.034084200732899785
0.28,0.0089,-0.543,0.004080271537028982,0.8742371373942905,0.004080245389568651,0.03408420073289901
0.281,-0.0023,0.457,0.004026987741848419,0.8602554403369488,0.0038224879967732562,0.03233813254183457
0.28200000000000003,0.007399999999999901,-0.543,0.004046917788927021,0.8590191195452489,0.003918898489979713,0.032183737807097754
0.28300000000000003,0.005599999999999739,-0.543,0.004039739932137732,0.869360841572285,0.003884176007363823,0.033475237100651416
0.28400000000000003,0.0009000000000004218,-1.5429999999991117,0.00403534298671723,0.869360841572285,0.0038629060286768397,0.033475237100651416
0.28500000000000003,0.008500000000000056,-0.543,0.003992987469209761,0.855299434753248,0.003658013570731062,0.03171921456149585
0.28600000000000003,0.009499999999999518,-0.543,0.003960458825973273,0.854055939739431,0.003500658069993998,0.031563923892525665
0.28700000000000003,0.0008000000000001833,-1.543,0.003965443204875065,0.8528106315702157,0.0035247697254433977,0.03140840679231803
0.28800000000000003,0.004099999999999734,-0.543,0.003965930657217354,0.8540559397394373,0.003527127749012002,0.031563923892526456
0.289,-0.0007,0.457,0.003999871373538289,0.8447855929016896,0.0036913140746828066,0.03040622052739551
0.29,-0.005,0.457,0.003997573016349776,0.8447855929016898,0.0036801958997364414,0.030406220527395524
0.291,0.0026,0.457,0.003999257809449994,0.8435265989221895,0.0036883459925637326,0.030248994310053567
0.292,0.0,0.457,0.00399874323126231,0.8422657230376963,0.00368585674922817,0.03009153307585827
0.293,0.0007,0.457,0.003999731062126326,0.8410029567838572,0.003690635326038787,0.02993383576776073
0.294,-0.0047,0.457,0.004057274918353381,0.8277441624283237,0.003969000526982454,0.028278045416910202
0.295,-0.0025,-0.543,0.004018391452444502,0.8422657230377005,0.0037809039253504195,0.0300915330758588
0.296,-0.0018,1.457,0.0040750868668603295,0.8422657230376941,0.004055164836266333,0.030091533075857994
0.297,-0.0058,-0.543,0.004099642277771429,0.841002956783855,0.004173950269511399,0.02993383576776045
0.298,-0.0021,-0.543,0.004157060953113203,0.841002956783855,0.004451709914891532,0.02993383576776045
0.299,0.0026,0.457,0.004183709563761474,0.841002956783855,0.0045806210853335284,0.02993383576776045
0.3,0.0055,2.457,0.004181145058982187,0.8315871109446278,0.004568215436233642,0.02875796213493789
0.301,0.0041,2.457,0.004188108352077135,0.8328641533733192,0.004601899978923249,0.028917442286326728
0.302,0.0045,0.457,0.004193031137140362,0.8422657230376942,0.004625713677607618,0.030091533075858008
0.303,-0.0024,1.457,0.004187931310959975,0.8435265989221915,0.0046010435523751395,0.030248994310053817
0.304,-0.0031,1.457,0.004210674537771756,0.8528106315701887,0.004711062645926819,0.03140840679231465
0.305,0.0089,0.457,0.004218047568958084,0.8540559397394103,0.004746729273822727,0.031563923892523084
0.306,0.001,0.457,0.0043323717142135865,0.8540559397394102,0.005299765961895759,0.03156392389252307
0.307,-0.0033,-0.543,0.004330631259485258,0.8528106315701887,0.005291346609041252,0.03140840679231465
0.308,-0.0022,0.457,0.004313734344886382,0.8384717189918203,0.005209608725346335,0.0296177286618372
0.309,0.0015,-0.543,0.0042707391346815705,0.8397382916326497,0.0050016217895898375,0.02977590132076085
0.31,0.0005,0.457,0.004265444562479845,0.8410029567838297,0.004976009591320943,0.029933835767757305
0.311,-0.006,-0.543,0.0042645001848618394,0.8410029567838213,0.004971441217168791,0.02993383576775625
0.312,-0.0016,-0.543,0.004279639640899781,0.807178495185034,0.005044677492915603,0.02570975508317935
0.313,0.006,0.4570000000008882,0.0042782294246159905,0.8058607498843413,0.0050378556501516686,0.02554519185855591
0.314,0.0054,1.457,0.0042802539649244116,0.8045408462714182,0.005047649251184392,0.02538035909867388
0.315,0.0029,0.457,0.004294045909512077,0.8045408462714182,0.005114367015308519,0.02538035909867388
0.316,-0.0025,0.457,0.004285630939843221,0.8045408462714183,0.005073660068009694,0.025380359098673894
0.317,-0.0046,0.457,0.004316447615232808,0.8058607498843414,0.005222734019595248,0.025545191858555923
0.318,-0.0067,-0.543,0.004270893247697179,0.807178495185034,0.005002367302723136,0.02570975508317935
0.319,0.0013,-0.543,0.0042309027702609435,0.8071784951850342,0.004808915594456544,0.025709755083179364
0.32,0.0046,0.457,0.004253292691469532,0.8084940927268286,0.0049172255918218475,0.025874050090469884
0.321,0.0021,0.457,0.004251246457189238,0.8181757440819984,0.004907327047407924,0.027083118159882912
0.322,0.0083,0.457,0.004233823773647499,0.829027124597928,0.004823045785722267,0.02843826483988138
0.323,0.0007,-2.543,0.004239240536580415,0.8290271245979282,0.0048492490748507505,0.028438264839881395
0.324,0.0033,-0.543,0.004370324387502786,0.8303081043830246,0.005483359906048746,0.028598236697874056
0.325,-0.001,-0.543,0.004384799086212129,0.8303081043830246,0.005553380455226519,0.028598236697874056
0.326,-0.0017,1.457,0.004277167598600586,0.8303081043830246,0.005032719125915631,0.028598236697874056
0.327,-0.0038,-0.543,0.00434030354837926,0.8290271245979346,0.005338135768094833,0.0284382648398822
0.328,-0.0059,0.457,0.004339630433642003,0.830308104383031,0.005334879613026684,0.02859823669787486
0.329,-0.0045,-0.5429999999991119,0.004364678993294822,0.8315871109445874,0.00545605062585547,0.02875796213493284
0.33,-0.004,0.457,0.004348263225753004,0.8181757440820049,0.005376640264262876,0.027083118159883714
0.331,0.004,0.457,0.004296818780065813,0.818175744082005,0.005127780622242264,0.027083118159883728
0.332,0.0007,1.457,0.004293753080458728,0.8194736866362248,0.005112950471065188,0.02724520836956697
0.333,0.0001,0.457,0.004237349312154165,0.8290271245979347,0.004840100381976131,0.028438264839882214
0.334,0.0008,0.457,0.004214472698099661,0.8422657230376542,0.004729436035063649,0.030091533075853015
0.335,0.0001,0.457,0.0042178225749309696,0.8290271245979518,0.004745640877742326,0.028438264839884347
0.336,-0.002,0.457,0.004154529330292515,0.8277441624283066,0.004439463330435781,0.02827804541690807
0.337,0.0016,-0.543,0.004062807174679152,0.8595252606986428,0.00399576250896918,0.032246945940166666
0.338,0.0056,-0.543,0.00406480936133828,0.8558077758024876,0.004005447975467908,0.031782697422885954
0.339,0.0006,0.457,0.004074595203678197,0.8558077758024876,0.00405278644299441,0.031782697422885954
0.34,0.0013,0.457,0.0040874582170484525,0.8570487290749715,0.004115010554069344,0.031937670673042574
0.341,-0.0016,0.457,0.004079508264670613,0.8570487290749714,0.004076553102027583,0.03193767067304256
0.342,-0.0012,0.457,0.004071344243645099,0.8582878881203246,0.004037060104820229,0.032092419855769626
0.343,0.0068,-0.543,0.004077217215087802,0.8582878881203245,0.004065470277216978,0.03209241985576961
0.34400000000000003,0.0002999999999995781,-1.543,0.00408062153165853,0.8582878881203245,0.004081938469104353,0.03209241985576961
0.34500000000000003,-0.007299999999999861,-0.5429999999991119,0.004085409798833803,0.8582878881203245,0.004105101444994559,0.03209241985576961
0.34600000000000003,-0.004800000000000138,0.457,0.004118696107693141,0.8570487290749714,0.004266122111001753,0.03193767067304256
0.34700000000000003,-0.007299999999999878,0.457,0.004127334900438304,0.8478111073694834,0.00430791178997164,0.030784054101685835
0.34800000000000003,-0.005099999999999801,-0.543,0.00409746084813165,0.8465566129291335,0.004163397725072501,0.0306273897976905
0.34900000000000003,-0.0015000000000001221,-0.543,0.004112504237181035,0.8465566129291335,0.004236169282110366,0.0306273897976905
0.35000000000000003,-0.003699999999999917,-0.543,0.0041603520443858465,0.8465566129291335,0.004467630385702849,0.0306273897976905
0.35100000000000003,-0.0021999999999999225,1.457,0.0041244238488103045,0.8142695030204163,0.004293829739783902,0.02659529731551146
0.352,-0.0008,-0.543,0.004113496175869665,0.7792855531313035,0.004240967730293865,0.022226416925051503
0.353,-0.0044,1.4569999999982237,0.004092255950853841,0.7792855531313035,0.004138219324255715,0.022226416925051503
0.354,-0.004,-0.543,0.004115918813766354,0.7691145058372049,0.004252687106247135,0.020956231905507515
0.355,-0.0106,0.457,0.0042194113064143906,0.7691145058372049,0.004753326277846257,0.020956231905507515
0.356,-0.0004,0.457,0.004126630361859836,0.7691145058372049,0.004304503623821048,0.020956231905507515
0.357,0.0007,0.457,0.004137876493405427,0.7691145058372049,0.0043589061590834565,0.020956231905507515
0.358,-0.0004,-0.543,0.004127212555994138,0.767731429735806,0.004307319955534091,0.020783510012265957
0.359,0.0006,-0.543,0.00412141082805505,0.7691145058372049,0.004279254419619843,0.020956231905507515
0.36,0.0053,0.457,0.00414089286752314,0.7691145058371979,0.004373497700951722,0.020956231905506644
0.361,0.0046,0.457,0.004217386319698267,0.7691145058371979,0.004743530517341125,0.020956231905506644
0.362,-0.0009,0.457,0.004174665288738416,0.7792855531312968,0.004536869908418145,0.022226416925050656
0.363,-0.0016,0.457,0.0041949151572369964,0.7893255497886187,0.004634827519938798,0.023480236023679876
0.364,-0.0038,0.457,0.004156851122761146,0.8045408462714272,0.004450694872245037,0.025380359098675004
0.365,0.0041,0.457,0.004124617810735321,0.7946930999380768,0.00429476801979801,0.02415054868611814
0.366,0.0052,-0.543,0.004132649448085307,0.7960293323579309,0.0043336206183450035,0.02431742062695677
0.367,0.0045,-0.543,0.004136694715641687,0.7973633255042749,0.004353189374942744,0.024484012921896108
0.368,0.0037,0.457,0.004118104770604023,0.7973633255042748,0.004263261550753791,0.024484012921896094
0.369,0.0044,-0.5429999999982237,0.004118506855561623,0.7960293323579309,0.004265206614351494,0.02431742062695677
0.37,-0.0007,1.457,0.0041167342638130265,0.7946930999380768,0.004256631800450558,0.02415054868611814
0.371,-0.0014,1.457,0.004108540285599773,0.7946930999380767,0.004216993887015274,0.024150548686118125
0.372,0.0025,-0.543,0.004151378242317819,0.7960293323579308,0.0044242201177840884,0.024317420626956757
0.373,0.0108,-0.543,0.004072282438903213,0.8071784951850428,0.004041598572150588,0.025709755083180443
0.374,0.0047,-0.543,0.004071702570999827,0.7663458575076557,0.004038793493450094,0.02061047639667027
0.375,-0.0008,-0.543,0.004058669057726672,0.7663458575076557,0.003975744598586875,0.02061047639667027
0.376,-0.0074,0.457,0.004069198385917201,0.7649577755890329,0.0040266796375247145,0.020437129364850096
0.377,-0.0012,-0.543,0.004066720803722929,0.7531838907724621,0.00401469447159072,0.01896677811355647
0.378,-0.0067,-0.543,0.004097572478798654,0.7531838907724621,0.004163937732209484,0.01896677811355647
0.379,0.0045,-0.543,0.004058160046925042,0.7691145058371933,0.003973282287171399,0.020956231905506075
0.38,0.0059,-0.543,0.00403424747735067,0.7677314297358014,0.003857606563104789,0.02078351001226539
0.381,0.0016,-0.543,0.0040176293843357394,0.7691145058371933,0.0037772174632997825,0.020956231905506075
0.382,0.0026,1.457,0.004031063393775273,0.7691145058371933,0.0038422037360716236,0.020956231905506075
0.383,-0.0035,-1.543,0.004033559673331273,0.7574052402605973,0.0038542793494520593,0.019493950461403096
0.384,0.0019,-0.543,0.00403355354597039,0.7574052402605973,0.0038542497086849095,0.019493950461403096
0.385,0.0044,0.4570000000017764,0.004121086714437148,0.7574052402605972,0.0042776865380371445,0.019493950461403082
0.386,-0.0039,2.457,0.004155170380486674,0.7574052402605972,0.004442564375061776,0.019493950461403082
0.387,0.0015,1.457,0.0041504229274805906,0.7574052402605972,0.004419598835442837,0.019493950461403082
0.388,-0.005,-0.543,0.004220230184538498,0.7677314297357944,0.004757287555183428,0.020783510012264517
0.389,0.0033,-0.543,0.0041913710717090885,0.7663458575076556,0.004617683203502219,0.020610476396670255
0.39,-0.0043,0.457,0.00419392986702282,0.7663458575076556,0.0046300612333803354,0.020610476396670255
0.391,0.0004,-0.543,0.004200483201636033,0.7779205604906718,0.004661762624737568,0.02205595333818723
0.392,-0.0022,0.457,0.004197928400828229,0.7779205604906718,0.0046494039180594955,0.02205595333818723
0.393,0.0018,0.457,0.004198299743337172,0.7779205604906718,0.0046512002667733,0.02205595333818723
0.394,-0.0051,0.457,0.004252718278525001,0.7779205604906718,0.004914446901181126,0.02205595333818723
0.395,-0.0058,0.457,0.004261088042365586,0.7779205604906718,0.0049549351678023715,0.02205595333818723
0.396,0.0032,-0.543,0.004218398845686324,0.7779205604906788,0.0047484285554394755,0.022055953338188102
0.397,-0.003,0.457,0.004250649406264525,0.7779205604906744,0.0049044388467983655,0.02205595333818755
0.398,-0.0041,-0.543,0.004188024373069251,0.7792855531312947,0.0046014937351478505,0.022226416925050393
0.399,0.0068,0.457,0.004177298401439029,0.7893255497886166,0.004549607444517938,0.023480236023679612
0.4,-0.0008,-0.543,0.004179865266288272,0.7893255497886166,0.0045620245103248505,0.023480236023679612
0.401,0.0028,0.457,0.004274785461389123,0.7879779493514263,0.005021195669772409,0.023311944417303623
0.402,0.0017,0.457,0.004282014720787189,0.7779205604906743,0.005056166809646601,0.022055953338187537
0.403,0.005,-0.543,0.004383004058193099,0.7765531685268574,0.0055446971071164254,0.021885190118032936
0.404,-0.0098,1.457,0.004395687814754256,0.7663458575076904,0.005606054073356846,0.020610476396674595
0.405,0.0014,0.457,0.0044382163271092095,0.8005680787191061,0.005811783384246441,0.024884230265018265
0.406,0.0032,0.457,0.004313784775720013,0.8018945214609112,0.0052098526816964615,0.025049879647152325
0.40700000000000003,0.0013999999999999224,0.457,0.004423258513344752,0.8018945214609112,0.005739425792885307,0.025049879647152325
0.40800000000000003,-2.3869795029440845e-16,-0.543,0.00442310876655999,0.803218773706172,0.005738701401150653,0.02521525547477272
0.40900000000000003,-0.004299999999999317,-0.5429999999991119,0.004426252385146672,0.803218773706172,0.005753908481053658,0.02521525547477272
0.41000000000000003,0.007999999999999556,0.457,0.004434755225293765,0.803218773706172,0.005795040496899072,0.02521525547477272
0.41100000000000003,2.442490654175342e-16,1.457,0.004464371747069547,0.803218773706172,0.005938308772192238,0.02521525547477272
0.41200000000000003,0.0043999999999996394,1.457,0.004443407886332644,0.804540846271381,0.0058368972629677445,0.025380359098669238
0.41300000000000003,-0.0020999999999997943,-1.543,0.004446965457331129,0.8058607498843041,0.005854106814617483,0.025545191858551263
0.41400000000000003,0.0015999999999996948,-0.543,0.004457211856255623,0.8071784951849968,0.005903673198981981,0.025709755083174704
0.41500000000000004,-0.0038999999999999556,-0.543,0.004441832327336003,0.8071784951849968,0.005829275584035275,0.025709755083174704
0.41600000000000004,-0.003099999999999961,-0.543,0.004452204125457082,0.8071784951849967,0.005879448580032091,0.02570975508317469
0.417,-0.0024,0.457,0.004422986350578139,0.805860749884304,0.005738109220653533,0.02554519185855125
0.418,0.0067,0.457,0.0044001016965592955,0.8045408462713809,0.0056274059808611564,0.025380359098669224
0.419,0.0005,0.457,0.004409401192370337,0.838471718991776,0.005672391774129879,0.02961772866183167
0.42,0.0038,0.457,0.004408411750304177,0.8478111073694419,0.005667605403218589,0.030784054101680648
0.421,0.0063,-0.543,0.004408450994512447,0.8372032302040104,0.005667795244891307,0.029459316709837882
0.422,0.002,1.457,0.0044157184517542485,0.8372032302040104,0.005702951164708035,0.029459316709837882
0.423,-0.0002,-0.543,0.004408676186102716,0.8359328165462858,0.005668884596672473,0.029300664375421726
0.424,0.0006,-0.543,0.004274208421161334,0.8346604692292449,0.0050184042697951955,0.029141770560946977
0.425,-0.0031,0.457,0.00424826672479718,0.834660469229245,0.0048929127578476155,0.02914177056094699
0.426,0.0009,0.457,0.004251728860051179,0.8346604692292449,0.004909660644396458,0.029141770560946977
0.427,-0.0063,-0.543,0.004224173667170645,0.8359328165462858,0.0047763639328767095,0.029300664375421726
0.428,-0.0016,-1.543,0.004249559204007666,0.8359328165462859,0.00489916505407404,0.02930066437542174
0.429,-0.0009,0.457,0.004200098748024062,0.8346604692292408,0.004659902851792781,0.029141770560946464
0.43,-0.0016,-0.5429999999991119,0.0041844294723474675,0.8346604692292408,0.004584103603039858,0.029141770560946464
0.431,-0.0052,0.457,0.004151320166793506,0.8346604692292408,0.004423939180668377,0.029141770560946464
0.432,-0.0016,0.457,0.004169271597524095,0.8333861793964148,0.004510778227443926,0.028982634160395867
0.433,-0.0001,0.457,0.004204291374995166,0.8225923041786717,0.004680184451355523,0.027634668881308125
0.434,-0.0085,0.457,0.004196176764527929,0.8077171219702663,0.004640930474973072,0.02577702010062983
0.435,0.0053,0.457,0.0042347151918990505,0.8174079760767472,0.004827357971887528,0.026987237431914893
0.436,-0.0001,0.457,0.004220390100515806,0.8174079760767387,0.004758061139820885,0.02698723743191383
0.437,0.0078,1.457,0.004202499960484038,0.7839212486014892,0.004671518583388734,0.022805333802649156
0.438,-0.0027,0.457,0.004220603885656648,0.7839212486014892,0.004759095313537961,0.022805333802649156
0.439,-0.0016,0.457,0.004193084092670963,0.7839212486014892,0.004625969847038782,0.022805333802649156
0.44,-0.0027,1.457,0.00418029450955487,0.7839212486014893,0.004564100950730386,0.02280533380264917
0.441,0.0006,0.457,0.0041603180443093475,0.7839212486014892,0.004467465912225622,0.022805333802649156
0.442,0.0013,0.457,0.004286022984125007,0.7979085780300528,0.0050755565603971264,0.02455210537787293
0.443,0.0096,-0.543,0.00429738012326896,0.7979085780300528,0.005130496088736651,0.02455210537787293
0.444,-0.0027,-1.543,0.004293609260628559,0.7992394345744983,0.005112254750643416,0.024718305966370594
0.445,0.0041,-0.543,0.00426537949619991,0.8103444322594658,0.0049756948368140964,0.02610512497267887
0.446,-0.0071,0.45699999999911184,0.004257653172458336,0.8103444322594658,0.0049383191758505226,0.02610512497267887
0.447,0.0005,-0.543,0.004257653172458336,0.8090318436309495,0.0049383191758505226,0.02594120572576586
0.448,0.0041,1.457,0.00426899458140962,0.8090318436309494,0.004993182610258733,0.025941205725765845
0.449,-0.0021,-0.543,0.004255006970874135,0.8090318436309495,0.00492551832300505,0.02594120572576586
0.45,-0.0097,0.457,0.004218301504816223,0.810344432259466,0.0047479576743994795,0.026105124972678882
0.451,0.0033,-0.543,0.004220188927066641,0.8200042372597047,0.0047570879744601845,0.027311464816378004
0.452,-0.0094,0.457,0.004216615501773188,0.8346604692292047,0.004739801728541171,0.029141770560941957
0.453,0.0055,-0.543,0.004213137326722825,0.8346604692292046,0.004722976250370376,0.029141770560941943
0.454,0.0073,2.4569999999973353,0.004202413471239504,0.8333861793963786,0.004671100196483292,0.028982634160391346
0.455,-0.0018,-0.543,0.004103670980469649,0.8225923041786349,0.004193438894529985,0.027634668881303535
0.456,-0.0098,0.457,0.004102748026722792,0.8225923041786349,0.004188974157161814,0.027634668881303535
0.457,0.0006,-0.543,0.00409668389496491,0.8333861793963786,0.004159639257382571,0.028982634160391346
0.458,0.0017,-0.543,0.004096043152256931,0.8333861793963786,0.004156539700203851,0.028982634160391346
0.459,0.0028,-0.543,0.004113746306873633,0.8333861793963786,0.004242177725100386,0.028982634160391346
0.46,-0.0074,0.457,0.00409628682173341,0.8333861793963852,0.004157718437730865,0.028982634160392165
0.461,0.0016,-0.543,0.004022075859578982,0.8440420304249698,0.0037987270397468725,0.03031336264445434
0.462,-0.002,-0.543,0.004043817031940798,0.866187840043303,0.0039038987506827567,0.03307898498495812
0.463,0.0034,-0.543,0.004230473535880412,0.866187840043303,0.00480683919703686,0.03307898498495812
0.464,0.0008,0.457,0.004228787711620211,0.8520740721726231,0.0047986841160305585,0.03131642347085915
0.465,0.0051,0.457,0.004245437168502409,0.8508258632551161,0.004879224936797399,0.031160544118179468
0.466,0.0011,0.457,0.004268400455740064,0.8495758204532368,0.004990308560408142,0.03100443574557784
0.467,0.0004,0.457,0.004384496953624763,0.8495758204532368,0.005551918905655324,0.03100443574557784
0.468,-0.0047,2.457,0.004420454084841156,0.8600311039804127,0.005725859526125992,0.032310116874305767
0.46900000000000003,0.0042999999999998005,1.457,0.004468907606117371,0.8612659721008316,0.005960250737817859,0.032464330195934754
0.47000000000000003,0.0006999999999998002,0.4570000000008882,0.004468804143946869,0.8624990722220016,0.005959750245327954,0.032618322725535595
0.47100000000000003,-0.002899999999999822,1.457,0.004490290055007191,0.8637304119161467,0.006063687143928647,0.032772095408745955
0.47200000000000003,0.0002999999999999611,0.457,0.0044470911386133155,0.8637304119161467,0.005854714790823189,0.032772095408745955
0.47300000000000003,-0.00039999999999996115,0.457,0.004476604139537879,0.853320455253394,0.00599748228976175,0.031472074808625204
0.47400000000000003,0.00029999999999987784,-0.543,0.004529241516336862,0.8520740721726231,0.006252112669623353,0.03131642347085915
0.47500000000000003,-0.0019000000000002053,-0.543,0.0045336366646182335,0.850825863255116,0.006273373954749844,0.031160544118179454
0.47600000000000003,-0.005599999999999956,-0.543,0.0045694005181022524,0.8612659721008316,0.006446379604950225,0.032464330195934754
0.47700000000000004,-0.004799999999999639,-0.543,0.004576986632897736,0.8930441897961248,0.006483077012942733,0.03643287098600547
0.47800000000000004,0.0016999999999997557,0.45699999999911184,0.004537115693399171,0.8930441897961248,0.0062902035627947625,0.03643287098600547
0.47900000000000004,-0.0026999999999997005,-0.543,0.004549508623281138,0.8793615724823156,0.0063501536711653706,0.03472415259766042
0.48,0.0027,-0.543,0.004590869578016308,0.8805693328997972,0.0065502349870689815,0.03487498064369393
0.481,-0.0042,0.457,0.004588137273265092,0.8793615724823217,0.006537017614946571,0.034724152597661186
0.482,0.006,0.457,0.004559234126022585,0.8805693328998033,0.00639720024924347,0.034874980643694695
0.483,0.0023,0.457,0.0045585814949392865,0.8805693328998033,0.0063940431827109855,0.034874980643694695
0.484,0.006,1.457,0.004573664222280476,0.8805693328998033,0.006467005036545432,0.034874980643694695
0.485,0.0027,0.457,0.004500163735279334,0.8817754390595304,0.0061114505225622175,0.03502560210201334
0.486,0.0002,-0.5429999999982237,0.004507640395446955,0.8829798977404019,0.00614761844988595,0.035176017819182434
0.487,-0.0042,1.457,0.004512463588055355,0.882979897740402,0.0061709503756145565,0.03517601781918245
0.488,0.0013,-0.543,0.004478376847387306,0.882979897740402,0.0060060576652939904,0.03517601781918245
0.489,0.0005,-0.543,0.004471627738097893,0.882979897740402,0.005973409224839718,0.03517601781918245
0.49,0.0013,0.457,0.004501168232354897,0.8829798977404019,0.006116309721243364,0.035176017819182434
0.491,0.0103,-1.543,0.00453554301368274,0.8727995615825397,0.00628259581222002,0.033904672783834786
0.492,0.0038,0.457,0.004536433651338627,0.874016389768348,0.006286904222297206,0.034056633234738336
0.493,0.0002,-0.543,0.004534700664545423,0.8841827156751446,0.006278520995163116,0.035326228636001225
0.494,0.0013,1.456999999999112,0.004532073426274543,0.8930441897961309,0.006265811876290116,0.036432870986006234
0.495,-0.0052,0.457,0.004524359984837372,0.8793615724823218,0.006228498532756913,0.0347241525976612
0.496,0.0032,0.457,0.004506047963060649,0.8781521509815703,0.006139915146870346,0.03457311711152593
0.497,0.0043,0.457,0.00451758732511106,0.8793615724823257,0.00619573616837523,0.034724152597661685
0.498,-0.0022,-0.543,0.0045232112609328665,0.8781521509815743,0.006222941644820091,0.03457311711152643
0.499,0.0039,-0.543,0.004517384985324029,0.8679151889203165,0.006194757360920036,0.03329470049621936
0.5,-0.0015,1.457,0.004518479231792316,0.8679151889203165,0.006200050717291995,0.03329470049621936
0.501,0.0022,-1.543,0.004414510706533226,0.8691388554446359,0.005697108764438366,0.033447514935398076
0.502,0.0,0.457,0.004435214064089043,0.8691388554446359,0.0057972601040269705,0.033447514935398076
0.503,0.004,0.457,0.004344498100621387,0.8793615724823258,0.0053584266810489676,0.0347241525976617
0.504,0.0037,0.457,0.004338437526462482,0.8793615724823258,0.005329108990956721,0.0347241525976617
0.505,0.0011,0.457,0.00432090310448226,0.8575560331801878,0.005244287200795555,0.03200102403835165
0.506,0.0023,1.457,0.0043201218812017805,0.8563158150815009,0.005240508076668134,0.03184614259847933
0.507,0.0012,0.457,0.004219100493856084,0.8942334705286782,0.004751822739398863,0.03658139124422884
0.508,0.0038,-0.543,0.004261284265375175,0.8942334705286782,0.00495588438568722,0.03658139124422884
0.509,0.002,-0.543,0.00429054932804004,0.8930441897961943,0.005097452497097593,0.03643287098601415
0.51,-0.002,1.4570000000008883,0.0042824612507504686,0.8930441897961944,0.005058326873484956,0.036432870986014165
0.511,-0.0042,2.457,0.004243131671981786,0.8930441897961944,0.00486807222572941,0.036432870986014165
0.512,-0.0132,1.457,0.004259009221302845,0.8918533231668301,0.0049448789866425175,0.03628415267715614
0.513,0.0017,0.457,0.004256631043147221,0.8918533231668301,0.004933374682211511,0.03628415267715614
0.514,-0.0041,0.457,0.004244389165848704,0.8918533231668361,0.004874155282304014,0.036284152677156886
0.515,-0.0059,0.457,0.0042563277686096124,0.9053471708763302,0.004931907608519587,0.0379692970601303
0.516,-0.0105,-0.543,0.004230790070675644,0.9065203112444851,0.004808370416486817,0.03811580167055692
0.517,0.0061,1.457,0.004238667806999797,0.9065203112444851,0.004846478527389245,0.03811580167055692
0.518,-0.0094,-0.543,0.00431168857959042,0.916326088144267,0.00519971244961801,0.039340370838603166
0.519,0.0004,-0.543,0.004287776047599155,0.8865834560089897,0.005084036907357586,0.035626038903291427
0.52,0.0058,-0.543,0.004336979186180121,0.8764449779386423,0.005322054351028841,0.03435992120728954
0.521,0.0011,-0.543,0.004356805422365587,0.8764449779386382,0.005417962664819064,0.03435992120728903
0.522,0.0055,0.457,0.004358352485948502,0.8800752945111412,0.005425446498774014,0.0348132839331974
0.523,-0.0069,0.457,0.004358541708173442,0.8800752945111412,0.00542636185075287,0.0348132839331974
0.524,-0.0021,0.457,0.004362899309057646,0.9111977690045262,0.005447441502435882,0.03869993392405663
0.525,-0.0065,1.457,0.004466894177203387,0.9111977690045262,0.005950510887537138,0.03869993392405663
0.526,-0.0028,2.4569999999973353,0.00447593046062535,0.9100306584691545,0.005994223405527128,0.03855418233375175
0.527,-0.0018,-0.543,0.004475930460625348,0.9088620491960152,0.0059942234055271205,0.03840824357744462
0.528,0.0037,0.457,0.0044699107126089,0.9088620491960152,0.005965103209626157,0.03840824357744462
0.529,0.0062,-0.543,0.004466680092959534,0.9088620491960191,0.0059494752669258955,0.03840824357744511
0.53,0.0001,0.457,0.004460517868490221,0.9088620491960191,0.0059196658491160814,0.03840824357744511
0.531,-0.0007,-0.543,0.004458136819599766,0.9088620491960191,0.005908147657665147,0.03840824357744511
0.532,-0.0014,0.457,0.004470104230628748,0.9100306584691584,0.0059660393422737235,0.038554182333752234
0.533,0.0037,0.457,0.0044456506562144706,0.9197990130831774,0.0058477465374126405,0.03977407811611864
0.534,0.0023,-0.543,0.0046125839496873105,0.9197990130831774,0.0066552770511550926,0.03977407811611864
0.535,0.0059,-0.543,0.0045829800717201484,0.9100306584691584,0.006512069939582224,0.038554182333752234
0.536,-0.0021,0.457,0.004625388595039399,0.9197990130831772,0.00671721881019158,0.039774078116118626
0.537,0.0055,1.457,0.004627495676476036,0.91864283025765,0.006727411699336858,0.03962969120468515
0.538,-0.0011,0.457,0.0046202206301558055,0.9088620491960271,0.006692219067775725,0.0384082435774461
0.539,-0.0054,0.457,0.004638445873676545,0.9088620491960271,0.00678038266868005,0.0384082435774461
0.54,-0.0062,0.457,0.004638709901809009,0.9088620491960271,0.006781659890071994,0.0384082435774461
0.541,-0.0011,-0.543,0.0046403936393829654,0.9088620491960271,0.006789804876849756,0.0384082435774461
0.542,-0.0004,1.457,0.004533720791381922,0.8966072995374165,0.006273780913285724,0.03687784076006265
0.543,-0.0095,1.457,0.004521198974942086,0.9100306584691664,0.006213207323366736,0.03855418233375323
0.544,-0.0005,0.457,0.004528690023879432,0.9088620491960271,0.006249444855562968,0.0384082435774461
0.545,0.0006,0.457,0.004538890572984203,0.9001563054485995,0.006298789443977087,0.03732104921365751
0.546,-0.0078,-0.543,0.004509239256384308,0.9001563054485995,0.006155352850659355,0.03732104921365751
0.547,0.0023,0.457,0.004548710494812617,0.9001563054485995,0.006346292769131935,0.03732104921365751
0.548,0.0034,0.457,0.004551402808535678,0.9013362020488778,0.006359316686882009,0.037468397558714756
0.549,0.0023,-0.543,0.00454700877734883,0.9013362020488778,0.006338060805638086,0.037468397558714756
0.55,-0.001,-0.543,0.0045382587234096125,0.9013362020488778,0.0062957329068360395,0.037468397558714756
0.551,0.0054,-0.543,0.004537374393388142,0.8925570563801182,0.006291455009589183,0.036372036585216684
0.552,0.0029,1.457,0.004532662014099965,0.878866855174261,0.006268659137128009,0.03466237110206511
0.553,0.005,-0.543,0.004535895180670907,0.8788668551742609,0.0062842994004196,0.0346623711020651
0.554,-0.0062,1.457,0.004535021540740085,0.8800752945111675,0.006280073215891123,0.03481328393320069
0.555,-0.0016,0.4569999999973355,0.004521169957377722,0.8812820768028482,0.006213066952514576,0.034963989828515236
0.556,-0.0031,-2.543,0.004544044928275856,0.8824872088472242,0.006323723350749596,0.03511448963694961
0.557,0.006,-0.543,0.004538884618971351,0.8735186452211597,0.006298760641771383,0.033994473690188286
0.558,-0.0053,0.457,0.004540129122014335,0.8836906973958635,0.006304780855958426,0.03526478420165597
0.559,-0.001,-0.543,0.0045284587854210745,0.8824872088472242,0.006248326252394062,0.03511448963694961
0.56,-0.0046,0.457,0.004583908349421962,0.8824872088472242,0.006516560431286105,0.03511448963694961
0.561,0.004,0.457,0.0045807157964241835,0.8723011227001618,0.006501116633893671,0.033842426529024625
0.562,-0.0014,-0.543,0.0046088571301616975,0.8410029567837565,0.0066372487691776965,0.029933835767748152
0.5630000000000001,0.0010999999999995115,-0.5430000000008882,0.004419771664095218,0.8303081043829718,0.00572255835375893,0.028598236697867457
0.5640000000000001,-0.0032999999999994006,-1.543,0.004423453801086375,0.8303081043829716,0.005740370486463439,0.028598236697867443
0.5650000000000001,0.0021000000000000775,-0.543,0.00441414471719434,0.8303081043829716,0.005695338311386695,0.028598236697867443
0.5660000000000001,0.0028000000000005664,0.457,0.004375098111169062,0.8315871109445281,0.005506452528523839,0.028757962134925437
0.5670000000000001,0.007899999999998991,1.457,0.0042475526222044485,0.8315871109445282,0.0048894583263104615,0.02875796213492545
0.5680000000000001,-0.0011999999999990007,-0.543,0.0042234120065719515,0.8220634238665,0.004772679442133346,0.027568621027018625
0.5690000000000001,0.0077999999999996,0.457,0.004142408040038732,0.8207695766621044,0.0043808272636439195,0.02740704225454003
0.5700000000000001,0.0041999999999998774,0.457,0.0042228275059043845,0.8207695766620912,0.0047698519526940385,0.027407042254538383
0.5710000000000001,0.003099999999999711,-1.5429999999982236,0.00418469353323014,0.8303081043829588,0.0045853809828591136,0.028598236697865834
0.5720000000000001,0.0004999999999997225,0.457,0.0042014702175136075,0.8397382916325636,0.004666537259096647,0.029775901320750104
0.5730000000000001,-0.002000000000000844,2.457,0.004188198323624607,0.8410029567837437,0.00460233521127529,0.02993383576774656
0.5740000000000001,-0.009599999999998556,-0.543,0.004202095605475446,0.8422657230375831,0.004669562538545735,0.03009153307584413
0.5750000000000001,0.0033999999999990006,0.457,0.004227631254715388,0.8422657230375831,0.004793089820135204,0.03009153307584413
0.5760000000000001,-0.005599999999999845,0.457,0.004200533899642182,0.8328641533732069,0.004662007873519879,0.028917442286312697
0.577,-0.0042,-0.543,0.0042653053294155795,0.8000246387638728,0.004975336059123877,0.024816364167240947
0.578,0.0002,0.457,0.00426895681643554,0.8000246387638728,0.004992999924299054,0.024816364167240947
0.579,0.0013,-0.543,0.004258407461977909,0.8013519810384749,0.004941968009409001,0.0249821258852093
0.58,-0.0023,-0.543,0.004213585653364593,0.8013519810384749,0.004725145005540899,0.0249821258852093
0.581,0.0053,-0.543,0.004276128522860693,0.8013519810384748,0.0050276926548708375,0.024982125885209285
0.582,-0.0038,1.457,0.004277907684864124,0.8150402274730438,0.005036299252013759,0.026691547251788097
0.583,0.0125,0.457,0.004294211402427438,0.8163431553484932,0.005115167578073334,0.02685426004046054
0.584,-0.003,0.457,0.004285505219697435,0.8176440069916474,0.005073051903803487,0.02701671354421549
0.585,0.0068,1.457,0.004279262382904701,0.8163431553484932,0.005042852528366933,0.02685426004046054
0.586,0.0014,0.457,0.004243992469907863,0.8259328044788289,0.004872236287774866,0.028051838649214296
0.587,-0.0033,0.45699999999911184,0.004335174971168458,0.8259328044788288,0.005313326561353336,0.028051838649214282
0.588,0.0043,-0.543,0.004339091630262768,0.8163431553484779,0.005332273181675644,0.026854260040458627
0.589,0.0007,-0.543,0.00433772844256568,0.8163431553484779,0.0053256788370817315,0.026854260040458627
0.59,0.0018,0.457,0.004307544870397692,0.8163431553484779,0.005179667487084834,0.026854260040458627
0.591,0.0029,-0.543,0.004307544870397692,0.8163431553484779,0.005179667487084834,0.026854260040458627
0.592,-0.0018,-1.543,0.004519225668067903,0.8150402274730285,0.006203661561219895,0.026691547251786185
0.593,0.0026,0.457,0.004555020116025844,0.8150402274730285,0.006376815210484633,0.026691547251786185
0.594,0.0033,-0.543,0.004456975980647995,0.8053208814934159,0.00590253216386164,0.0254777717863794
0.595,-0.0003,0.457,0.004469565768105498,0.8066395087363099,0.0059634345597945355,0.025642445150080927
0.596,-0.0068,0.457,0.00447196538718344,0.8079559839121054,0.005975042583493609,0.02580684975843107
0.597,-0.0046,-0.543,0.004403649272327309,0.8066395087363099,0.0056445671811399395,0.025642445150080927
0.598,-0.0009,-0.543,0.004399244827017697,0.8066395087363099,0.005623260922156913,0.025642445150080927
0.599,0.0027,-0.543,0.00440063915744665,0.8079559839121054,0.005630005917982462,0.02580684975843107
0.6,-0.0012,-0.543,0.004399515601920883,0.8176440069916322,0.005624570780676621,0.02701671354421359
0.601,-0.0008,0.457,0.004410676715112379,0.8176440069916322,0.005678562044384198,0.02701671354421359
0.602,0.0017,0.457,0.004387020766854177,0.8272185759515206,0.0055641277116480585,0.028212408904758936
0.603,0.0039,-0.543,0.004478982757473311,0.8163431553484628,0.006008988721603095,0.02685426004045674
0.604,0.0011,-0.543,0.004476523703294593,0.8150402274730134,0.005997093183912864,0.026691547251784298
0.605,-0.0047,-0.543,0.004433821514721436,0.804000091594699,0.005790523723986529,0.025312828344980935
0.606,0.0008,-0.543,0.004449792730901291,0.8053208814934134,0.005867783593114485,0.025477771786379094
0.607,0.0016,1.457,0.004556717663393113,0.762997377134587,0.006385027001368731,0.020192310057931817
0.608,-0.002,0.457,0.004572148093775318,0.7773612882047075,0.006459670849306929,0.021986110060603598
0.609,-0.0074,-0.543,0.004547741739376363,0.7787272611667743,0.006341606468641157,0.022156696072382936
0.61,0.001,0.457,0.004611616325977689,0.7787272611667673,0.006650596225328894,0.022156696072382062
0.611,-0.0066,-0.5429999999991119,0.004590088658868401,0.7787272611667674,0.006546457334165949,0.022156696072382076
0.612,-0.0018,0.457,0.004577867300965212,0.7787272611667674,0.006487337195691008,0.022156696072382076
0.613,-0.0025,0.457,0.004587025824852962,0.7787272611667674,0.006531641045128929,0.022156696072382076
0.614,0.0029,0.457,0.004586230157508458,0.7773612882046937,0.006527792048645912,0.021986110060601877
0.615,-0.0006,-0.543,0.0045763133579620145,0.7616031923706825,0.006479820082923428,0.020018200888012268
0.616,0.0001,-0.543,0.004589674456508682,0.7718732233075383,0.006544453653310089,0.02130074722459416
0.617,0.0041,-0.543,0.004600375813727187,0.7718732233075382,0.006596220873093641,0.021300747224594147
0.618,0.0045,0.457,0.004561698183899012,0.7616031923706825,0.006409119992042803,0.020018200888012268
0.619,0.0082,-0.5429999999982237,0.004708160847224647,0.7616031923706825,0.007117624972079519,0.020018200888012268
0.62,0.0013,1.457,0.004647583433645628,0.7629973771345732,0.0068245851063285165,0.020192310057930082
0.621,0.0039,1.457,0.004644752937787028,0.7629973771345732,0.006810892740190582,0.020192310057930082
0.622,-0.0044,-0.543,0.004639013329374882,0.7483578172433772,0.006783127704029629,0.018364086362883166
0.623,-0.0077,-0.543,0.004727385129753959,0.7497766317472792,0.007210621368569782,0.018541271354384836
0.624,-0.0051,0.457,0.004784155391549247,0.7116292203699487,0.007485244349516966,0.013777330231627447
0.625,-0.0044,-0.543,0.004711489056893315,0.7270087497199493,0.007133725001065166,0.015697963104836298
0.626,0.0079,-0.543,0.004742664924379034,0.7270087497199446,0.007284536524418986,0.0156979631048357
0.627,0.0025,-0.543,0.004711131291679601,0.7284691462611028,0.007131994331761163,0.015880340961858287
0.628,-0.0022,-0.543,0.00471684319827369,0.7391996667236356,0.00715962536191947,0.01722039434567525
0.629,-0.0008,-0.543,0.004731188631821629,0.7391996667236356,0.007229020598075342,0.01722039434567525
0.63,-0.0073,0.457,0.004817784842528194,0.7540170569485527,0.007647924946424522,0.01907082592348801
0.631,0.0014,-1.543,0.004815396078327717,0.752606236543613,0.007636369432590879,0.018894639254425808
0.632,-0.004,-0.543,0.004796112557052869,0.7629973771346105,0.007543086471966999,0.020192310057934742
0.633,0.0025,-0.543,0.004829421855249446,0.7526062365436131,0.007704218347613237,0.018894639254425822
0.634,0.0,0.457,0.004668335515765189,0.7526062365436131,0.006924972148281661,0.018894639254425822
0.635,0.0022,1.456999999999112,0.004693656005472988,0.7526062365436131,0.007047458607612653,0.018894639254425822
0.636,-0.0091,0.457,0.004669864785154905,0.7420696039148801,0.006932369903817639,0.017578799052874475
0.637,0.0058,-0.543,0.004686697038771073,0.7435004182509987,0.007013794993608485,0.01775748261248599
0.638,-0.0,0.457,0.004688326967810668,0.744928484369097,0.007021679684596876,0.01793582296797517
0.639,0.0017,0.457,0.004670821799618931,0.7449284843690899,0.0069369994080089046,0.01793582296797428
0.64,-0.0062,0.457,0.0046709426840778724,0.7435004182509962,0.0069375841798492086,0.017757482612485685
0.641,0.0137,0.457,0.004667968904385904,0.7449284843690899,0.006923198686144185,0.01793582296797428
0.642,0.0057,1.457,0.004694992058456144,0.7435004182509962,0.007053921689538549,0.017757482612485685
0.643,-0.0013,-0.543,0.0047190925856657705,0.7435004182509961,0.007170506648201814,0.01775748261248567
0.644,-0.0034,-0.543,0.004756310099425776,0.7554252425319021,0.007350544299059785,0.019246683549648695
0.645,-0.0016,-0.543,0.004752944155302407,0.7554252425319021,0.007334261731750254,0.019246683549648695
0.646,0.0001,0.457,0.004753551304977174,0.7568308080009735,0.007337198784500986,0.019422213969592626
0.647,0.0012,0.457,0.00470872596558859,0.768548825419933,0.0071203587007040905,0.020885588364966214
0.648,-0.0036,-0.543,0.004707998437679665,0.7671647294873087,0.007116839324947257,0.020712739112731287
0.649,-0.0021,1.457,0.004722574604691024,0.8079559839121073,0.0071873507213871405,0.025806849758431307
0.65,-0.0033,-0.543,0.004717451446429744,0.8066395087363118,0.007162567728512274,0.025642445150081176
0.651,0.0029,1.456999999999112,0.004721501486158315,0.8053208814934177,0.007182159570227316,0.025477771786379635
0.652,-0.0095,0.457,0.0047229567026438974,0.8053208814934176,0.007189199098962186,0.02547777178637962
0.653,-0.0048,0.457,0.004736666682045559,0.8163431553484799,0.007255520361062151,0.026854260040458877
0.654,-0.0005,0.457,0.004741058408423728,0.8297841419124226,0.007276765092922401,0.02853280299555039
0.655,-0.0041,-0.543,0.00477375682332166,0.8297841419124161,0.007434941854620249,0.028532802995549587
0.656,-0.0103,0.457,0.004754841902182321,0.8285023520089135,0.007343441976631362,0.028372729968008326
0.657,-0.0071,-1.543,0.0047727729703691555,0.8379528611528549,0.007430182520735113,0.029552932438275333
0.658,-0.0024,-0.543,0.004771526988825561,0.8272185759515309,0.007424155154383679,0.028212408904760223
0.659,0.0077,-0.5429999999991119,0.004769476922790207,0.8272185759515308,0.007414238074067972,0.02821240890476021
0.66,0.0011,0.457,0.004713169545605019,0.8259328044788241,0.007141854271652652,0.028051838649213703
0.661,0.0022,0.457,0.004732695582599439,0.8272185759515308,0.007236310388568736,0.02821240890476021
0.662,0.0032,-0.543,0.004686991613068617,0.8272185759515374,0.007015219980373451,0.028212408904761028
0.663,0.0007,0.457,0.00468635580093031,0.828502352008907,0.007012144274551025,0.028372729968007507
0.664,0.0013,0.457,0.00469008685805546,0.83922021686758,0.0070301930556802665,0.02971120288936361
0.665,-0.0041,1.457,0.004684166751453311,0.8404856615578228,0.0070015548695737855,0.029869234687086202
0.666,0.0042,0.457,0.004694801095636133,0.83922021686758,0.007052997917527939,0.02971120288936361
0.667,0.0052,-0.543,0.004698189836682151,0.83922021686758,0.007069390763681641,0.02971120288936361
0.668,0.0117,-0.543,0.004691864237277923,0.8379528611528484,0.007038791028719505,0.029552932438274518
0.669,-0.0021,-0.543,0.004679820434075725,0.8705824761297455,0.006980529801225867,0.03362779778288754
0.67,-0.0039,0.457,0.004626192238561442,0.8693608415722422,0.006721106390989395,0.03347523710064608
0.671,-0.0021,-0.543,0.004630618370558407,0.8602554403369056,0.00674251755811516,0.03233813254182918
0.672,0.0091,-0.543,0.004641206562886409,0.8510526261044551,0.006793737349040965,0.031188862812006266
0.673,0.0076,0.457,0.0046215292893648586,0.8639537877018147,0.006698549633844455,0.03279999111785833
0.674,-0.0048,-1.543,0.0045745543421808685,0.8639537877018149,0.006471310942009241,0.03279999111785834
0.675,0.0064,0.45699999999911184,0.004546340180545699,0.8742371373942481,0.00633482650582475,0.03408420073289371
0.676,-0.0012,-0.543,0.004623510416267912,0.886801075373904,0.006708133224945601,0.03565321573663849
0.677,-0.0048,1.457,0.004555468935203908,0.886801075373904,0.006378986348272066,0.03565321573663849
0.678,-0.0037,0.457,0.0045506519678377155,0.8856018136833785,0.006355684536806068,0.0355034490322105
0.679,-0.0092,-1.543,0.0045972787303693915,0.894449228648121,0.006581238904769686,0.036608335640733645
0.68,0.0017,0.4570000000008882,0.004601342242103488,0.8932602351746077,0.006600895916561449,0.03645985125611492
0.681,0.0031,1.457,0.004567383607761414,0.894449228648121,0.006436622913460908,0.036608335640733645
0.682,0.0068,-0.543,0.0045657172497046835,0.8807884381956729,0.006428561999130184,0.034902343043698256
0.683,-0.0019,0.457,0.004613194735312891,0.8807884381956729,0.006658231692615464,0.034902343043698256
0.684,0.0057,0.457,0.004606362176875678,0.8795809786336615,0.006625179571554454,0.03475155256922451
0.685,0.0049,-0.543,0.00462915063612423,0.9165366455462752,0.006735417474500854,0.039366665756919016
0.686,0.0042,-0.543,0.004640175427012761,0.9067331457017916,0.006788749286657109,0.038142380953053265
0.687,0.0035,-0.543,0.004553444510221928,0.9079044951971978,0.006369193305124581,0.038288661914953684
0.6880000000000001,-0.0014999999999999224,-0.5429999999991119,0.004517067743442861,0.9067331457017856,0.006193222720981226,0.03814238095305252
0.6890000000000001,-0.0007999999999998335,0.457,0.004518694233906055,0.9200087756561356,0.006201090778047712,0.03980027377425771
0.6900000000000001,0.0007000000000005662,-0.543,0.004515487569848139,0.9200087756561356,0.006185578719187445,0.03980027377425771
0.6910000000000001,0.00579999999999879,0.457,0.0044815698483222,0.9211632440394725,0.006021503629557281,0.039944446581998215
0.6920000000000001,-0.005100000000000156,-1.543,0.004299275804663249,0.9211632440394725,0.005139666341946034,0.039944446581998215
0.6930000000000001,-0.006499999999999589,1.457,0.004281684908294976,0.9114095111717606,0.0050545713600766845,0.03872637679872333
0.6940000000000001,-0.0027999999999996,-0.543,0.004285990596813361,0.9200087756561356,0.005075399888580091,0.03980027377425771
0.6950000000000001,0.0008000000000001221,-0.543,0.004272678499810066,0.9200087756561238,0.005011003360431504,0.03980027377425624
0.6960000000000001,0.0019000000000002886,1.456999999999112,0.0042708699176023995,0.9285284042581757,0.005002254444688462,0.04086422562793443
0.6970000000000001,0.004499999999999922,0.457,0.004314023356398043,0.9296722930147253,0.005211006802444282,0.04100707722625873
0.6980000000000001,0.0037999999999994006,-2.543,0.004313450334511118,0.9308147760345665,0.0052082348409672906,0.04114975327277831
0.6990000000000001,-0.0016000000000000777,0.457,0.0042987024077707015,0.9308147760345665,0.005136892566400219,0.04114975327277831
0.7000000000000001,-0.0022999999999995893,0.457,0.0042943985757293536,0.9223162673694563,0.005116073018501127,0.040088438927976186
0.7010000000000001,0.0013999999999994004,0.457,0.004282347687741854,0.9223162673694563,0.005057777518753009,0.040088438927976186
0.7020000000000001,-0.003999999999999068,1.457,0.004307531271380506,0.9257667209990971,0.005179601702596272,0.04051933993396638
0.7030000000000001,0.004399999999998879,-1.543,0.004203218463268564,0.9353707536716911,0.004674994300608728,0.04171871479431313
0.704,-0.0057,-0.5429999999991119,0.004191458160920707,0.9365062849278538,0.0046181044927150324,0.04186052268774794
0.705,-0.002,0.457,0.004211060646998236,0.9365062849278538,0.004712930427814624,0.04186052268774794
0.706,0.0042,1.457,0.004198111271917582,0.9482455360266103,0.0046502885467735264,0.04332654879648084
0.707,-0.0012,0.457,0.0040749588465567995,0.9493656679485606,0.004054545545175094,0.04346643358376324
0.708,0.0014,0.457,0.0040178898281706885,0.9365062849278537,0.0037784773458520407,0.041860522687747925
0.709,-0.0011,0.457,0.004013930292341085,0.9448771729380091,0.0037593233117097654,0.042905899456072344
0.71,0.0044,-0.543,0.003953893479132042,0.9448771729380149,0.003468898570152468,0.042905899456073066
0.711,-0.0006,-0.543,0.0040024191218919454,0.9793720419709313,0.0037036386655065617,0.0472137022446968
0.712,0.0016,-0.5429999999982237,0.004001749127548575,0.98045661376694,0.0037003976051701182,0.047349146197327864
0.713,0.0031,1.457,0.004091595565081929,0.9793720419709313,0.004135024744848778,0.0472137022446968
0.714,0.0017,-0.543,0.004158933473082377,0.9793720419709313,0.004460768125996356,0.0472137022446968
0.715,0.0032,0.457,0.004173406377875604,0.9793720419709312,0.0045307799972047905,0.04721370224469679
0.716,-0.0018,-0.543,0.004188456604204786,0.9712984846916819,0.004603584629203031,0.04620545685815899
0.717,0.0033,0.457,0.004167220979611373,0.972392061490313,0.0045008584774521776,0.04634202537732692
0.718,0.003,2.457,0.004161262683084093,0.972392061490313,0.004472035549708966,0.04634202537732692
0.719,-0.0042,0.457,0.00400419455124884,0.9723920614903131,0.0037122272061796643,0.046342025377326936
0.72,0.0024,-0.543,0.003999217587327499,0.9723920614903131,0.0036881514202853917,0.046342025377326936
0.721,0.005,-0.543,0.004038153764022288,0.9815399871448732,0.003876503007409774,0.04748444048860718
0.722,0.001,-1.543,0.004073010385001797,1.008486004716619,0.0040451199708766115,0.05084952442405
0.723,-0.004,-0.543,0.004021224476424288,1.0074316090059243,0.003794608521133849,0.05071784893403699
0.724,-0.0004,1.457,0.004047847277941035,1.0074316090059243,0.003923394841338928,0.05071784893403699
0.725,-0.0095,-1.543,0.004021576208902543,0.9963899196294805,0.0037963100074159175,0.04933893602262478
0.726,-0.0004,-0.543,0.003970455517399562,0.996389919629484,0.003549016508237529,0.04933893602262521
0.727,-0.0014,0.457,0.00398767472458699,1.004261779701465,0.0036323134643870473,0.05032199297342497
0.728,-0.0069,1.456999999999112,0.003962425504142201,0.9963899196294592,0.003510171766148198,0.04933893602262212
0.729,-0.0021,0.457,0.003945561291916537,1.008486004716598,0.0034285920783631006,0.05084952442404736
0.73,-0.0047,-0.543,0.003864426322352591,0.9963899196294591,0.0030361061800056738,0.049338936022622105
0.731,-0.0007,0.457,0.0039325712982282495,0.9963899196294556,0.0033657537070688756,0.04933893602262166
0.732,0.0077,-0.543,0.003920341401422969,0.9873795859871805,0.003306592262130437,0.04821370373507233
0.733,0.0001,0.457,0.0038609189243059396,0.9985209170113759,0.0030191393372172243,0.049605060136779816
0.734,-0.0046,-2.543,0.0038564090007383233,0.9985209170113759,0.002997322833033241,0.049605060136779816
0.735,-0.0039,0.457,0.0038181705689705634,0.9985209170113759,0.0028123465481488313,0.049605060136779816
0.736,-0.0017,-0.5429999999991119,0.0038006841304007266,0.9974559874120842,0.0027277568750640933,0.04947206914924659
0.737,-0.0009,0.457,0.0037811482360065192,1.0084860047165944,0.002633253073525311,0.050849524424046916
0.738,0.0012,-1.543,0.003771743431007718,1.0074316090058997,0.0025877578529235248,0.05071784893403391
0.739,-0.0002,0.457,0.003771092750244358,1.006376108589231,0.0025846102209551676,0.050586035485663386
0.74,-0.0028,-0.543,0.0037772039665724608,1.0183535838348339,0.0026141728897215804,0.05208181160281413
0.741,-0.0053,0.457,0.0037765787916549318,1.0443501793240526,0.00261114864086248,0.05532832940916718
0.742,-0.0042,0.457,0.0037910365320653915,1.0528730798007697,0.002681087155213502,0.05639268986247778
0.743,0.0023,1.457,0.0037927303672056893,1.049840462886654,0.002689280988406293,0.05601396931748921
0.744,-0.0003,-0.5429999999982237,0.0037472147116802417,1.0412927409710906,0.002469101538728274,0.05494650910277997
0.745,-0.001,1.457,0.003739049186797051,1.0412927409710906,0.002429601266693129,0.05494650910277997
0.746,-0.0061,-0.543,0.0038204762283424397,1.0412927409710906,0.0028235000470006903,0.05494650910277997
0.747,-0.001,-0.543,0.0038309149477878638,1.032674269692111,0.0028739967711784112,0.05387021353621805
0.748,0.0004,-0.543,0.003809050635749385,1.032674269692111,0.002768229378912047,0.05387021353621805
0.749,0.0008,-0.543,0.003801877039732733,1.0000197111202687,0.0027335275075465832,0.0497922331750569
0.75,-0.0007,-0.543,0.003799015158671628,1.001081913488646,0.0027196833172387948,0.049924883579388395
0.751,-0.0055,-1.543,0.0038406740298613296,1.0010819134886424,0.0029212057874057396,0.04992488357938795
0.752,0.0011,1.4569999999982237,0.0038498795363703397,1.0021429899964898,0.0029657369126584133,0.05005739338352973
0.753,0.0036,-0.543,0.003833944526584273,0.9931848505107838,0.0028886521899447438,0.04893867922866279
0.754,-0.0041,0.457,0.003809336017060455,0.9809000955826652,0.002769609895116733,0.047404529280552846
0.755,0.0024,-1.543,0.0037696711229200344,0.9798160146828941,0.0025777331779179248,0.04726914663223285
0.756,-0.002,-0.543,0.00376572270959335,0.9921141932252995,0.0025586329482643116,0.04880497295380585
0.757,0.002,0.457,0.0037421992662046463,0.9841451733200407,0.0024448396004576214,0.04780978244771308
0.758,-0.0016,1.457,0.0037479272628079016,0.985224490689384,0.0024725484651395148,0.047944570214816365
0.759,0.0034,-0.543,0.00374531218009753,0.9863026269554285,0.0024598981481137564,0.04807921048287916
0.76,0.0063,-2.542999999998224,0.0037441937585642993,0.9863026269554285,0.002454487846210995,0.04807921048287916
0.761,-0.0021,-0.543,0.003719223289166335,0.9863026269554285,0.0023336945906426627,0.04807921048287916
0.762,0.0091,0.457,0.003737998260145879,0.9863026269554285,0.0024245174675247834,0.04807921048287916
0.763,-0.0075,0.457,0.0037721141883514334,0.994254354865572,0.0025895513709331187,0.049072241522742116
0.764,0.0037,0.457,0.0037611278497960803,0.9863026269554395,0.0025364055697979105,0.04807921048288053
0.765,0.0054,-0.543,0.0037641857154279896,0.9863026269554395,0.0025511978245562035,0.04807921048288053
0.766,-0.0,-0.543,0.003751819607734142,0.9873795859871844,0.002491377467027393,0.04821370373507283
0.767,0.0047,-0.543,0.003750509900553436,0.9985209170113798,0.0024850418314541346,0.049605060136780295
0.768,-0.003,-0.543,0.0037581505557830104,1.0074316090059035,0.002522003075760208,0.05071784893403438
0.769,0.0006,-0.543,0.003746058481687451,1.0126926094572521,0.0024635083405072445,0.051374855412117955
0.77,0.0068,1.457,0.0037290009988416827,1.0137415331998396,0.002380993716857066,0.05150584754950106
0.771,0.0057,2.457,0.0037323770644646613,1.0126926094572521,0.0023973252463574753,0.051374855412117955
0.772,0.0064,0.457,0.003700239811704004,1.0663226630382876,0.002241863075257934,0.05807230639098582
0.773,0.0089,0.457,0.0037014566730885204,1.054889980964375,0.0022477495744609925,0.0566445653645609
0.774,0.0013,-0.543,0.003707476538374259,1.0623284436411244,0.002276870337645623,0.057573498598990566
0.775,0.0005,0.457,0.0037437369466599654,1.065325512143609,0.0024522780440551987,0.05794777977223923
0.776,-0.0039,1.4569999999982237,0.003621583035954688,1.0653255121436092,0.00186136530151393,0.057947779772239257
0.777,-0.0017,-0.543,0.0037288420329199315,1.064327427035036,0.0023802247280604715,0.05782313648659894
0.778,0.0005,-1.543,0.0037744525193314496,1.065325512143609,0.0026008629168704756,0.05794777977223923
0.779,-0.0046,0.457,0.0037112088737755937,1.0653255121436207,0.002294925302364744,0.0579477797722407
0.78,-0.0075,0.457,0.0037491064374375774,1.0736819230754262,0.0024782526567641116,0.05899134860795847
0.781,-0.0003,0.457,0.003862671491706364,1.10319718169917,0.0030276172844486623,0.06267728558846956
0.782,0.0004,-1.543,0.003910129368283912,1.10319718169917,0.0032571921203397945,0.06267728558846956
0.783,-0.0003,0.457,0.003956909234859087,1.1022333903597588,0.0034834871205903007,0.06255692499177895
0.784,0.0018,0.457,0.004104607157703146,1.1022333903597588,0.004197967599778604,0.06255692499177895
0.785,-0.0033,0.457,0.004149315022509198,1.080007475568515,0.0044142394068224945,0.05978129892327381
0.786,0.0017,-1.543,0.004162576066710311,1.080007475568515,0.004478388969882714,0.05978129892327381
0.787,-0.0023,0.457,0.004167349548406037,1.0800074755685198,0.0045014804218387406,0.05978129892327441
0.788,0.0013,0.457,0.004166719125330845,1.0800074755685167,0.004498430785309119,0.05978129892327403
0.789,-0.0023,-1.543,0.004168372767968955,1.0697151828402067,0.004506430189510156,0.05849597248025906
0.79,-0.0002,2.457,0.004197176670173843,1.0954631087484465,0.004645767462868901,0.06171143582708178
0.791,-0.0067,1.457,0.004188902774923305,1.0944925069381646,0.004605742955214857,0.0615902247222944
0.792,0.0052,1.456999999999112,0.004175452435179214,1.1196707989287484,0.004540677685503857,0.06473455080587279
0.793,-0.0028,0.457,0.0042267615613365795,1.1206195932870195,0.004788882726832384,0.06485303854323717
0.794,-0.0013,-0.543,0.004236511583009437,1.1135705737082007,0.004836047913876175,0.06397273990607687
0.795,-0.0079,-0.543,0.004242586014665271,1.1135705737082102,0.004865432638838349,0.06397273990607806
0.796,0.0034,0.457,0.004362070873632201,1.1055157156340423,0.005443433992185565,0.06296682972155879
0.797,0.0019,0.457,0.004319391763895666,1.1055157156340423,0.005236976174846556,0.06296682972155879
0.798,0.003,0.457,0.00433397945351279,1.1126157682433782,0.005307543311250343,0.06385350148716794
0.799,-0.0006,-0.543,0.004341059423650842,1.1126157682433782,0.005341792272640378,0.06385350148716794
0.8,-0.0061,0.45699999999911184,0.004348006049642775,1.1116601426959498,0.0053753961891470315,0.06373416065435701
0.801,0.003,-0.543,0.004376261574218173,1.110703694949178,0.0055120807162521435,0.06361471714330078
0.802,0.0019,0.457,0.0043599926710756465,1.0997324893826275,0.005433380803014954,0.06224460642077415
0.803,0.0008,0.457,0.004388166332114139,1.0915755233096716,0.0055696693198177515,0.0612259447420689
0.804,0.0015,0.457,0.004416829369889126,1.0906014616732151,0.005708325169338988,0.06110430156580943
0.805,-0.001,-1.5429999999991117,0.004451481737704817,1.0915755233096682,0.005875954069496942,0.06122594474206848
0.806,-0.0003,-0.543,0.0044878017075421755,1.110703694949197,0.006051649901596754,0.06361471714330316
0.807,-0.0024,-0.543,0.004516857219264725,1.110703694949197,0.006192204321989699,0.06361471714330316
0.808,-0.0002,-0.543,0.004516318772186183,1.110703694949197,0.006189599614223426,0.06361471714330316
0.809,-0.0006,0.457,0.00452093885176867,1.110703694949197,0.006211948991996791,0.06361471714330316
0.81,0.0009,-0.543,0.004508150611355479,1.110703694949197,0.006150086590938933,0.06361471714330316
0.811,-0.0038,-0.543,0.004464158731095527,1.0804100949726556,0.005937278319276844,0.05983157900957464
0.812,0.0053,1.457,0.004469271835646555,1.0794259578284189,0.00596201267788807,0.059708677579501504
0.8130000000000001,-0.001200000000000122,-0.543,0.004380015521874019,1.0794259578284189,0.005530240229049275,0.059708677579501504
0.8140000000000001,-0.0022999999999996335,-0.543,0.004317535280327461,1.0804100949726556,0.00522799553893865,0.05983157900957464
0.8150000000000001,0.0009999999999997225,-0.543,0.0043532218563893015,1.081393336489478,0.005400627363911396,0.05995436859152716
0.8160000000000001,-0.0015000000000002886,-1.543,0.004320408354933712,1.081393336489478,0.005241893877397922,0.05995436859152716
0.8170000000000001,-0.004099999999999545,1.457,0.00435768511885986,1.081393336489478,0.005422218147636058,0.05995436859152716
0.8180000000000001,-2.442490654175342e-16,-2.543,0.0043343525441127155,1.0886507238016239,0.005309348116256957,0.06086068869587517
0.8190000000000001,-0.0022000000000000778,-0.543,0.004357478492808501,1.087674042877174,0.005421218605615797,0.06073871841658739
0.8200000000000001,-0.0028999999999995557,0.457,0.004357220635303973,1.0866964841499,0.005419971234292964,0.060616638515156945
0.8210000000000001,0.0010999999999997225,3.4569999999973353,0.004305010937874218,1.0784409226048393,0.005167409729570437,0.05958566399510494
0.8220000000000001,-0.001399999999999345,0.457,0.004274782781088018,1.0532860713993353,0.005021182703965029,0.05644426525353902
0.8230000000000001,0.004500000000000078,1.457,0.004264844055775977,1.0532860713993353,0.00497310467357211,0.05644426525353902
0.8240000000000001,0.005199999999999445,-1.543,0.0041709677060282726,1.0532860713993353,0.004518983057907924,0.05644426525353902
0.8250000000000001,0.0001999999999989897,-1.543,0.004248543712181485,1.0522765669341987,0.004894252668898878,0.056318195890994294
0.8260000000000001,-0.008899999999998345,0.457,0.004251585579882296,1.0522765669341987,0.004908967534556113,0.056318195890994294
0.8270000000000001,0.005999999999999367,-0.543,0.004241825835859758,1.0447665399929873,0.004861755316187001,0.055380325537895736
0.8280000000000001,0.0003000000000005995,1.457,0.004313534952019658,1.0553021832508036,0.005208644173454066,0.05669604218441082
0.8290000000000001,0.005700000000000522,1.4569999999964474,0.004373115558856578,1.0447665399929735,0.005496862042083924,0.055380325537894015
0.8300000000000001,0.010399999999999522,-2.543,0.00436396222781391,1.0457832939829896,0.005452583312744993,0.05550730023866346
0.8310000000000001,0.0061000000000004115,0.457,0.004299522808379524,1.0573144507401564,0.005140861208672438,0.056947339022030904
0.8320000000000001,0.009800000000000121,0.457,0.0043372086972147264,1.0573144507401564,0.005323164597881513,0.056947339022030904
0.833,0.0109,0.457,0.004341564939261803,1.0467990604022033,0.005344237676265571,0.055634151609199274
0.834,0.0076,1.457,0.004349934203357218,1.0467990604022035,0.005384723525397377,0.0556341516091993
0.835,0.0051,0.457,0.004346171581699023,1.0478138421227117,0.005366522052596777,0.05576088000817592
0.836,0.0026,-0.543,0.004338744518665746,1.0478138421227117,0.005330594048649285,0.05576088000817592
0.837,0.0005,0.45699999999911184,0.004335364326360963,1.0361769626728405,0.005314242556555386,0.0543076383188917
0.838,-0.0017,-0.543,0.004329870585040051,1.0361769626728405,0.005287666888760476,0.0543076383188917
0.839,0.0049,2.457,0.00433303323361949,1.0478138421227117,0.005302966025194018,0.05576088000817592
0.84,0.0009,0.457,0.004327264941585709,1.0361769626728405,0.005275062233610263,0.0543076383188917
0.841,-0.0041,2.457,0.004328185964154457,1.0099700107572411,0.0052795176290118435,0.05103485069254592
0.842,-0.0078,-0.543,0.00429316769079516,1.0021429899964513,0.005110118681157219,0.05005739338352493
0.843,-0.0037,-0.543,0.004270516551510878,0.9931848505107574,0.0050005450558931585,0.04893867922865951
0.844,-0.0023,-0.543,0.0042644576535868966,0.9931848505107574,0.004971235474494036,0.04893867922865951
0.845,-0.0102,0.45699999999911184,0.004319809073207509,0.9921141932252822,0.005238994885410345,0.048804972953803684
0.846,-0.0001,-0.543,0.004343840695588868,1.0032029442162116,0.005355246520802903,0.0501897630336123
0.847,-0.0037,1.457,0.004338289325090948,1.0032029442162118,0.005328392075072522,0.05018976303361233
0.848,0.0025,-0.543,0.004384223520291425,1.0032029442162118,0.005550596187127752,0.05018976303361233
0.849,-0.0026,0.457,0.004373957050428812,1.0120724146023607,0.00550093271071748,0.05129740397657716
0.85,0.005,0.457,0.004398611935788309,1.0110217591694204,0.005620199346068776,0.05116619558150877
0.851,-0.004,0.457,0.004356824712418066,1.0198232310694895,0.005418055979374024,0.0522653447088451
0.852,-0.0051,0.457,0.004349028724770846,1.018780568986268,0.005380343323145184,0.05213513454264884
0.853,-0.0062,0.45699999999911184,0.004418083121372689,1.0198232310694861,0.005714390122342459,0.05226534470884468
0.854,-0.0069,-0.543,0.004455411790194894,1.0518631789753246,0.005894965479625644,0.05626657100149777
0.855,-0.0062,-2.543,0.004453414027434656,1.0633284050819491,0.005885301413491509,0.057698376205546784
0.856,-0.0055,-0.543,0.0045099627677197595,1.051863178975338,0.006158852796465616,0.056266571001499455
0.857,-0.0019,0.457,0.0045103952494200015,1.051863178975338,0.006160944902613618,0.056266571001499455
0.858,-0.0026,1.457,0.004532714197856713,1.050852307605156,0.006268911573146128,0.0561403309365421
0.859,0.0003,-0.543,0.004541864231008356,1.050852307605156,0.006313174349120826,0.0561403309365421
0.86,0.0006,0.457,0.004555632693842148,1.0508523076051526,0.0063797785215678575,0.05614033093654169
0.861,-0.003,0.457,0.004577016384420648,1.0508523076051526,0.006483220934278507,0.05614033093654169
0.862,0.002,0.457,0.004584329968795784,1.0498404628866478,0.006518599991534771,0.05601396931748844
0.863,0.0013,-0.543,0.004572888517903348,1.0412927409710846,0.006463252609805725,0.05494650910277922
0.864,-0.0067,-0.543,0.004572256380975266,1.0412927409710846,0.006460194682608164,0.05494650910277922
0.865,0.0009,-0.543,0.004602119687484034,1.0412927409710846,0.006604656765308264,0.05494650910277922
0.866,-0.0057,-0.543,0.004603173305248902,1.0412927409710844,0.006609753582589297,0.05494650910277919
0.867,-0.0014,1.457,0.004719340026422628,1.030613893518834,0.007171703629087705,0.05361290876963416
0.868,-0.0054,0.457,0.00470509601106684,1.0219053637196875,0.007102798997790257,0.05252536647695933
0.869,-0.0004,0.457,0.004718753938414834,0.9899694048954347,0.00716886846097842,0.04853712659266783
0.87,-0.0011,0.457,0.004714714764647948,1.0010819134886235,0.007149329182748109,0.04992488357938559
0.871,-0.0026,-0.543,0.004718769651259474,1.0010819134886235,0.007168944470989608,0.04992488357938559
0.872,0.0057,0.457,0.004719215386086943,0.9426249106454242,0.00717110068840275,0.04262463148617656
0.873,-0.0005,0.457,0.0047233391824476586,0.9437517136696054,0.007191049323719644,0.04276534937686244
0.874,-0.0082,0.457,0.004702993619946125,0.9342338422147529,0.007092628797787135,0.041576734538062765
0.875,-0.0017,0.457,0.004705252216339522,0.9223162673694512,0.0071035546321006685,0.04008843892797555
0.876,0.0026,-0.543,0.00471420891835594,0.9102426721316044,0.007146882179471757,0.03858065911339849
0.877,0.008,-1.5429999999991117,0.00469638295675266,0.9102426721316043,0.007060650082614507,0.038580659113398474
0.878,0.0072,-0.543,0.004657776351752373,0.9102426721316043,0.006873892780214512,0.038580659113398474
0.879,0.0036,-0.543,0.004658565104545129,0.9015502603512071,0.006877708327938396,0.0374951296779416
0.88,-0.0005,-1.543,0.004628232825953543,0.8915819910835184,0.006730977618896055,0.036250268069447734
0.881,0.0057,0.457,0.004521554282370895,0.8535465553614455,0.006214926103273088,0.03150031073771493
0.882,-0.002,-0.543,0.0045172792737050126,0.8639537877018459,0.006194245986848171,0.03279999111786222
0.883,0.0027,0.457,0.004438674294556152,0.8651830570286205,0.005813998776275276,0.03295350524858109
0.884,0.0001,-0.543,0.00434119823074649,0.8651830570286205,0.005342463744237969,0.03295350524858109
0.885,-0.0021,0.457,0.004281911527085423,0.8560332189462247,0.005055667615859259,0.03181085130868098
0.886,0.0,0.457,0.004251688790061977,0.8560332189462247,0.004909466808054448,0.03181085130868098
0.887,-0.0007,0.457,0.004254873536227642,0.8547907913954221,0.004924872840331153,0.03165569394707734
0.888,0.0021,-1.543,0.004261259446764262,0.8547907913954264,0.004955764327038618,0.031655693947077866
0.889,-0.0005,0.457,0.004269096632993889,0.85479079139542,0.004993676279116266,0.031655693947077075
0.89,0.0009,-0.543,0.0042738840557586056,0.8215342030764479,0.0050168351702174156,0.027502530653026807
0.891,0.0038,-0.543,0.004279029567582351,0.8215342030764479,0.005041726297206252,0.027502530653026807
0.892,-0.0028,0.457,0.004286282892535807,0.8021351172742324,0.005076813852864874,0.025079925835023543
0.893,0.0016,0.457,0.004313916436841013,0.8021351172742324,0.005210489585039525,0.025079925835023543
0.894,0.007,0.457,0.0043015357300764615,0.8021351172742325,0.005150598605318936,0.025079925835023557
0.895,0.0091,-1.543,0.004303235467872222,0.8008090730502019,0.005158820992278917,0.02491432622075436
0.896,0.0026,0.457,0.004183549414302579,0.8348916227328458,0.004579846371241891,0.029170637570311818
0.897,0.0066,0.457,0.00418886970830619,0.8336176862473915,0.004605582997295434,0.029011545296636777
0.898,-0.0003,1.457,0.004174296025629937,0.8241174652890815,0.004535083618688319,0.02782513469459341
0.899,-0.0047,0.457,0.004201733457305752,0.8228268479513035,0.004667810666936185,0.027663959275680498
0.9,-0.0007,1.457,0.0042190453339998315,0.8336176862473915,0.004751555906665073,0.029011545296636777
0.901,0.0015,0.45699999999911184,0.004233522811556894,0.8336176862473916,0.004821589898363987,0.02901154529663679
0.902,0.008,-0.543,0.00423282032284323,0.8442706153476097,0.004818191648320264,0.030341908883207872
0.903,0.0058,-2.543,0.004205621061074081,0.8547907913954201,0.004686616733736613,0.03165569394707709
0.904,0.0007,-1.543,0.0041601390923379266,0.8651830570286224,0.0044666002420264035,0.03295350524858132
0.905,-0.0072,0.457,0.004192146001922081,0.8639537877018437,0.004621431885266018,0.03279999111786194
0.906,-0.0007,-0.543,0.004146516231691327,0.825932804478861,0.004400700412054019,0.028051838649218303
0.907,-0.0051,0.457,0.004113108404467626,0.824645028257185,0.004239091907724332,0.027891018035765172
0.908,-0.0029,-0.543,0.004167769220937711,0.824645028257185,0.004503510564346901,0.027891018035765172
0.909,-0.0036,0.45699999999911184,0.004166575297424697,0.8137352133921184,0.004497735025820251,0.026528573932723187
0.91,0.0045,-0.543,0.004169874747275984,0.812428103052383,0.004513695930790417,0.026365338827781117
0.911,-0.0046,0.457,0.0042080397288261975,0.8137352133921184,0.004698316904336534,0.026528573932723187
0.912,0.0042,0.457,0.004199170917189866,0.8137352133921184,0.004655414521786123,0.026528573932723187
0.913,0.0009,-0.543,0.004198703570950943,0.8137352133921184,0.0046531537603732125,0.026528573932723187
0.914,0.0057,-0.543,0.004198402906065496,0.812428103052383,0.004651699310728338,0.026365338827781117
0.915,0.0014,-0.543,0.004206657032178195,0.812428103052383,0.004691628186278663,0.026365338827781117
0.916,0.0105,-0.543,0.004205869685462131,0.8220634238665819,0.004687819440372502,0.027568621027028856
0.917,0.0018,0.45699999999911184,0.00417246085100159,0.8354123818475943,0.004526206063590676,0.02923567122979822
0.918,-0.0036,-0.543,0.004196416799635171,0.824645028257185,0.004642091631441234,0.027891018035765172
0.919,-0.001,-1.543,0.004162433284616315,0.8577810168447699,0.004477698269451906,0.032029120543276966
0.92,-0.0035,0.457,0.004184532525451348,0.8577810168447698,0.004584602116692754,0.03202912054327695
0.921,-0.0013,0.457,0.004215163002687286,0.8577810168447739,0.004732775345075972,0.032029120543277466
0.922,0.0024,-0.543,0.004358603470632388,0.8669124079681917,0.00542666062320961,0.03316947078226335
0.923,-0.0011,0.457,0.004352332781270724,0.8669124079681916,0.005396326512521451,0.03316947078226334
0.924,0.0054,-0.543,0.00435533053375285,0.8681374879442952,0.00541082797326426,0.033322461736724145
0.925,0.0029,-0.5429999999991119,0.004304662241761647,0.8681374879442952,0.0051657229315383215,0.033322461736724145
0.926,-0.0079,0.457,0.004330173370520837,0.8693608415722751,0.005289131596667247,0.03347523710065018
0.927,-0.0002,-0.543,0.004322482815178568,0.8693608415722751,0.005251928963344028,0.03347523710065018
0.928,0.0009,-0.543,0.004248965593803752,0.856541124508485,0.004896293497759798,0.03187427978540238
0.929,0.0021,0.457,0.00423764505497206,0.856541124508485,0.004841531021393241,0.03187427978540238
0.93,-0.0033,0.4570000000008882,0.004231576289218149,0.8565411245084851,0.004812173704916194,0.031874279785402394
0.931,-0.0058,1.457,0.00423475874433562,0.84352659892219,0.004827568654374803,0.030248994310053623
0.932,-0.0051,-0.543,0.004255905031074453,0.8447855929016901,0.0049298626392276996,0.030406220527395566
0.933,-0.0058,0.457,0.004255449723423109,0.8435265989221898,0.004927660113812,0.03024899431005361
0.934,0.0026,-0.543,0.004250247663138224,0.8577810168447906,0.004902495436790542,0.03202912054327955
0.935,-0.0006,0.457,0.004267076436014403,0.8577810168447906,0.004983903688695467,0.03202912054327955
0.936,-0.0031,0.457,0.004293721638619526,0.8590191195452556,0.005112798372918462,0.032183737807098586
0.937,-0.0024,0.457,0.004383220326992992,0.8602554403369492,0.0055457432953958915,0.032338132541834624
0.9380000000000001,-0.0030999999999990675,-0.5429999999991119,0.004384572059462887,0.8602554403369492,0.0055522822259659885,0.032338132541834624
0.9390000000000001,0.005299999999999156,0.457,0.004379575205799632,0.8460427133775648,0.005528110224552498,0.03056321277706729
0.9400000000000001,-0.0023000000000002775,0.457,0.004380057109102088,0.8460427133775646,0.0055304414049498355,0.030563212777067274
0.9410000000000001,-0.004800000000000488,-1.543,0.0044229526537163085,0.8447855929016836,0.005737946213960384,0.030406220527394764
0.9420000000000001,-0.009199999999998789,-0.543,0.004406585623777166,0.8447855929016836,0.005658771617807437,0.030406220527394764
0.9430000000000001,0.0016999999999995224,-0.543,0.004436002970533341,0.8460427133775648,0.00580107639503163,0.03056321277706729
0.9440000000000001,-0.0025999999999998776,0.457,0.00443677493058805,0.8460427133775648,0.005804810708820087,0.03056321277706729
0.9450000000000001,-0.0014999999999996004,2.457,0.004428784850498062,0.8472979686888759,0.005766159141204777,0.03071997210047103
0.9460000000000001,0.0020999999999996334,0.45699999999911184,0.004335453614956807,0.8341392406902294,0.005314674485166949,0.029076678278621204
0.9470000000000001,-0.0011999999999992672,-0.543,0.004329800162266442,0.835412381847609,0.005287326222513686,0.029235671229800062
0.9480000000000001,0.005399999999999912,0.457,0.004279563674722265,0.8366835857295865,0.005044310010761023,0.02939442224933477
0.9490000000000001,0.0046000000000001665,1.457,0.004282138498113779,0.8272185759515827,0.005056765575573104,0.028212408904766687
0.9500000000000001,0.006099999999999756,0.457,0.0042869957070905745,0.8272185759515827,0.0050802620535900815,0.028212408904766687
0.9510000000000001,0.0038999999999997557,1.457,0.004307835007351306,0.8163431553485258,0.0051810710084455695,0.026854260040464602
0.9520000000000001,0.0016999999999997557,1.457,0.0043057285933170136,0.81634315534853,0.005170881347821981,0.02685426004046513
0.9530000000000001,-0.0004999999999989898,1.457,0.0043658965045674,0.81634315534853,0.005461940268855849,0.02685426004046513
0.9540000000000001,0.00859999999999899,0.45699999999911184,0.004345596324737018,0.7759929107371717,0.005363739279068512,0.021815223768357764
0.9550000000000001,-0.0005000000000001221,-0.543,0.004383389206865347,0.761603192370755,0.005546560242376606,0.020018200888021323
0.9560000000000001,-0.0016000000000005996,0.457,0.004336726417454455,0.7629973771346454,0.0053208315963904525,0.02019231005793911
0.9570000000000001,-0.006999999999999489,0.457,0.004338400974373903,0.8040000915947674,0.0053289321722631315,0.025312828344989474
0.9580000000000001,-0.002399999999999922,0.457,0.004318298301299657,0.8150402274730808,0.005231686610413101,0.026691547251792715
0.9590000000000001,-0.001700000000000444,0.457,0.004312442675176793,0.813735213392138,0.00520336034503543,0.02652857393272563
0.96,-0.0057,-0.543,0.0043198338053946055,0.8246450282572085,0.005239114525988547,0.02789101803576811
0.961,0.0012,0.457,0.0043087627379312645,0.8233552378799344,0.005185558853477937,0.02772994588968575
0.962,0.0019,0.457,0.004291486379796829,0.8565411245084951,0.005101985432803953,0.031874279785403636
0.963,0.0012,0.457,0.004282642459249259,0.856541124508495,0.0050592034595097,0.03187427978540362
0.964,-0.0072,-0.543,0.004283051731257134,0.8656855943148362,0.0050611832900629965,0.0330162633219885
0.965,0.0004,1.457,0.004285764991543367,0.8656855943148362,0.005074308535646285,0.0330162633219885
0.966,-0.0021,-1.543,0.004296225220914464,0.8656855943148362,0.005124909312891959,0.0330162633219885
0.967,-0.0047,0.457,0.00420194186013706,0.8656855943148363,0.004668818804030532,0.033016263321988516
0.968,-0.0008,2.457,0.0042452240899081605,0.8669124079682221,0.004878194180960132,0.03316947078226715
0.969,0.0043,0.457,0.004267106907352981,0.8656855943148403,0.0049840510920994485,0.033016263321989016
0.97,-0.0052,0.4570000000008882,0.004266887164413479,0.8515635022910459,0.004982988097863036,0.03125266226748869
0.971,-0.0114,1.457,0.004255665229049732,0.8515635022910458,0.004928702610283258,0.03125266226748868
0.972,0.0052,0.457,0.004270546647130562,0.8528106315702302,0.005000690641777911,0.031408406792319835
0.973,-0.0017,-0.543,0.004275072124621642,0.8528106315702304,0.005022582387200741,0.03140840679231986
0.974,0.0048,0.457,0.004332061722470884,0.8540559397394518,0.005298266394098153,0.03156392389252827
0.975,-0.005,-0.543,0.004302826798206011,0.8528106315702304,0.005156844075519888,0.03140840679231986
0.976,0.0004,-0.543,0.004304226746521815,0.8619946772162691,0.005163616247560322,0.03255533265561566
0.977,-0.0011,-0.543,0.004231346790316161,0.861994677216265,0.0048110635167543814,0.032555332655615145
0.978,0.0065,-0.543,0.0042320382051178294,0.861994677216265,0.00481440819736533,0.032555332655615145
0.979,0.0028,-0.543,0.004262738527179522,0.861994677216265,0.0049629192962047635,0.032555332655615145
0.98,0.0017,-0.543,0.004280050615634864,0.8632267363990738,0.005046665560316972,0.032709195190312366
0.981,0.0071,-0.543,0.0042976259029108834,0.8644570396030169,0.0051316850340715255,0.032862838434116005
0.982,-0.0019,0.457,0.004260817748446156,0.855299434753267,0.004953627636014804,0.031719214561498225
0.983,0.0017,-1.543,0.004245729394984067,0.855299434753267,0.004880638566133723,0.031719214561498225
0.984,-0.0038,-0.543,0.0042281454937345316,0.855299434753267,0.004795577422761838,0.031719214561498225
0.985,0.0052,-0.543,0.004235500143638,0.8644570396030026,0.0048311551322252275,0.032862838434114215
0.986,0.0088,-0.5429999999991119,0.004256741360436283,0.8644570396030026,0.004933908335955814,0.032862838434114215
0.987,-0.0013,0.457,0.004258430318004065,0.8644570396030026,0.004942078574163101,0.032862838434114215
0.988,-0.0003,0.457,0.0042539952895914316,0.8747344731026463,0.00492062437112182,0.03414630922066548
0.989,0.0008,0.457,0.0042614731594078185,0.8735186452212408,0.004956798150054113,0.03399447369019841
0.99,0.0062,0.457,0.004230935394943743,0.8747344731026524,0.004809073414543322,0.03414630922066624
0.991,-0.0003,-0.543,0.004239952006856553,0.8747344731026524,0.004852690772702927,0.03414630922066624
0.992,0.0058,-0.543,0.0042151196106853805,0.8607608545142656,0.0047325654386824526,0.03240124988837031
0.993,0.0018,0.457,0.0041238926248115355,0.8698609652663366,0.004291259973263912,0.033537693758823865
0.994,-0.0065,-0.543,0.004120436394344077,0.8788668551743415,0.004274540650791232,0.03466237110207516
0.995,0.0011,-0.543,0.00414365517428882,0.8788668551743415,0.004386860206148843,0.03466237110207516
0.996,-0.0014,-0.543,0.0041512125536905505,0.8478111073695048,0.004423418608273816,0.03078405410168851
0.997,-0.0007,-0.543,0.00415329131813512,0.8490637482922798,0.004433474515546415,0.030940486933920028
0.998,0.0015,-0.543,0.004151593110359016,0.8490637482922798,0.004425259529971343,0.030940486933920028
0.999,0.0051,0.457,0.004123672254735863,0.8503145438890005,0.004290193945291185,0.031096689317364652
1.0,-0.0043,0.457,0.004101693686860474,0.839738291632686,0.004183873846774566,0.029775901320765383
1.0010000000000001,-0.0007000000000022427,0.457,0.004060400604427791,0.8397382916326901,0.0039841208593556785,0.029775901320765897
1.002,-0.0108,-0.543,0.004045459715556346,0.8397382916326902,0.003911845141222256,0.02977590132076591
1.0030000000000001,0.003999999999997824,-0.543,0.0041432804906747995,0.8290271245979903,0.0043850476950252305,0.02843826483988916
1.004,-0.0058,-0.543,0.0041457529503753825,0.8194736866362812,0.004397008081181178,0.027245208369574014
1.0050000000000001,0.0032999999999989565,-0.543,0.004133705267094455,0.830308104383091,0.004338728084022692,0.028598236697882348
1.006,-0.0014,-2.543,0.004137839097472515,0.8290271245979947,0.004358725258339884,0.0284382648398897
1.0070000000000001,0.0028999999999997556,1.457,0.004135590110001216,0.8290271245979947,0.004347845906652056,0.0284382648398897
1.008,0.0018,0.457,0.004089566139434569,0.8290271245979945,0.004125207511260912,0.028438264839889687
1.0090000000000001,-0.004399999999999756,1.457,0.004092789712839498,0.8619946772162156,0.00414080136814598,0.032555332655608976
1.01,-0.0033,0.4570000000017764,0.004172444899547933,0.8619946772162156,0.004526128899321652,0.032555332655608976
1.0110000000000001,-0.0025000000000001553,2.457,0.004159993219986476,0.8619946772162156,0.0044658945926471984,0.032555332655608976
1.012,-0.0032,0.457,0.00416566070788595,0.8937469853258482,0.0044933107498431645,0.03652063779387147
1.0130000000000001,-0.0010999999999984458,1.457,0.004211538088209322,0.8937469853258482,0.004715240023093366,0.03652063779387147
1.014,0.0059,-0.543,0.004210395408171646,0.9036913736967778,0.00470971237202586,0.03776251709814045
1.0150000000000001,0.0033000000000004883,-0.543,0.004148591203921648,0.9036913736967778,0.004410737974701311,0.03776251709814045
1.016,0.0055,-0.543,0.0041942791732900685,0.8949353321128937,0.004631750983001735,0.03666904141871787
1.0170000000000001,0.006299999999999845,-0.543,0.004189820888681957,0.8824872088472401,0.004610184279409538,0.035114489636951594
1.018,0.0056,0.457,0.004185788269175191,0.8925570563801338,0.004590676707047667,0.03637203658521864
1.0190000000000001,-0.0008999999999994449,0.457,0.004185788269175191,0.8710818984337767,0.004590676707047667,0.03369016684977553
1.02,0.0016,0.457,0.004245681575041184,0.8812820768028642,0.004880407239822236,0.034963989828517235
1.0210000000000001,-0.003799999999998468,-0.543,0.00421734719647036,0.8913655389395191,0.004743341260904173,0.03622323700147545
1.022,0.0031,-0.543,0.004070420974993715,0.8812820768028602,0.004032593844118941,0.034963989828516735
1.0230000000000001,-0.0070999999999979795,-0.543,0.004055823667016101,0.8812820768028602,0.003961980179431752,0.034963989828516735
1.024,0.002,0.457,0.004054435481005659,0.890172426625267,0.003955264906888682,0.03607423824604976
1.025,0.0031,1.457,0.0040278330962393765,0.8901724266252669,0.003826577351577339,0.036074238246049745
1.026,-0.0001,0.45699999999911184,0.004011163782753467,0.890172426625267,0.0037459404755954932,0.03607423824604976
1.027,-0.0008,-0.543,0.004011008035638813,0.8989748602457526,0.0037451870575990354,0.03717350747536091
1.028,-0.0052,-0.543,0.004014456753590232,0.8977918603266836,0.00376187003869361,0.037025771580337104
1.029,-0.0044,-0.543,0.003975952321102403,0.8977918603266836,0.003575606990134532,0.037025771580337104
1.03,-0.0051,-0.543,0.00396784594191455,0.9065203112444868,0.003536392832107853,0.03811580167055714
1.031,0.0014,-0.543,0.0039644803995081,0.9151655177773883,0.003520112208081555,0.03919543600037945
1.032,0.0036,-0.543,0.003925039812733778,0.9140034737591166,0.0033293205652787147,0.03905031712900071
1.033,0.0043,0.457,0.0039397262887674615,0.9140034737591166,0.0034003655754730193,0.03905031712900071
1.034,0.0036,1.456999999999112,0.004006590750895639,0.9105084433373823,0.003723818688570946,0.038613849265252485
1.035,-0.0043,0.457,0.003997192916136242,0.9105084433373823,0.0036783571861142323,0.038613849265252485
1.036,0.0033,0.457,0.004011458383104534,0.9093404480741194,0.003747365588392927,0.0384679871879858
1.037,-0.0014,1.457,0.003922176184957319,0.9081709506577647,0.0033154679253326437,0.03832193751820292
1.038,-0.004,0.457,0.003962918217033067,0.9081709506577608,0.003512555237327679,0.03832193751820243
1.039,0.0015,-0.543,0.00396341039190551,0.9093404480741214,0.0035149361058729933,0.03846798718798605
1.04,-0.0036,0.457,0.003979009167652202,0.9225785604888561,0.0035903943151398524,0.040121194727979634
1.041,-0.0014,0.457,0.003934277157458683,0.9225785604888561,0.0033740057061282993,0.040121194727979634
1.042,-0.0029,1.457,0.003935675168410787,0.9511963391532902,0.0033807685062796867,0.04369505223754801
1.043,-0.0003,1.457,0.003906378112914737,0.9594390683355432,0.0032390456313295475,0.044724424221053626
1.044,-0.0051,0.457,0.003906734634442263,0.959439068335543,0.0032407702843708546,0.04472442422105361
1.045,0.0029,-0.543,0.0038913779891602165,0.9594390683355432,0.0031664833677469448,0.044724424221053626
1.046,-0.0025,-0.543,0.003922918597293005,0.9583307106440615,0.0033190593036752924,0.04458600982818838
1.047,0.0,-0.543,0.004033632159898971,0.9572210695960097,0.0038546299991878636,0.044447435166646475
1.048,-0.0025,-0.543,0.004046423829740223,0.9654123607601484,0.003916508989913045,0.04547038344587123
1.049,-0.0018,0.457,0.004045340344563216,0.9654123607601484,0.003911267690688555,0.04547038344587123
1.05,0.0019,0.4570000000008882,0.004014183003553065,0.9746258007171059,0.003760545788128898,0.04662098014190523
1.051,-0.0018,1.457,0.003992985268289999,0.9746258007171059,0.00365800292390424,0.04662098014190523
1.052,0.0091,0.457,0.004001429376065652,0.974625800717106,0.0036988508251725332,0.046620980141905244
1.053,0.0015,-0.543,0.0038551017751950545,0.974625800717106,0.0029909992022429284,0.046620980141905244
1.054,0.008,1.457,0.0038435730496887916,0.9735347330929888,0.002935229634428208,0.046484724974527616
1.055,0.0019,0.457,0.003807398117214309,0.9724424413061237,0.0027602354124968576,0.046348316930741214
1.056,0.0008,0.457,0.0038403187015540554,0.9724424413061237,0.0029194869065009726,0.046348316930741214
1.057,0.0033,0.457,0.003891012143896616,0.9388254107571694,0.0031647136116514448,0.04215014073804874
1.058,-0.0029,2.4569999999982235,0.003912338753245649,0.9292570832489742,0.003267879897092346,0.040955224825107134
1.059,-0.0083,0.457,0.003923890247715464,0.9388254107571695,0.0033237596085006677,0.04215014073804876
1.06,-0.0047,-0.543,0.00391886029680143,0.9304000761250043,0.003299427500979111,0.04109796454370242
1.061,-0.0025,2.457,0.003913609463301815,0.9304000761249968,0.003274026886246672,0.04109796454370148
1.062,-0.0065,0.457,0.003905705082646824,0.9011220928977766,0.003235789884877146,0.037441659089370125
1.063,0.0007,1.4569999999982237,0.003928757179116223,0.9023007265837105,0.0033473031182023084,0.03758884971862537
1.064,-0.0,-0.543,0.003971139213087581,0.893531057637919,0.0035523238480659335,0.03649367222124341
1.065,-0.0062,-0.543,0.003964003415038502,0.8923408407545376,0.0035178048222643315,0.03634503505423736
1.066,-0.0008,-0.543,0.003951705877615782,0.8923408407545376,0.0034583161696046896,0.03634503505423736
1.067,0.0043,1.457,0.003919319296294001,0.8911490342212642,0.0033016478854712146,0.0361961993679028
1.068,-0.0008,1.457,0.0038823088870661568,0.8911490342212642,0.0031226120912577504,0.0361961993679028
1.069,0.0083,1.457,0.0038478931875320093,0.8911490342212642,0.0029561280607360756,0.0361961993679028
1.07,0.0017,1.457,0.0038542718192676067,0.8911490342212564,0.002986984336648819,0.03619619936790182
1.071,0.0028,0.457,0.0038960202777001732,0.9046533871950759,0.0031889401801156645,0.037882655673727096
1.072,0.0039,0.457,0.003900112196337831,0.9034778226821624,0.0032087346087219483,0.037735848330231934
1.073,0.0013,1.457,0.0038999157440244526,0.9023007265837028,0.0032077842815927825,0.0375888497186244
1.074,-0.0013,0.457,0.0038475789460780305,0.9023007265837028,0.002954607935196757,0.0375888497186244
1.075,-0.0034,-0.543,0.0038423586525790612,0.9034778226821624,0.0029293550560172367,0.037735848330231934
1.076,0.0002,1.457,0.0038302222048628544,0.893531057637911,0.00287064566584474,0.03649367222124241
1.077,-0.002,0.457,0.0038707548114663725,0.8947196912153851,0.0030667198937768987,0.03664211166117212
1.078,0.0034,-0.543,0.00389945562972712,0.8935310576379228,0.003205558504294704,0.036493672221243896
1.079,0.0012,1.457,0.0038705630607665693,0.923049850391882,0.0030657923104416567,0.04018005055249568
1.08,0.0005,1.457,0.0038458090188736908,0.9218977445592612,0.0029460460108803248,0.04003617278581051
1.081,0.0044,0.457,0.003820780664481395,0.9218977445592612,0.0028249727398744597,0.04003617278581051
1.082,-0.0039,0.457,0.003819511228658313,0.9207441971244944,0.0028188319147517396,0.039892114988357895
1.083,-0.0075,1.457,0.0038039459010570146,0.9195892026624751,0.0027435355090261126,0.03974787648263741
1.084,0.0026,-0.543,0.0037795523300900224,0.9207441971244944,0.0026255329675007873,0.039892114988357895
1.085,0.0062,0.457,0.0037686048270657805,0.9121518658142955,0.0025725750310852964,0.038819083844406216
1.086,0.0026,0.457,0.0037889812038778116,0.9121518658142955,0.002671144619529356,0.038819083844406216
1.087,0.0058,0.45699999999911184,0.0037747002300430018,0.9121518658142955,0.0026020612036471743,0.038819083844406216
1.088,-0.0007,-0.543,0.0038066347743631714,0.9121518658142956,0.002756542783950946,0.03881908384440623
1.089,0.0036,-1.543,0.0038184055775704394,0.9218977445592746,0.002813483389167442,0.04003617278581218
1.09,-0.0018,0.457,0.003835164473884224,0.9207441971245078,0.0028945536170919195,0.039892114988359574
1.091,-0.0011,2.457,0.0038253424330517067,0.9207441971245078,0.0028470400413726916,0.039892114988359574
1.092,-0.0033,1.457,0.0038241003635278593,0.9218977445592746,0.0028410315991989946,0.04003617278581218
1.093,-0.0019,0.457,0.0038132284086942123,0.9121518658142955,0.002788439122949623,0.038819083844406216
1.094,-0.0055,-0.543,0.003820124800101994,0.9023007265837281,0.0028218000324520833,0.03758884971862756
1.095,-0.0051,0.457,0.0038128894730670064,0.9023007265837281,0.002786799540722081,0.03758884971862756
1.096,-0.0095,0.457,0.0038208177880315218,0.9023007265837281,0.002825152322981473,0.03758884971862756
1.097,-0.0033,1.457,0.0038253931317616878,0.9011220928977941,0.00284728529355975,0.03744165908937232
1.098,-0.0012,-0.543,0.0038723527106849153,0.8999419155831545,0.0030744496422891003,0.03729427568802577
1.099,0.001,1.457,0.003904896597294834,0.8987601885589139,0.0032318788819965132,0.03714669875519098
1.1,-0.0012,0.457,0.003901869390702803,0.9121518658142955,0.003217234938636797,0.038819083844406216
1.101,-0.0027,0.457,0.0038976232329047365,0.9218977445592709,0.0031966943866787653,0.04003617278581171
1.102,-0.0012,-0.543,0.0039936715058492955,0.9253497587823117,0.0036613225598934405,0.04046726868248533
1.103,-0.0027,0.457,0.003900563659226696,0.9253497587823117,0.003210918535313202,0.04046726868248533
1.104,0.0024,0.457,0.003902695457332707,0.9253497587823117,0.003221230989970562,0.04046726868248533
1.105,0.006,-0.543,0.0038559881651926606,0.9156406232597512,0.0029952870645096577,0.03925476832368412
1.106,0.0064,-0.543,0.0038773009899230925,0.9156406232597512,0.0030983866676254895,0.03925476832368412
1.107,0.005,0.457,0.003876495300640607,0.945593253568076,0.003094489190575423,0.04299532533944468
1.108,0.0035,1.457,0.003902526896232327,0.9746258007170822,0.0032204155850315275,0.04662098014190226
1.109,0.0039,-0.543,0.00390742471270718,0.9583307106440817,0.003244108499559677,0.0445860098281909
1.11,-0.0026,0.457,0.003841416562000445,0.958330710644078,0.0029247977452908085,0.04458600982819044
1.111,-0.0001,-0.543,0.003814881585940635,0.958330710644078,0.002796436275844281,0.04458600982819044
1.112,0.0053,-0.543,0.0038169552485689383,0.9299325113246943,0.00280646750336472,0.04103957391903544
1.113,-0.0059,-0.543,0.0038352184056462913,0.9428815542732283,0.002894814508988457,0.042656681763986924
1.114,0.0054,0.457,0.003938477225842519,0.9344927903193231,0.0033943233031108596,0.04160907260451293
1.115,0.0011,-0.543,0.004031014433561255,0.9344927903193231,0.0038419668937619993,0.04160907260451293
1.116,0.0022,0.457,0.003983674360031267,0.9333548094233892,0.003612961923555166,0.041466958794130676
1.117,0.0033,-0.543,0.003983109085557963,0.9322154393640711,0.0036102274397602527,0.04132467150166057
1.118,0.0022,0.457,0.0039651956097785535,0.9322154393640579,0.0035235719979480233,0.041324671501658916
1.119,-0.0024,0.45699999999822366,0.003966841052205796,0.9225785604888868,0.0035315317340855047,0.040121194727983464
1.12,0.0059,-1.543,0.0039527654785056834,0.9128399504616181,0.003463441929919982,0.038905013521649434
1.121,-0.0042,0.457,0.0039693857678962125,0.9041725083903046,0.0035438416545696717,0.037822602363937544
1.122,-0.0031,0.457,0.004069748710686969,0.9140034737591496,0.004029341802961042,0.03905031712900482
1.123,0.0031,-0.543,0.00417521100085631,0.9151655177774213,0.004539509760407824,0.03919543600038357
1.124,-0.0002,-0.543,0.00417315718501876,0.9053471708763653,0.004529574540632755,0.03796929706013468
1.125,0.0006,0.457,0.004172398511310304,0.9053471708763653,0.004525904498804627,0.03796929706013468
1.1260000000000001,-0.005599999999999822,-0.543,0.00416398471002462,0.9053471708763653,0.004485203203494348,0.03796929706013468
1.127,-0.0048,0.4570000000017764,0.004177688227149943,0.8966072995374756,0.004551493204692288,0.03687784076007004
1.1280000000000001,0.0020999999999994448,2.457,0.004211873927678196,0.8977918603267172,0.004716864627827348,0.0370257715803413
