time_sec,bts_raw,diy_raw,bts_rms,diy_rms,bts_norm_rms,diy_norm_rms
0.0,-0.0035,-0.322,0.025186375685816307,0.628544158427753,0.0857922659713054,0.0
0.0010000000000000009,0.0047,-0.322,0.024164880400741898,0.6289661266083384,0.08101983280639356,0.00010210221600996699
0.0020000000000000018,0.0035,0.678,0.02153452558503887,0.6408869606506468,0.06873079658530883,0.0029865461821835687
0.0030000000000000027,0.0082,-0.322,0.023165118167865713,0.6525900736629008,0.07634893661438906,0.00581830892578327
0.0040000000000000036,-0.0054,-0.322,0.024306068330348953,0.7089310247249337,0.08167946380771812,0.019450938636304264
0.0050000000000000044,-0.0034,-0.322,0.02478038024490568,0.7306843846531976,0.08389545241248048,0.024714525694591427
0.006000000000000005,-0.0086,-1.322,0.0249087568669614,0.751808580780041,0.08449522889471205,0.02982587611202767
0.007000000000000006,-0.0005,-0.322,0.024761074662611852,0.7557378466619626,0.08380525659605995,0.03077662731151388
0.008000000000000007,0.0072,-0.322,0.024589899926096753,0.7761804977166958,0.08300552702170347,0.03572306656887975
0.009000000000000008,0.0197,0.678,0.024435278929446587,0.7960983841173245,0.08228313663656212,0.04054253029459901
0.010000000000000009,0.005,0.678,0.0244632524020726,0.7998100949206478,0.08241382889765113,0.04144064042622485
0.01100000000000001,0.0188,0.678,0.024353833263619954,0.8001417482321616,0.08190262191230567,0.04152088945828604
0.01200000000000001,-0.005,-1.322,0.02431480436748037,0.8038347890000659,0.0817202786347125,0.0424144820644752
0.013000000000000012,0.0178,0.6780000000000018,0.02428542869833094,0.8041647824506023,0.08158303530159225,0.04249432946557972
0.014000000000000012,0.0327,1.678,0.024174655512277744,0.8044946405420416,0.08106550219632226,0.042574144114300494
0.015000000000000013,-0.0078,0.678,0.024194989747576896,0.8237281704660502,0.08116050388682709,0.047228016413891974
0.016000000000000014,0.0097,-0.322,0.024242223524479887,0.8273159309248836,0.08138118042512307,0.04809613469914196
0.017000000000000015,-0.0058,-0.322,0.024110206031557526,0.8308881996423271,0.0807643937685647,0.04896050450003092
0.018000000000000016,-0.0199,-1.322,0.02417112171054915,0.8344451755793357,0.08104899224976236,0.04982117395846947
0.019000000000000017,-0.0416,-1.322,0.024210069564077473,0.8347630684060433,0.08123095689570506,0.049898093412480166
0.020000000000000018,-0.0455,0.678,0.024213480323267384,0.8383036031876716,0.0812468919866578,0.05075478466005985
0.02100000000000002,-0.0563,-1.322,0.024237793879821192,0.8418292474487887,0.0813604850940855,0.051607872898664725
0.02200000000000002,-0.0069,-0.322,0.024205301817657898,0.8453401875002481,0.08120868195085985,0.05245740320930297
0.02300000000000002,0.0,-0.322,0.0240866313678148,0.8488366057997941,0.08065425277355341,0.053303419740659
0.02400000000000002,-0.0061,-0.322,0.02403559044561868,0.8491491109768409,0.08041578922563923,0.05337903556327101
0.025000000000000022,-0.0118,1.678,0.02400804602370536,0.867393039418254,0.08028710149250116,0.05779345733320506
0.026000000000000023,0.0038,-1.3219999999999932,0.023987211331658292,0.8760755633748518,0.080189761664546,0.05989433834110111
0.027000000000000024,-0.0009,0.678,0.023951314127651585,0.8794497958867946,0.08002204967465,0.060710789989953655
0.028000000000000025,0.0035,1.678,0.02394611734006158,0.8828111316856428,0.07999777024643537,0.061524121064680505
0.029000000000000137,-0.0004999999999975797,-1.322,0.023935384719339654,0.8831116144379088,0.07994762736684684,0.06159682786175834
0.030000000000000027,0.0104,-0.322,0.023935514542617352,0.89164108892898,0.07994823390211442,0.06366067600720554
0.03100000000000014,0.0007000000000006439,-0.322,0.02393619337030261,0.9090326196704575,0.07995140538984004,0.06786884598354584
0.03200000000000003,0.0036,1.678,0.023937201202539286,0.9122849633572261,0.07995611398914662,0.06865580460489126
0.03300000000000014,0.0011000000000015323,0.678,0.023921948812839842,0.9125757413468426,0.07988485471706835,0.06872616317331598
0.03400000000000003,0.008,-1.322,0.023886332817576583,0.9208323363164799,0.07971845653640192,0.07072398358225591
0.03500000000000014,0.01020000000000131,0.678,0.023857115528472056,0.9290155539695737,0.07958195315596674,0.07270404912964785
0.03600000000000003,0.0161,0.678,0.02381801676182628,0.929301096977959,0.07939928344287661,0.07277314100733837
0.037000000000000144,0.02149999999999598,0.678,0.02381445227637382,0.937410388653638,0.07938263014174275,0.07473531893556365
0.038000000000000034,0.0034,-1.322,0.02381754900452636,0.9405646110175129,0.07939709807747758,0.07549853547168506
0.039000000000000146,0.0011999999999985787,-0.322,0.02393247217832328,0.9408466489420947,0.07993401995470915,0.07556677923608147
0.040000000000000036,-0.0052,-0.322,0.02392405986832115,0.9411286023454039,0.0798947175831424,0.07563500254915091
0.04100000000000015,-0.014999999999997201,-0.322,0.02397680081319616,0.9414104713033828,0.08014112364898336,0.07570320542926892
0.04200000000000004,-0.0024,-1.322,0.023970848765803444,0.9494163382789369,0.08011331564165218,0.07764035803198678
0.04300000000000015,0.005600000000005063,0.6779999999999932,0.024085991441383275,0.9496957474465328,0.08065126303275917,0.07770796572493052
0.04400000000000004,0.0284,-0.322,0.024123664001932946,0.9499750744335731,0.0808272695009254,0.07777555353292266
0.04500000000000015,0.07119999999999871,-1.322,0.024146121530675198,0.9502543193125285,0.08093219123334795,0.07784312147349871
0.04600000000000004,0.0654,-0.322,0.024141649599438205,0.9533660483334183,0.08091129833911881,0.0785960560388838
0.04700000000000015,0.07049999999999258,-0.322,0.024194481978738195,0.9612723495587527,0.08115813158723714,0.08050911705317426
0.04800000000000004,0.0371,-0.322,0.02419434314262552,0.9774257016186357,0.08115748294394108,0.0844176891142601
0.049000000000000155,0.006699999999995559,-1.322,0.024329984699132858,0.9933164019299993,0.08179120125108798,0.08826270821851984
0.050000000000000044,-0.0133,-0.322,0.024616422948823657,0.9935834658800456,0.08312944277065024,0.08832732878085296
0.051000000000000156,-0.06050000000000992,-1.322,0.024767632471988064,0.9935834658800456,0.08383589472764362,0.08832732878085296
0.052000000000000046,-0.1052,-1.3219999999999723,0.024834937951251714,1.0009071796397941,0.08415034640070712,0.09009942307302368
0.052999999999999936,-0.0759,2.678,0.024885680972953777,1.0054995472018144,0.08438741815541534,0.0912106227472837
0.05400000000000005,-0.0495,1.678,0.024895081818933174,1.0127370922442493,0.08443133897402884,0.09296186708584833
0.05499999999999994,-0.0256,1.678,0.025725020874847293,1.0199232797576592,0.0883088200874259,0.09470068461650773
0.05600000000000005,-0.0038,0.678,0.026728832155884546,1.0199232797576592,0.09299863346095102,0.09470068461650773
0.05699999999999994,-0.0157,1.678,0.02720946252943823,1.027824041769198,0.09524414195063972,0.09661240532593753
0.05800000000000005,-0.0048,1.678,0.02728095286959817,1.027824041769198,0.09557814532327916,0.09661240532593753
0.05899999999999994,0.0181,0.6779999999999932,0.027307195458090787,1.034905473665616,0.0957007508815086,0.09832587549362866
0.06000000000000005,0.0268,-0.322,0.027396139157972215,1.0349054736656162,0.09611629647366782,0.09832587549362871
0.06099999999999994,0.0189,0.678,0.027434603350129476,1.0349054736656162,0.09629600145027913,0.09832587549362871
0.062000000000000055,-0.0031,-0.322,0.0273780302473185,1.047101838809755,0.09603169151557649,0.10127698879026588
0.06299999999999994,-0.006,-0.322,0.02739372583874026,1.047101838809755,0.0961050214292223,0.10127698879026588
0.06400000000000006,-0.014,1.678,0.027373268703303057,1.0445234987414374,0.09600944554840707,0.10065311654891032
0.06499999999999995,-0.0161,0.678,0.027199858628111532,1.0322966715084074,0.09519927245601378,0.09769463244347008
0.06600000000000006,-0.0049,0.678,0.027200772552367736,1.0322966715084074,0.09520354231657434,0.09769463244347008
0.06699999999999995,0.0172,0.678,0.02718951264608369,1.0322966715084074,0.0951509359551266,0.09769463244347008
0.06800000000000006,0.0143,-0.322,0.027185426179330365,1.0322966715084074,0.09513184395367946,0.09769463244347008
0.06899999999999995,0.0063,0.678,0.027152287612402272,1.0322966715084074,0.09497702033564019,0.09769463244347008
0.07000000000000006,0.0131,0.678,0.026845967219303966,1.048924924192203,0.09354588930207433,0.10171811460516758
0.07099999999999995,0.0066,0.678,0.026496271410358874,1.0463510764441837,0.09191210802023644,0.10109532935538768
0.07200000000000006,0.0084,0.6779999999999862,0.02592314893528537,1.0627594524445245,0.08923447578094724,0.10506560869833591
0.07299999999999995,-0.0083,-0.322,0.025954690507868885,1.077145995950233,0.08938183823016313,0.10854667205865588
0.07400000000000007,0.0033,1.678,0.026187686168689227,1.0796464319430394,0.09047039559819695,0.10915169411387923
0.07499999999999996,0.0011,-1.322,0.02719684679656809,1.0796464319430394,0.09518520115783446,0.10915169411387923
0.07600000000000007,0.0068,0.678,0.027578909002112136,1.0652936567800928,0.09697019847249652,0.10567880156544887
0.07699999999999996,0.0013,0.678,0.027675077712011182,1.0652936567800928,0.09741949936233427,0.10567880156544887
0.07800000000000007,0.0027,-0.322,0.02767535356255036,1.0627594524445245,0.09742078813799576,0.10506560869833591
0.07899999999999996,0.0012,-1.322,0.027734596503689878,1.0507448464515394,0.0976975715761695,0.10215847504984932
0.08000000000000007,0.0023,1.678,0.028675220657480217,1.0507448464515394,0.10209217424625343,0.10215847504984932
0.08099999999999996,-0.0038,0.678,0.03022319729413477,1.065293656780093,0.10932433199306156,0.10567880156544893
0.08200000000000007,-0.0004,-0.322,0.03114087869868007,1.0678218468413256,0.11361174597711714,0.10629053917890624
0.08299999999999996,-0.0028,-1.322,0.03143632471439404,1.0558648470215792,0.11499207184296947,0.10339734430166862
0.08400000000000007,-0.0088,-1.322,0.03143687910619538,1.0678218468413256,0.1149946619653692,0.10629053917890624
0.08499999999999996,0.0003,-0.322,0.031435160820074935,1.060960139688262,0.11498663412051485,0.10463023506553129
0.08600000000000008,-0.0032,-1.3219999999999723,0.03141986571166183,1.0728603541109405,0.11491517526630556,0.10750968977195889
0.08699999999999997,-0.0086,0.6779999999999862,0.03139623162131288,1.077145995950233,0.11480475662977152,0.10854667205865588
0.08800000000000008,-0.0234,-0.322,0.031329282446353794,1.077145995950233,0.11449196961292793,0.10854667205865588
0.08899999999999997,0.0104,-0.322,0.03134949309299427,1.0846300110354543,0.11458639389634917,0.11035755392134296
0.09000000000000008,0.0343,-0.322,0.031368767591907175,1.084630011035454,0.11467644449099512,0.1103575539213429
0.09099999999999997,0.0126,-1.322,0.031374983969833535,1.0913429064336528,0.11470548745244083,0.1119818505568105
0.09200000000000008,0.0246,-0.322,0.0313805061991879,1.098014762199186,0.1147312873468702,0.11359621697091973
0.09299999999999997,0.0138,-0.322,0.03141012765951798,1.0913429064336524,0.11486967901811722,0.11198185055681038
0.09400000000000008,0.0105,-0.322,0.03147111229031117,1.0955562498528402,0.11515459964261736,0.11300133903888811
0.09499999999999997,0.0077,0.678,0.03139739870979736,1.1022026016916768,0.11481020927538928,0.11460953435396079
0.09600000000000009,-0.0166,-1.322,0.030647488970144025,1.0955562498528397,0.11130662569110354,0.113001339038888
0.09699999999999998,-0.0002,1.678,0.030001216247610155,1.1022026016916768,0.10828723498057878,0.11460953435396079
0.09800000000000009,0.0266,1.678,0.029183519472287565,1.1046463219472638,0.1044669498883116,0.11520083309373243
0.09899999999999998,0.0375,-0.322,0.02894757841671574,1.1070846480768013,0.10336463161525832,0.11579082663503552
0.10000000000000009,0.0276,-0.322,0.028954688547338427,1.1070846480768013,0.10339785019559479,0.11579082663503552
0.10099999999999998,0.0189,-1.322,0.028924388415351245,1.1209024314536786,0.1032562877655868,0.11913426902722656
0.10200000000000009,0.0163,-1.322,0.028304031385168495,1.1143676154009885,0.10035797535221652,0.11755306164976134
0.10299999999999998,-0.0106,-1.322,0.02644017248822126,1.1102256640367845,0.09165001346097879,0.11655084766219463
0.10400000000000009,-0.065,-1.3219999999999863,0.025349695311791296,1.0753707550602112,0.0865552964139053,0.10811712301405427
0.10499999999999998,-0.0726,-0.322,0.024916547932226953,1.083905242710774,0.08453162880649491,0.11018218417677826
0.1060000000000001,-0.0516,1.678,0.024990665389297163,1.092373054186634,0.08487790608783843,0.1122311119306211
0.10699999999999998,-0.0197,-0.322,0.025135912477408078,1.0965824395281925,0.08555650150627633,0.11324964269001807
0.1080000000000001,-0.0139,-1.322,0.025126458299764322,1.0891805554794172,0.08551233152175139,0.11145863379692957
0.10899999999999999,-0.0295,0.678,0.025122712002080216,1.0774606076412887,0.08549482879259102,0.10862279758735065
0.1100000000000001,-0.0153,0.678,0.02505822327541179,1.0749550872492386,0.08519353700748708,0.10801654527720823
0.11099999999999999,0.0065,1.678,0.025034605168445235,1.0817280241295875,0.08508319304542815,0.10965536994740001
0.1120000000000001,0.0106,-1.322,0.025056294974468263,1.08597867168553,0.08518452797190043,0.1106838847855023
0.11299999999999999,0.0143,-0.322,0.02512659966109672,1.0926832816237975,0.08551299196289178,0.11230617661620362
0.1140000000000001,0.011,0.678,0.025120517452706128,1.0926832816237975,0.08548457584246195,0.11230617661620362
0.11499999999999999,0.0082,0.678,0.025085712979941173,1.078504015341954,0.08532196910062209,0.10887526742593423
0.1160000000000001,0.0057,-0.322,0.025033889667503816,1.076000924578135,0.08507985021999151,0.10826960300473198
0.11699999999999999,0.0035,-0.322,0.02503041445844513,1.0802741072809101,0.08506361401879801,0.10930357059623033
0.1180000000000001,0.0148,-1.3220000000000138,0.025001557772125413,1.0802741072809103,0.0849287953771127,0.10930357059623039
0.119,0.009,-2.3219999999999725,0.02502602291029456,1.0944304407741048,0.08504309667491466,0.11272893081705593
0.1200000000000001,0.0145,-0.322,0.025019220475316396,1.0919638585032403,0.0850113156507961,0.11213210023263415
0.121,0.0131,-2.322,0.024991738124352906,1.0919638585032403,0.08488291791357272,0.11213210023263415
0.12200000000000011,0.0146,1.678,0.025015117685283195,1.1035297865001203,0.08499214738687046,0.11493066878122699
0.123,0.0349,0.678,0.025008957296978884,1.1035297865001208,0.08496336600933323,0.1149306687812271
0.12400000000000011,0.0737,-0.322,0.02500829795403554,1.1173915305408546,0.08496028555445903,0.11828474818683177
0.125,0.0473,-0.322,0.025014226666518886,1.1035297865001197,0.08498798454092933,0.11493066878122683
0.1260000000000001,0.0234,-1.322,0.025061705488149334,1.0993470027813932,0.0852098059299175,0.11391857472669425
0.127,0.0016,-0.322,0.025132745773375157,1.1035297865001195,0.0855417066427356,0.11493066878122678
0.1280000000000001,-0.0184,0.678,0.025163277066959682,1.1076967756843772,0.08568434906135414,0.11593894108557935
0.129,-0.0728,-1.322,0.02517710403834359,1.1101284017073352,0.08574894876902489,0.11652731342471424
0.13000000000000012,-0.096,1.678,0.025188474858910872,1.1059705742508323,0.08580207332278492,0.11552125795269476
0.131,-0.075,0.678,0.025191933511906447,1.0919638585032392,0.08581823217393499,0.11213210023263388
0.13200000000000012,-0.0431,0.678,0.025221727689862892,1.0919638585032394,0.08595743078314859,0.11213210023263394
0.133,-0.0021,1.678,0.025222873208747408,1.0919638585032392,0.08596278265544344,0.11213210023263388
0.13400000000000012,-0.0072,-0.322,0.02522469196153281,1.0993470027813932,0.08597127988126389,0.11391857472669425
0.135,-0.0026,1.678,0.025230853274507716,1.0951482435523814,0.08600006557886868,0.11290261513187436
0.13600000000000012,0.0105,-1.322,0.02523257115083107,1.0951482435523812,0.08600809150914811,0.1129026151318743
0.137,0.0064,0.678,0.025232836253700205,1.088458817214314,0.08600933007161948,0.11128399722565065
0.13800000000000012,-0.0117,1.678,0.025276236125827575,1.092683281623797,0.08621209457980662,0.11230617661620353
0.139,0.0111,-0.322,0.02518355817772045,1.092683281623797,0.08577910255364157,0.11230617661620353
0.14000000000000012,0.0082,-1.322,0.02516279622673798,1.0993470027813934,0.08568210257245243,0.11391857472669431
0.14100000000000001,0.0162,-1.3219999999999723,0.024971580032694424,1.0993470027813934,0.08478873916739744,0.11391857472669431
0.14200000000000013,0.0139,-0.32200000000002776,0.025002411022934105,1.0926832816237968,0.08493278177089923,0.11230617661620347
0.14300000000000002,0.0204,-1.322,0.024928260234911317,1.0993470027813934,0.08458634876711056,0.11391857472669431
0.14400000000000013,0.0185,-1.3219999999999723,0.024917039183313817,1.0993470027813934,0.08453392393503197,0.11391857472669431
0.14500000000000002,0.0203,-0.322,0.025069793507761975,1.0993470027813934,0.08524759321450102,0.11391857472669431
0.14600000000000013,0.0188,-1.322,0.025195164345362998,1.0993470027813934,0.08583332665059448,0.11391857472669431
0.14700000000000002,0.0112,0.678,0.025146238253294873,1.092683281623797,0.08560474360393025,0.11230617661620353
0.14800000000000013,-0.0012,0.678,0.02514795038108384,1.0852548040405072,0.08561274267701657,0.11050873297535346
0.14900000000000002,-0.0092,-1.322,0.025007460425555843,1.0709771925029805,0.08495637261550427,0.107054027515599
0.15000000000000013,-0.0016,1.678,0.024754207166391765,1.0734919973047228,0.08377317160536098,0.10766252634300867
0.15100000000000002,-0.0107,-0.322,0.02460778666435129,1.0802741072809097,0.08308909398878137,0.10930357059623022
0.15200000000000014,-0.0295,0.678,0.024544466881564746,1.0802741072809097,0.08279326351772491,0.10930357059623022
0.15300000000000002,0.011,-0.322,0.024616384339612864,1.0802741072809097,0.08312926238814554,0.10930357059623022
0.15400000000000014,0.01670000000000342,-2.322,0.0246974888128408,1.0734919973047228,0.08350818305817831,0.10766252634300867
0.15500000000000003,0.0321,-2.322,0.023853095566770892,1.0666667660019225,0.0795631718665916,0.1060110481679724
0.15600000000000014,0.027299999999997094,-1.322,0.022720663658434646,1.069191709240544,0.07427244201662012,0.10662200015872444
0.15700000000000003,0.0142,-1.322,0.022137824682538117,1.0546966712175037,0.07154941421706525,0.10311468474634415
0.15800000000000014,0.0021999999999991787,0.678,0.02204969234716457,1.0615988634421039,0.07113765932560022,0.10478478489579335
0.15900000000000003,-0.0015,-0.322,0.022063321219220017,1.0615988634421032,0.07120133351181344,0.1047847848957932
0.16000000000000014,-0.024399999999999356,-1.322,0.02193731067271507,1.0615988634421032,0.07061261135121623,0.1047847848957932
0.16100000000000003,-0.0215,-1.322,0.022338555542791506,1.0615988634421032,0.07248723020965181,0.1047847848957932
0.16200000000000014,-0.018999999999996315,-1.322,0.023405386212373827,1.0495709720861417,0.07747147061022194,0.10187443663288116
0.16300000000000003,-0.0024,-0.322,0.023846429535484145,1.042589155353903,0.07953202812147986,0.10018507001014644
0.16400000000000015,-0.004699999999998735,-0.322,0.023943789323782744,1.0451722672733341,0.07998689373798751,0.1008100968802052
0.16500000000000004,0.001,-0.322,0.023992049892402296,1.0451722672733341,0.0802123674544136,0.1008100968802052
0.16600000000000015,0.0026999999999966916,-1.322,0.024013100431902964,1.0451722672733341,0.0803107157231919,0.1008100968802052
0.16700000000000004,-0.0122,0.678,0.02407341392946761,1.0477490108289287,0.08059250080852234,0.10143358281876728
0.16800000000000015,-0.017999999999995492,1.678,0.02443193799051427,1.0503194328911158,0.08226752774634451,0.10205553916691217
0.16900000000000004,0.0023,-0.322,0.024998630156254382,1.0579932302977486,0.08491511753514791,0.1039123420171693
0.17000000000000015,-0.005700000000001532,0.678,0.024987498477740698,1.037076872562018,0.08486311025474624,0.09885128155352799
0.17100000000000004,-0.0126,1.678,0.025398646733240587,1.037076872562018,0.0867839977996167,0.09885128155352799
0.17200000000000015,-0.006200000000000421,0.6780000000000278,0.025373772689984912,1.0157298872486555,0.0866677860943711,0.09368602358880912
0.17300000000000004,-0.0081,1.6779999999999444,0.025368175401208722,1.0031521731195372,0.08664163552179442,0.09064263656578446
0.17400000000000015,-0.006299999999995159,-0.32199999999997225,0.025334899000186657,1.0031521731195372,0.08648616794189752,0.09064263656578446
0.17500000000000004,0.0155,0.6779999999999445,0.024286609347795057,1.003152173119537,0.08158855130420237,0.0906426365657844
0.17600000000000016,0.020099999999998314,-1.322,0.023842773796240006,1.003152173119537,0.07951494848198869,0.0906426365657844
0.17700000000000005,0.0125,-1.322,0.02396685484132058,1.0202555371174091,0.08009465599834428,0.09478107980808124
0.17800000000000016,0.008799999999999756,0.678,0.024266435230485946,1.0202555371174091,0.0814942976860745,0.09478107980808124
0.17900000000000005,0.0077,0.678,0.02419727708498341,1.0326249476138225,0.08117119034329703,0.09777406430437367
0.18000000000000016,-0.004700000000001799,-0.322,0.023105716263001314,1.028153745928051,0.0760714104965733,0.09669218272811012
0.18100000000000005,-0.0128,0.678,0.021028534148661918,1.0202555371174091,0.06636680103152529,0.09478107980808124
0.18199999999999994,-0.0024,-0.322,0.019847328863565623,1.0176091782226693,0.060848201621884285,0.09414074928094104
0.18300000000000005,0.0042,1.678,0.020067423231100237,1.0300103693743734,0.06187648405684038,0.09714142363509652
0.18399999999999994,0.0105,0.678,0.020633427889273182,1.0300103693743734,0.06452086180544878,0.09714142363509652
0.18500000000000005,0.003,-0.322,0.020656437744854924,1.0326249476138225,0.06462836401275474,0.09777406430437367
0.18599999999999994,-0.0034,-0.322,0.020655670268676325,1.0176091782226693,0.06462477835864401,0.09414074928094104
0.18700000000000006,-0.0171,-1.322,0.020659273822478712,1.0104065325495144,0.06464161418738383,0.09239794942493407
0.18799999999999994,0.0091,-0.322,0.020668049075338788,1.007734310025721,0.06468261223053864,0.0917513607627924
0.18900000000000006,-0.0016,-1.322,0.02072710818055483,0.9950555352277075,0.06495853678598337,0.08868352043091557
0.18999999999999995,0.0147,-0.322,0.020720580926613556,0.9977617148412822,0.06492804140960691,0.0893383255754259
0.19100000000000006,0.0177,-0.322,0.020742558820016598,0.9931335672679932,0.06503072228234724,0.08821846833263944
0.19199999999999995,0.0153,-1.322,0.02073428147502275,0.9857521006065201,0.06499205046824956,0.0864323997658234
0.19300000000000006,-0.0115,-0.322,0.020803059566171175,0.9857521006065201,0.0653133821944084,0.0864323997658234
0.19399999999999995,-0.0295,-0.322,0.02073012385404699,0.9810672997718354,0.06497262603377416,0.0852988343246494
0.19500000000000006,-0.0262,0.678,0.020665942579388676,0.9892784294265953,0.06467277066662644,0.08728565364484815
0.19599999999999995,-0.0055,-0.322,0.020577529810074675,1.0047176985403334,0.0642597055858169,0.0910214414663376
0.19700000000000006,-0.0029,-1.322,0.020508100713429178,1.012737092244248,0.06393533235739156,0.09296186708584801
0.19799999999999995,-0.0007,-0.322,0.02051558272299951,1.01727605652345,0.06397028835879007,0.0940601449480643
0.19900000000000007,-0.0119,0.678,0.02051521105897207,1.01727605652345,0.06396855194183673,0.0940601449480643
0.19999999999999996,-0.006,-1.322,0.020510591244049806,1.0100710354186075,0.06394696813398866,0.09231677031687181
0.20100000000000007,0.0067,-1.322,0.02051000705541678,0.9974219644543133,0.06394423880058149,0.08925611732135413
0.20199999999999996,0.0249,-1.322,0.020493991820799053,0.9974219644543133,0.0638694155116733,0.08925611732135413
0.20300000000000007,0.0227,-0.322,0.020296303824128777,1.0100710354186075,0.06294581579917391,0.09231677031687181
0.20399999999999996,0.0115,-0.32199999999997225,0.020268588219642857,1.0100710354186075,0.06281632829985123,0.09231677031687181
0.20500000000000007,0.0018,0.6779999999999723,0.020236515903582424,0.9854082095370688,0.06266648621337387,0.08634918960479109
0.20599999999999996,0.0073,-0.32200000000002776,0.02009695122254715,0.960112067549661,0.062014439040807064,0.08022836753277106
0.20700000000000007,-0.0006,-1.322,0.020421312200559753,0.9553015362103834,0.06352985581412857,0.07906437950589122
0.20799999999999996,0.016,-1.3219999999999446,0.020779789934866563,0.9476254252085236,0.06520466631309592,0.07720701684280813
0.20900000000000007,-0.0178,0.678,0.021102994947920894,0.9704716287736004,0.06671468240999244,0.08273503558624322
0.20999999999999996,0.0449,0.678,0.021133499277043322,0.9779684355022754,0.06685719885045419,0.08454901259970972
0.21100000000000008,0.0702,0.678,0.021007100739864854,0.9704716287736005,0.06626666399469817,0.08273503558624325
0.21199999999999997,0.0469,-0.322,0.020934551276865162,0.9881408102283642,0.06592771239269342,0.08701038776827484
0.21300000000000008,0.0259,0.678,0.021085044342664887,0.9834673882087812,0.06663081705583393,0.08587957562057393
0.21399999999999997,-0.0187,0.678,0.021174948595487228,0.986205366587466,0.067050850358097,0.08654207500491917
0.21500000000000008,-0.0129,0.678,0.021186468575979972,0.9889357645983055,0.06710467178807913,0.08720274019324967
0.21599999999999997,-0.0179,0.678,0.021354392436589337,0.9889357645983055,0.06788921324731238,0.08720274019324967
0.21700000000000008,-0.0418,0.678,0.021548027361559023,0.9815227291903901,0.06879387698028619,0.08540903304343918
0.21799999999999997,-0.0549,1.678,0.02158791956435144,0.9815227291903901,0.06898025363264054,0.08540903304343918
0.21900000000000008,0.005,0.678,0.02151675956557335,0.9815227291903901,0.06864779361726325,0.08540903304343918
0.21999999999999997,0.0478,-0.322,0.02151732802441025,0.9815227291903901,0.06865044946095217,0.08540903304343918
0.22100000000000009,-0.0066,0.678,0.02151045841879841,0.978771651868624,0.06861835461516007,0.08474336415206113
0.22199999999999998,-0.0135,0.678,0.021506457089716623,0.978771651868624,0.06859966037751389,0.08474336415206113
0.2230000000000001,-0.0323,0.678,0.02149927118854974,0.9760128201442427,0.06856608779666137,0.08407581895406263
0.22399999999999998,-0.0149,-0.322,0.021484728207773546,0.9601120675496618,0.06849814288806796,0.08022836753277124
0.2250000000000001,-0.0098,-0.322,0.021476637904383405,0.9760128201442437,0.06846034493365989,0.08407581895406288
0.22599999999999998,-0.0337,-2.322,0.021431921337591017,0.9760128201442442,0.06825142881872605,0.08407581895406298
0.2270000000000001,-0.038,-0.322,0.02134230147347509,0.9760128201442442,0.06783272418250191,0.08407581895406298
0.22799999999999998,-0.0022,1.678,0.0213083961466335,0.9712810447637461,0.06767431825674751,0.08293088724063369
0.2290000000000001,0.012,0.678,0.021291492142252625,0.9712810447637461,0.06759534262924745,0.08293088724063369
0.22999999999999998,0.0076,-1.322,0.021288765857625142,0.9712810447637461,0.06758260540827021,0.08293088724063369
0.2310000000000001,-0.0283,-0.322,0.02132348149525584,0.9740532784879228,0.0677447971117373,0.08360167527527491
0.23199999999999998,-0.0523,1.678,0.021288623200563694,0.9740532784879228,0.06758193891347458,0.08360167527527491
0.2330000000000001,-0.048,1.678,0.021292285963297252,0.974053278487923,0.06759905136675778,0.08360167527527497
0.23399999999999999,-0.0121,0.678,0.021322337813503636,0.9657127031813963,0.06773945382253756,0.08158353442775179
0.2350000000000001,0.002,-0.322,0.021320413853435336,0.962916457264182,0.06773046506755054,0.08090693624383104
0.236,-0.0111,-0.322,0.02134248908218273,0.9704716287735998,0.06783360069170509,0.08273503558624308
0.2370000000000001,0.0088,-0.32199999999997225,0.021353041937184018,0.9732461680737308,0.06788290370458094,0.0834063814933139
0.238,0.0196,0.678,0.02129081179846663,0.9685008758393733,0.06759216405828851,0.08225817915239175
0.2390000000000001,0.0098,0.678,0.021271916450692364,0.9685008758393737,0.06750388486043213,0.08225817915239186
0.24,0.0126,0.678,0.02129999045052591,1.0135127545671048,0.06763504678534261,0.09314955147932348
0.2410000000000001,0.0151,-0.322,0.02126965945539476,1.0634986316037507,0.06749334016250867,0.10524446538388191
0.242,0.0219,-0.322,0.02122352639022663,1.0634986316037507,0.06727780615718883,0.10524446538388191
0.2430000000000001,0.0106,0.678,0.021204073908121363,1.0796464319430383,0.06718692402381485,0.10915169411387897
0.244,0.0087,1.678,0.021172623736607492,1.0938108889743083,0.06703998860103996,0.112579019959786
0.2450000000000001,0.0068,1.678,0.02101725921936813,1.1077942515062085,0.06631412448247026,0.11596252698109062
0.246,0.0082,1.678,0.021108280061002294,1.1077942515062085,0.06673937449552482,0.11596252698109062
0.2470000000000001,0.0125,-1.322,0.021388392417502834,1.1077942515062085,0.06804806139755727,0.11596252698109062
0.248,0.0002,0.678,0.021573381811634793,1.135244374279418,0.06891233314957813,0.12260454051159496
0.2490000000000001,0.0082,-0.322,0.021689695080304786,1.135244374279418,0.0694557495598453,0.12260454051159496
0.25,0.0006,0.678,0.021664397947403203,1.135244374279418,0.06933756117679477,0.12260454051159496
0.2510000000000001,0.0071,-0.322,0.021656095414395764,1.135244374279418,0.06929877168412021,0.12260454051159496
0.252,0.0082,1.678,0.021656095414395768,1.128792589782899,0.06929877168412024,0.12104342399944584
0.2530000000000001,0.0028,-0.322,0.02152959608514788,1.1223037165422294,0.06870776592710615,0.11947333324909341
0.254,-0.0121,-0.322,0.021451058207731542,1.135936386861489,0.06834083641077832,0.12277198445971019
0.2550000000000001,0.0216,-0.322,0.02149308642280902,1.1383076896918738,0.06853719252756958,0.12334576059960094
0.256,0.0454,0.678,0.021628804405124546,1.1423478251304278,0.0691712678966305,0.12432333853138838
0.2570000000000001,0.041,-0.322,0.021866397499890312,1.1423478251304278,0.070281304508431,0.12432333853138838
0.258,0.0369,-2.322,0.02201397152271013,1.138307689691874,0.07097077138221441,0.12334576059960099
0.2590000000000001,0.0115,-1.322,0.02201765191595041,1.1342531636469375,0.07098796620534915,0.12236470062137264
0.26,0.0081,-0.322,0.021999576623126495,1.1383076896918745,0.07090351830999538,0.1233457605996011
0.2610000000000001,-0.0126,-2.322,0.021638179094189757,1.1359363868614898,0.06921506650995674,0.1227719844597104
0.262,-0.0315,0.678,0.020478274135014973,1.1359363868614898,0.06379598237301114,0.1227719844597104
0.2630000000000001,-0.0196,0.678,0.02012579717300071,1.1359363868614898,0.06214920752445008,0.1227719844597104
0.264,-0.0084,0.678,0.019962728338245545,1.133560123495979,0.0613873487801952,0.12219700803588292
0.2650000000000001,-0.0267,-0.322,0.019874606791383587,1.1311788683336081,0.060975644292732285,0.12162082376382254
0.266,-0.0289,-0.322,0.020322360785635922,1.1311788683336081,0.0630675541068201,0.12162082376382254
0.2670000000000001,-0.0179,0.678,0.021164014410549315,1.1352443742794187,0.06699976576907203,0.12260454051159511
0.268,-0.0043,1.678,0.021043649513669493,1.1392953728079631,0.06643742012327826,0.12358474694859164
0.26900000000000013,-0.0027,-0.322,0.020314632526634457,1.125703381744144,0.06303144762634533,0.12029593876007275
0.27,0.0019,-0.322,0.020830674165132013,1.1233054714789228,0.06544239779520664,0.1197157245090065
0.27100000000000013,-0.0119,1.678,0.021296700757124455,1.125703381744144,0.06761967731460604,0.12029593876007275
0.272,-0.0028,-0.322,0.02243745437208493,1.123305471478923,0.07294928623652473,0.11971572450900655
0.27300000000000013,0.002,-0.322,0.024006905898198795,1.1209024314536786,0.0802817748181061,0.11913426902722656
0.274,-0.0023,1.678,0.024593964680616073,1.1321727704968378,0.08302451758344044,0.1218613149146531
0.27500000000000013,0.0069,0.678,0.024554553932160356,1.1345519396088493,0.0828403902891374,0.12243699443215093
0.276,-0.0043,-1.322,0.024598973199193543,1.1345519396088495,0.08304791741750277,0.12243699443215099
0.27700000000000014,-0.0032,0.678,0.024674275635477243,1.1126517633570872,0.08339973093007597,0.11713788272374724
0.278,0.0022,0.678,0.024460746229212123,1.115072584147486,0.08240212004039932,0.11772364055724037
0.27900000000000014,0.006900000000001376,0.678,0.024501221966170706,1.1077942515062091,0.08259122296848705,0.11596252698109077
0.28,0.0131,0.678,0.024472405882977524,1.1077942515062091,0.08245659402489483,0.11596252698109077
0.28100000000000014,0.004099999999998069,0.678,0.02446318068954328,1.1077942515062091,0.08241349385620918,0.11596252698109077
0.28200000000000003,-0.0046,-0.3220000000000555,0.024367566214837426,1.1077942515062091,0.08196678235709677,0.11596252698109077
0.28300000000000014,0.012099999999999556,-1.3219999999999446,0.023903378518322783,1.096273315489566,0.07979809417031855,0.11317484499005426
0.28400000000000003,0.0101,-0.3220000000000555,0.023419410918500472,1.0846300110354539,0.07753699413600314,0.11035755392134285
0.28500000000000014,-0.010099999999999422,-1.321999999999889,0.023524940689919713,1.0821410903496143,0.07803002997118084,0.10975531818606836
0.28600000000000003,-0.0075,0.678,0.023619959925236092,1.0821410903496143,0.07847396050767415,0.10975531818606836
0.28700000000000014,-0.005299999999998534,0.6779999999999445,0.023809072533052526,1.0821410903496143,0.07935749594306322,0.10975531818606836
0.28800000000000003,0.0013,-0.32200000000016654,0.024048371009311478,1.08886933008848,0.08047550010920865,0.11138332763984167
0.28900000000000015,0.011099999999999602,-3.322,0.024357686749984512,1.0930922079934071,0.08192062542773591,0.11240512314924347
0.29000000000000004,0.0093,-3.322,0.02437530925159537,1.1129563382849983,0.08200295787935388,0.11721157969074998
0.29100000000000015,0.010800000000000334,-0.322,0.02444620508100512,1.1105309043484721,0.08233418369358207,0.11662470562986331
0.29200000000000004,0.0123,-2.322,0.02455143581852155,1.1129563382849985,0.08282582244026013,0.11721157969075004
0.29300000000000015,9.999999999671375e-05,1.678,0.024656582624885095,1.1129563382849983,0.08331706906000091,0.11721157969074998
0.29400000000000004,-0.0147,1.678,0.024785281864278138,1.1243063338541095,0.08391835281270424,0.11995789979882526
0.29500000000000015,-0.032700000000000486,0.678,0.02478667175100027,1.110530904348472,0.08392484637325717,0.11662470562986325
0.29600000000000004,-0.0349,-0.322,0.02478837955411667,1.0990386563252983,0.0839328252414428,0.11384396517575031
0.29700000000000015,-0.028299999999998687,2.678,0.024778966153139025,1.0849424525134428,0.08388884576578907,0.1104331543309089
0.29800000000000004,-0.0224,-0.322,0.024750039521178005,1.078189708113373,0.08375370033757507,0.10879921556699651
0.29900000000000015,-0.005699999999998557,0.678,0.024750299325620114,1.078189708113373,0.08375491414575806,0.10879921556699651
0.30000000000000004,0.0008,-1.322,0.02473898729925327,1.0806877292249206,0.08370206427891647,0.10940365330155478
0.30100000000000016,0.0067000000000004,-0.322,0.024743865947154074,1.0849424525134412,0.08372485735626292,0.11043315433090853
0.30200000000000005,0.0085,-0.322,0.0247550125098385,1.084942452513441,0.0837769341756151,0.11043315433090847
0.30300000000000016,0.013300000000000976,1.678,0.024808752680641147,1.0731762221788943,0.08402800863202622,0.10758611930192992
0.30400000000000005,0.0177,0.678,0.02481159030752393,1.0799603152127613,0.08404126604480425,0.10922764338892313
0.30500000000000016,0.02430000000000193,-1.322,0.024782277416257485,1.1025100632660971,0.08390431601039537,0.11468392979307346
0.30600000000000005,0.033,-0.322,0.024692376106069266,1.1049531035382136,0.08348429645613965,0.11527506399954053
0.30700000000000016,0.025499999999998,0.678,0.02427469871474401,1.1025100632660971,0.081532904742717,0.11468392979307346
0.30800000000000005,0.0165,0.678,0.023927036304521074,1.1025100632660971,0.07990862351402755,0.11468392979307346
0.30899999999999994,0.0155,-1.322,0.023701419790618343,1.0941207087272775,0.07885454157235443,0.11265398599940049
0.31000000000000005,0.0209,-0.322,0.023684199661133058,1.0874249614026692,0.07877408900614051,0.11103383862540436
0.31099999999999994,0.0061,0.678,0.023758717244037327,1.1014893960057128,0.07912223567819832,0.11443696238204856
0.31200000000000006,-0.0276,-0.322,0.023781353179735613,1.07891831588145,0.07922799092917576,0.10897551432871722
0.31299999999999994,-0.0038,-0.322,0.02372826738125963,1.0831799894352878,0.07897997370488269,0.11000669709030433
0.31400000000000006,0.0006,-0.322,0.023711146253604043,1.08068772922492,0.07889998367591426,0.10940365330155463
0.31499999999999995,0.0444,0.678,0.023712273268719282,1.08068772922492,0.07890524909846874,0.10940365330155463
0.31600000000000006,0.0618,-1.322,0.0235611219431013,1.08068772922492,0.07819906904082208,0.10940365330155463
0.31699999999999995,0.0353,-1.322,0.02339551256137662,1.0874249614026694,0.07742534084323589,0.11103383862540442
0.31800000000000006,0.002,-0.322,0.02340511037685536,1.0874249614026694,0.07747018190473733,0.11103383862540442
0.31899999999999995,-0.0463,-0.322,0.0234072047311179,1.0799603152127613,0.07747996674259969,0.10922764338892313
0.32000000000000006,-0.0651,0.678,0.02347894667023596,1.086702057152157,0.07781514558734313,0.11085891992457265
0.32099999999999995,-0.0709,-0.322,0.02364869328128619,1.086702057152157,0.07860820294947134,0.11085891992457265
0.32200000000000006,-0.0864,-0.322,0.02370089568686933,1.0749550872492364,0.07885209295594846,0.10801654527720769
0.32299999999999995,-0.0624,1.678,0.023699376793052118,1.089180555479415,0.07884499667333889,0.11145863379692902
0.32400000000000007,-0.0054,0.678,0.02371155009841236,1.089180555479415,0.07890187044170247,0.11145863379692902
0.32499999999999996,0.0178,-0.322,0.023717108881994638,1.0749550872492364,0.07892784111774205,0.10801654527720769
0.32600000000000007,0.0389,-0.322,0.023740422611612823,1.086702057152157,0.07903676302668607,0.11085891992457265
0.32699999999999996,0.02,0.678,0.02385691432601671,1.086702057152157,0.07958101313667855,0.11085891992457265
0.32800000000000007,0.0143,-1.322,0.023935547207597066,1.086702057152157,0.07994838651312966,0.11085891992457265
0.32899999999999996,-0.0013,0.678,0.02397879378994717,1.0867020571521573,0.080150434850398,0.11085891992457271
0.33000000000000007,0.0035,-1.322,0.023989657865301748,1.0983233961062866,0.08020119188695594,0.11367089607541303
0.33099999999999996,-0.0183,-0.322,0.024063847313794705,1.0958655761628477,0.08054780551273348,0.11307618568177513
0.3320000000000001,-0.0223,0.678,0.024313022550436325,1.1000615974513868,0.08171195397293572,0.11409148278638263
0.33299999999999996,-0.0042,0.678,0.024614014606076096,1.1222075010245933,0.08311819097637485,0.11945005230513324
0.3340000000000001,0.0254,-0.322,0.025340955379133355,1.1156803291138466,0.08651446338698358,0.11787069455488597
0.33499999999999996,0.0213,-0.322,0.027011424237223563,1.122207501024594,0.09431890565489028,0.11945005230513339
0.3360000000000001,0.032,-0.322,0.029373671357481517,1.1156803291138475,0.1053553408349267,0.11787069455488619
0.33699999999999997,0.035,-1.322,0.030235130499931102,1.1198021048114484,0.10938008401457186,0.11886802670452189
0.3380000000000001,0.0434,-1.322,0.030233673494772944,1.1173915305408548,0.10937327687621318,0.11828474818683182
0.33899999999999997,0.0135,-2.322,0.03043931147274108,1.1173915305408544,0.1103340189573174,0.11828474818683171
0.3400000000000001,-0.0224,-0.322,0.03107789989299119,1.0699264445612995,0.11331750855346202,0.10679978158367893
0.34099999999999997,-0.0272,0.678,0.034107936675241514,1.0228950495698228,0.12747386173668873,0.0954197537246867
0.3420000000000001,-0.0315,-0.322,0.03817272256024714,1.025527768444213,0.1464645700143616,0.09605678382215424
0.34299999999999997,-0.0273,1.678,0.0401374843200421,1.0165032658644213,0.1556439507913497,0.09387315540139002
0.3440000000000001,-0.009,-0.3219999999999445,0.040657912866690515,1.0039352409878426,0.15807539662598305,0.09083211285408958
0.345,0.0074,0.6779999999999445,0.04071455593885403,0.991207872588591,0.15834003345799344,0.08775251449258258
0.3460000000000001,0.0045,-0.322,0.04071616931665316,0.9884837506332028,0.15834757117043188,0.08709336790020045
0.347,-0.0034,-0.3219999999999445,0.040654661646463315,0.9912078725885911,0.15806020690218753,0.0877525144925826
0.3480000000000001,-0.0011,0.678,0.04061029546126996,0.9548336000844164,0.1578529277725516,0.07895115458133395
0.349,-0.0032,0.677999999999889,0.0405517605360682,0.9548336000844164,0.15757945218982475,0.07895115458133395
0.3500000000000001,-0.0049,-1.3219999999999446,0.04056015753365984,0.9548336000844164,0.15761868302170184,0.07895115458133395
0.351,-0.0102,-0.3219999999999445,0.04068420710656109,0.9499963403516882,0.15819824349981407,0.07778069917533113
0.3520000000000001,-0.0182,0.678,0.04083560006421619,0.9576534473732572,0.15890555246403962,0.07963346350946435
0.353,0.0047,-1.322,0.04090182860062076,0.9576534473732572,0.15921497265248202,0.07963346350946435
0.3540000000000001,0.0015,-2.322,0.04090769078569518,0.9491687737271669,0.15924236082242935,0.07758045567322086
0.355,0.0045,0.678,0.04090855884645357,0.946323644216405,0.15924641640840514,0.07689202929120989
0.3560000000000001,-0.0034,-0.322,0.040887288588478315,0.9548336000844164,0.15914704161336637,0.07895115458133395
0.357,-0.0012,-0.322,0.0408452978451611,0.9548336000844164,0.15895086056490293,0.07895115458133395
0.3580000000000001,-0.0168,1.678,0.040946877194491145,0.954833600084416,0.1594254400002623,0.07895115458133385
0.359,-0.007,-0.322,0.04115137818306771,0.9520054004229439,0.16038087005892276,0.07826682465779708
0.3600000000000001,0.0205,1.678,0.0413036271718069,0.9443024959461702,0.1610921784064011,0.07640297886804905
0.361,0.0164,-0.322,0.0413016267790533,0.952005400422944,0.1610828325573702,0.07826682465779711
0.3620000000000001,0.0273,-1.322,0.041302373075003895,0.9568325034210605,0.16108631925730654,0.07943482247301704
0.363,0.0175,-0.322,0.04124665946337662,0.9596464771043187,0.1608260248714664,0.08011571018463506
0.3640000000000001,0.0088,0.678,0.041441718081802775,0.9596464771043186,0.16173734011029403,0.08011571018463504
0.365,0.0009,-0.322,0.04161140356260337,0.9624522234555059,0.1625301118714655,0.0807946071564889
0.3660000000000001,0.0078,-1.322,0.041417220091733646,0.9755548184751903,0.16162288532818403,0.08396499783650434
0.367,0.0192,0.678,0.04096011649424945,0.9708208107996007,0.15948729410196003,0.0828195259821684
0.3680000000000001,0.0054,-1.322,0.040808132888055154,0.9632683780220916,0.15877722562360017,0.08099208932146983
0.369,-0.0185,-1.322,0.04081104830996502,0.9632683780220915,0.15879084649529254,0.0809920893214698
0.3700000000000001,-0.0283,-0.322,0.0405610500940765,0.9708208107996008,0.1576228530702536,0.08281952598216842
0.371,-0.0197,0.678,0.04006354724643759,0.9931335672679905,0.15529851626282815,0.0882184683326388
0.3720000000000001,-0.0009,1.678,0.03946555997735576,0.9931335672679904,0.1525047155308421,0.08821846833263877
0.373,-0.0078,-0.322,0.038520316540156564,0.9931335672679905,0.14808853153614446,0.0882184683326388
0.3740000000000001,-0.0056,-0.322,0.03801266229576887,0.9849545767126999,0.14571676733162575,0.0862394256018308
0.375,0.0126,1.678,0.038008790145773665,0.9849545767127,0.14569867661958172,0.08623942560183083
0.3760000000000001,-0.0239,-1.322,0.03796744309436844,0.9876884324537828,0.14550550290426376,0.08690092744547434
0.377,0.0197,0.678,0.03776850740207845,0.9950555352277047,0.14457607394904315,0.0886835204309149
0.3780000000000001,0.0146,0.678,0.03771999225699757,0.9923419757178354,0.14434941084959713,0.08802692959781411
0.379,0.01,1.678,0.03771850173212805,0.9849545767126999,0.1443424471069109,0.0862394256018308
0.3800000000000001,0.023,-0.322,0.03772003326892976,0.9849545767126999,0.1443496024576331,0.0862394256018308
0.381,0.035,-1.322,0.03772132339491016,0.9775113501146729,0.14435562993529819,0.08443841319168031
0.3820000000000001,0.0387,-2.322,0.03767700681612865,0.980265964429413,0.14414858256716775,0.08510493791730672
0.383,0.0615,-0.322,0.03761169162962072,0.980265964429413,0.14384342955587398,0.08510493791730672
0.3840000000000001,0.0941,-1.322,0.03760975408388999,0.980265964429413,0.1438343773285764,0.08510493791730672
0.385,0.1159,-0.322,0.03755641556300522,1.0050549826687563,0.14358517938340992,0.09110305296815555
0.3860000000000001,0.0721,-1.322,0.037508648394073855,1.0050549826687563,0.1433620108338014,0.09110305296815555
0.387,-0.0044,-0.322,0.03741931168466008,1.0077343100257183,0.14294462909833963,0.09175136076279175
0.3880000000000001,-0.0353,-0.322,0.03725757824582511,1.000460574444954,0.1421890093332273,0.0899913595218538
0.389,-0.0636,-0.322,0.037005084123954174,0.9931335672679905,0.14100935501786319,0.0882184683326388
0.3900000000000001,-0.1408,0.678,0.037028596823193156,0.9680393201032061,0.14111920651427665,0.08214649806921293
0.391,-0.1717,0.678,0.03708323550986285,0.9680393201032061,0.14137447884314566,0.08214649806921293
0.3920000000000001,-0.1246,1.678,0.03709224483670036,0.9652498142191798,0.1414165704815713,0.08147153074836701
0.393,-0.0648,0.678,0.03700898439981659,0.9680393201032061,0.1410275771341569,0.08214649806921293
0.39400000000000013,-0.026,0.678,0.036908071178910165,0.9548336000844131,0.14055610985548334,0.07895115458133314
0.395,-0.0329,-0.322,0.03690116916676156,0.9624522234555045,0.1405238636061233,0.08079460715648858
0.39600000000000013,-0.0268,0.678,0.03689393453360667,0.959646477104318,0.14049006334907965,0.0801157101846349
0.397,-0.021,0.678,0.03690260302538453,0.959646477104318,0.14053056260370655,0.0801157101846349
0.39800000000000013,0.0054,-0.322,0.03690290616163575,0.9755548184751907,0.14053197885840688,0.08396499783650441
0.399,0.0101,0.678,0.0369028037705254,0.9802659644294138,0.1405315004864183,0.08510493791730692
0.40000000000000013,0.0318,0.678,0.03690328817023727,0.9802659644294146,0.14053376360528314,0.0851049379173071
0.401,0.0358,-1.322,0.03690092308799578,0.9884837506332018,0.14052271392439675,0.0870933679002002
0.40200000000000014,0.0248,-0.322,0.03690383472442472,0.9884837506332019,0.14053631711029554,0.08709336790020022
0.403,0.015,-1.322,0.03686289425664422,0.988483750633202,0.14034504295653535,0.08709336790020025
0.40400000000000014,0.017900000000000554,-0.322,0.03687619961264385,0.9810672997718347,0.14040720567345769,0.08529883432464923
0.405,0.0204,1.678,0.03694234377700448,0.9556562611697956,0.14071623167511665,0.07915021110670006
0.40600000000000014,0.02730000000000249,-0.322,0.036948856545651346,0.9556562611697955,0.14074665937609568,0.07915021110670004
0.40700000000000003,0.0385,0.6779999999999445,0.03695715476837218,0.9584736881775885,0.14078542873108085,0.07983193440759663
0.40800000000000014,0.04419999999999878,-0.322,0.03710716378100534,0.9612828576150029,0.14148627189441865,0.08051165965206787
0.40900000000000003,0.0387,-0.3220000000000555,0.037250688038736365,0.9479830224897222,0.14215681823719006,0.07729354344962212
0.41000000000000014,0.020499999999994006,-1.322,0.03739849143854272,0.9479830224897222,0.14284735676186977,0.07729354344962212
0.41100000000000003,-0.0065,-1.321999999999889,0.037355511289050715,0.9394110105175472,0.14264655320079062,0.07521940265348699
0.41200000000000014,-0.017400000000005085,0.6779999999999445,0.03732544670003103,0.9394110105175472,0.1425060912291854,0.07521940265348699
0.41300000000000003,-0.0403,-0.3219999999999445,0.037238064809506116,0.9316039759990915,0.14209784242133758,0.07333036086911635
0.41400000000000015,-0.03749999999999585,0.6780000000000556,0.03719745641086822,0.934493921603042,0.1419081196969499,0.07402963124988837
0.41500000000000004,-0.0188,1.6779999999999444,0.03721797680008561,0.9316039759990915,0.1420039910998716,0.07333036086911635
0.41600000000000015,-0.006899999999998557,0.6779999999999445,0.03738722627467069,0.934493921603042,0.14279472583693395,0.07402963124988837
0.41700000000000004,-0.0004,-0.322,0.037480532254111854,0.9295508228948355,0.14323065202991403,0.07283356634432192
0.41800000000000015,0.005300000000001199,-0.322,0.037435510635489146,0.934493921603042,0.14302031071068086,0.07402963124988837
0.41900000000000004,0.0107,-1.322,0.03745801881301852,0.934493921603042,0.14312546907459353,0.07402963124988837
0.42000000000000015,0.01530000000000031,-2.322,0.03741680807292166,0.9266454612896722,0.14293293220666806,0.07213056580578385
0.42100000000000004,0.0167,-0.322,0.03731420668039308,0.9344939216030415,0.14245357777828824,0.07402963124988823
0.42200000000000015,0.010099999999998601,-0.322,0.03726403044570081,0.9316039759990908,0.14221915405648092,0.07333036086911619
0.42300000000000004,0.0038,-1.322,0.03727667788320638,0.9149317598957211,0.14227824297356614,0.06929624102721332
0.42400000000000015,0.0005000000000001333,0.678,0.037269585993985714,0.9149317598957208,0.1422451096171884,0.06929624102721327
0.42500000000000004,0.0011,0.678,0.03726559124920599,0.9178741998125874,0.1422264461414478,0.07000821327965064
0.42600000000000016,0.001800000000000866,-1.322,0.03729013173329094,0.9039359077201657,0.14234109945589896,0.06663561180042009
0.42700000000000005,0.0057,-0.322,0.03745912836107662,0.8958197623861602,0.14313065289093405,0.06467177551562882
0.42800000000000016,0.013899999999997734,-0.322,0.03746124851794217,0.892804640033798,0.14314055827873937,0.06394221653966456
0.42900000000000005,0.0037,0.678,0.037467376497305103,0.8928046400337976,0.14316918824147426,0.06394221653966445
0.43000000000000016,0.004699999999998624,-0.322,0.037490671587208424,0.8753937870663953,0.14327802306553916,0.0597293712295527
0.43100000000000005,-0.0015,0.678,0.03744035625279041,0.8753937870663954,0.14304294946883364,0.05972937122955273
0.43200000000000016,-0.002699999999998979,0.678,0.03741098932114375,0.8701150069191308,0.1429057469573879,0.05845208261950293
0.43300000000000005,0.0019,0.678,0.03729977395110818,0.8413595949992562,0.14238614796543853,0.05149423268108893
0.43400000000000016,0.01559999999999869,-2.322,0.03680403277204105,0.8413595949992562,0.14007004168598552,0.05149423268108893
0.43500000000000005,0.0097,-0.322,0.035838935924012806,0.8358659048727528,0.13556110241609318,0.05016494302894043
0.43599999999999994,0.0188,0.678,0.03392328207761957,0.8390856525674019,0.1266111541563202,0.05094401450812306
0.43700000000000006,0.0038,-0.322,0.033255307537222535,0.8335769761551095,0.12349037239992146,0.0496110986749988
0.43799999999999994,-0.0021,-0.322,0.03372132765273924,0.8368055309279526,0.12566762166118062,0.05039230117315764
0.43900000000000006,-0.0188,-0.322,0.03429234668002417,0.8400216771056146,0.12833542657758978,0.05117050120543433
0.43999999999999995,-0.0301,-0.322,0.03403453742015085,0.8432255566709574,0.127130939900051,0.05194573312694261
0.44100000000000006,-0.0284,-0.322,0.030994740925810577,0.8581504884568689,0.11292898927321526,0.05555706848172024
0.44199999999999995,-0.0194,0.678,0.025803690372963248,0.8581504884568689,0.08867636453658917,0.05555706848172024
0.44300000000000006,-0.0013,0.678,0.02260893462740188,0.8432255566709574,0.07375044319687482,0.05194573312694261
0.44399999999999995,0.0056,-1.322,0.02169713134654891,0.8581504884568689,0.06949049184810166,0.05555706848172024
0.44500000000000006,-0.0008,-0.322,0.021540455052536725,0.85500253767053,0.06875849909921222,0.05479536945804116
0.44599999999999995,0.0092,-0.322,0.02130937326467727,0.858150488456869,0.06767888335912854,0.05555706848172027
0.44700000000000006,0.0038,1.678,0.02117926964270981,0.85500253767053,0.06707103832114834,0.05479536945804116
0.44799999999999995,-0.0007,-1.322,0.021134015824403933,0.8550025376705301,0.06685961216336032,0.054795369458041185
0.44900000000000007,0.0038,0.678,0.0211687711772908,0.858150488456869,0.06702198941678388,0.05555706848172027
0.44999999999999996,-0.0026,1.678,0.021200557593202038,0.8550025376705301,0.06717049577575099,0.054795369458041185
0.45100000000000007,-0.0112,-0.322,0.02103393702447973,0.85500253767053,0.06639204330539143,0.05479536945804116
0.45199999999999996,0.0056,0.678,0.020785348853597237,0.8464173089196386,0.06523063762054976,0.05271803064258244
0.45300000000000007,-0.0109,-0.322,0.020781797197359488,0.8750065245512912,0.06521404425759737,0.05963566662624621
0.45399999999999996,-0.0221,-0.322,0.020737351821267277,0.8945632993766359,0.06500639514752439,0.0643677534032766
0.45500000000000007,-0.0082,0.678,0.02066451764433988,0.9216602702515605,0.06466611336004453,0.07092431596126211
0.45599999999999996,0.0086,0.678,0.02071717653905519,0.9048048468751403,0.06491213608696161,0.06684586607404246
0.4570000000000001,0.0334,0.678,0.02086853850443929,0.9077801123314295,0.06561930025507885,0.06756578101142853
0.45799999999999996,0.0368,0.678,0.0206771168845803,0.9048048468751407,0.06472497709916761,0.06684586607404257
0.4590000000000001,0.034,-0.322,0.020202759042183948,0.9077801123314299,0.06250877391921512,0.06756578101142861
0.45999999999999996,0.0099,-1.322,0.019906179856814067,0.9245812972237197,0.06112315387675095,0.07163110699576287
0.4610000000000001,0.0066,-0.322,0.019902109273652956,0.9166479676471296,0.06110413608355849,0.069711506022572
0.46199999999999997,0.0096,-0.322,0.020146391429077523,0.9254308514625855,0.062245424033859145,0.07183667076668163
0.4630000000000001,0.0016,0.678,0.02035926885586661,0.9225125145075541,0.06323998887083275,0.07113053062654327
0.46399999999999997,-0.0151,-0.322,0.020155971950022136,0.9303958394185422,0.06229018429517535,0.07303803213962384
0.4650000000000001,-0.0355,0.678,0.020029989117279236,0.9353344723551568,0.061701591613469574,0.0742330164775155
0.46599999999999997,-0.0275,0.678,0.019948334832727583,0.9187299561592993,0.0613201022210608,0.07021527775366539
0.4670000000000001,-0.0054,-1.322,0.02053064884417295,0.9187299561592998,0.0640406773830032,0.0702152777536655
0.46799999999999997,-0.014,-1.322,0.02069263189031842,0.9216602702515637,0.06479746331522783,0.07092431596126289
0.4690000000000001,-0.0059,-0.3220000000000555,0.02070665216934693,0.9382129271074978,0.06486296615757538,0.07492950645571891
0.47,0.0061,-1.3219999999999446,0.02073689367960487,0.9332895260437954,0.06500425470645155,0.07373820772269007
0.4710000000000001,0.004,-0.322,0.020703230621318507,0.9095098150488551,0.06484698066109312,0.06798431133815273
0.472,0.0098,-0.322,0.020644402198724567,0.9124697392713466,0.06457213385648324,0.06870051420899173
0.4730000000000001,-0.0029,-0.3219999999999445,0.020620216766640255,0.9124697392713467,0.06445913934747922,0.06870051420899176
0.474,-0.0014,0.678,0.020623984862795274,0.9044301777924243,0.06447674391924921,0.06675520866105303
0.4750000000000001,0.0185,0.6779999999999445,0.02069673984672649,0.9095098150488552,0.06481665571649325,0.06798431133815276
0.476,0.0429,-0.322,0.020802179644343558,0.9095098150488552,0.06530927119343365,0.06798431133815276
0.4770000000000001,0.0201,-0.3219999999999445,0.020806623722578972,0.9095098150488552,0.06533003395824327,0.06798431133815276
0.478,0.0161,0.6779999999999445,0.020802889677334423,0.9262796265176279,0.06531258847256678,0.07204204600112131
0.4790000000000001,-0.0165,-0.322,0.020767364921962843,0.9262796265176279,0.06514661656531676,0.07204204600112131
0.48,-0.0122,-0.322,0.02080834709556151,0.9233639721615303,0.06533808556895314,0.07133655496039
0.4810000000000001,0.0317,0.678,0.02083410733114035,0.9262796265176279,0.06545843757097285,0.07204204600112131
0.482,0.0258,-0.322,0.020840940254052812,0.9262796265176279,0.06549036103493514,0.07204204600112131
0.4830000000000001,0.0102,-0.322,0.020918939878062873,0.9398866250337606,0.06585477582755864,0.07533448549220848
0.484,-0.0428,0.678,0.02093035151946063,0.9398866250337606,0.0659080910965261,0.07533448549220848
0.4850000000000001,-0.0076,0.678,0.020880128152882534,0.9162781412674337,0.06567344717421629,0.06962202038208244
0.486,-0.0265,0.678,0.020878762402672245,0.9329262966579602,0.06566706637961664,0.07365031833453226
0.4870000000000001,-0.056,0.678,0.0207944554128246,0.9329262966579602,0.06527318352938549,0.07365031833453226
0.488,-0.0716,0.678,0.02080017388447531,0.9358121587218522,0.06529990026920526,0.07434860063490313
0.4890000000000001,-0.0478,0.678,0.020810694624855266,0.9358121587218522,0.06534905324234412,0.07434860063490313
0.49,-0.0083,1.678,0.020829864946667245,0.938689148668168,0.06543861712084098,0.07504473617893807
0.4910000000000001,-0.0034,0.678,0.0211386932562214,0.9549466794846734,0.06688146515774851,0.07897851602203618
0.492,-0.0083,0.678,0.021146998057543945,0.9625644078414112,0.0669202652480072,0.0808217520335902
0.4930000000000001,-0.0128,1.678,0.02130605781910812,0.9625644078414112,0.06766339357408317,0.0808217520335902
0.494,-0.0009,-0.322,0.02130563398219494,0.9597589894485854,0.06766141340504027,0.08014293441671382
0.4950000000000001,0.0098,0.678,0.021662391294864337,0.9549466794846734,0.06932818608200297,0.07897851602203618
0.496,0.013,-0.322,0.022348180852893577,0.9940331608683654,0.07253219972622706,0.08843613995891933
0.4970000000000001,0.0159,0.678,0.022358219655730444,0.9967421162575957,0.07257910108377096,0.0890916167484935
0.498,0.0133,0.678,0.02236353826840355,0.9839217066951789,0.07260394967963169,0.08598950553086039
0.4990000000000001,0.0154,-0.322,0.022602022941827882,0.9839217066951789,0.07371815175320322,0.08598950553086039
0.5,0.0175,0.678,0.022616639879328666,0.988592980995981,0.0737864421881347,0.08711979800229903
0.5010000000000001,0.0155,-0.322,0.02261853354749503,0.9803761103920117,0.07379528941914255,0.08513158956400262
0.502,0.0245,-2.322,0.022937523832166802,0.9803761103920117,0.07528561427535697,0.08513158956400262
0.5030000000000001,0.0063,-2.322,0.02379496963005398,0.9850641984134518,0.07929160708094588,0.08626595039465766
0.504,0.0042,-2.322,0.025555251476272387,0.9877977507626008,0.08751565626182195,0.08692737882757925
0.5050000000000001,-0.0251,-0.322,0.02674233474320486,0.9905237593452112,0.09306171764399244,0.08758698192078072
0.506,-0.037,0.678,0.026870147112547677,0.9905237593452112,0.09365885793357605,0.08758698192078072
0.5070000000000001,-0.0261,-0.322,0.02692900605365368,0.9905237593452112,0.0939338473208892,0.08758698192078072
0.508,-0.0032,0.678,0.02676628933868369,0.9905237593452112,0.09317363368275017,0.08758698192078072
0.5090000000000001,0.0175,1.678,0.02660101922006778,0.9905237593452112,0.09240149052479714,0.08758698192078072
0.51,0.0201,-0.322,0.026394199501740066,0.993242286274143,0.09143522734441153,0.0882447747035011
0.5110000000000001,0.032,1.678,0.026682729290360207,0.9858616336275611,0.09278324054857963,0.08645890310111999
0.512,0.0342,-0.322,0.026688391805046924,1.001353585648065,0.0928096958570696,0.09020743842769188
0.5130000000000001,0.0284,-1.322,0.026797276319572,1.0040427903759648,0.09331840507566079,0.09085813621642595
0.514,0.0301,-1.322,0.026878636522168778,1.0040427903759648,0.09369852051510555,0.09085813621642595
0.5150000000000001,0.0054,-0.322,0.026885123636995387,1.0067248116152043,0.09372882836125566,0.09150709584066177
0.516,-0.049,0.678,0.02667592497846011,1.0040427903759637,0.09275145075546859,0.09085813621642568
0.5170000000000001,-0.0258,0.678,0.02658126491388698,1.0040427903759637,0.09230919826721691,0.09085813621642568
0.518,0.0093,1.678,0.02657663613088603,0.9994437291500614,0.09228757256044205,0.08974531689891525
0.5190000000000001,0.0155,0.678,0.02653967216661466,0.9994437291500586,0.09211487665907776,0.08974531689891457
0.52,0.0097,0.678,0.026550213993083133,1.0021380589285542,0.09216412814657066,0.09039725477883817
0.5210000000000001,-0.0058,0.678,0.02655241909354361,0.9948234067254392,0.09217443039144962,0.08862735308093247
0.522,-0.0011,-0.322,0.026554265068204408,0.9948234067254391,0.09218305479806363,0.08862735308093245
0.5230000000000001,-0.0054,-0.322,0.026657097072379392,0.997530216075945,0.09266348664567935,0.08928231060076193
0.524,-0.0173,-1.322,0.026699089471654277,1.004825164179722,0.09285967543078871,0.09104744456427562
0.5250000000000001,-0.0209,0.678,0.026897662356105943,1.009399706626355,0.09378740934523384,0.09215433115554643
0.526,-0.0046,-1.322,0.0269753816908612,1.0139536108254357,0.0941505146244852,0.09325622397973572
0.5270000000000001,0.0041,1.678,0.026666755716416562,1.0211312371532955,0.09270861189863411,0.09499296998923179
0.528,0.0067,-0.322,0.026591256929338766,1.0211312371532955,0.09235588103376825,0.09499296998923179
0.5290000000000001,0.01359999999999951,-0.322,0.026571483733159634,1.021131237153296,0.0922635005219828,0.0949929699892319
0.53,0.0114,0.678,0.026550583684211704,1.023768491850544,0.09216585534612659,0.09563109760444258
0.5310000000000001,0.00560000000000282,0.678,0.02652792159492134,1.0263989703432357,0.0920599779053828,0.09626758560431448
0.532,0.0183,1.678,0.02638245606636169,1.026398970343236,0.09138036193163022,0.09626758560431453
0.5330000000000001,0.007199999999999667,0.678,0.026285914217197705,1.0263989703432357,0.09092931773251915,0.09626758560431448
0.534,0.0057,0.678,0.0262851084822859,1.0334901668162777,0.09092555333333747,0.09798341847364421
0.5350000000000001,0.009399999999998068,1.678,0.025988872792587936,1.0308777830035045,0.08954153810507129,0.09735130878238103
0.536,0.0007,0.678,0.02608501084862586,1.0308777830035045,0.08999069577985401,0.09735130878238103
0.5370000000000001,0.006200000000000178,0.678,0.02601088089946379,1.0431212417096765,0.08964436013536935,0.10031381714922637
0.538,0.007,-0.322,0.025415314151755766,1.0552226524869783,0.08686186809628625,0.10324195465830432
0.5390000000000001,0.020900000000005792,0.678,0.024406109613656753,1.0526642032984392,0.082146857387791,0.10262289534597334
0.54,0.047,1.678,0.023960865459670022,1.050099520755162,0.08006667356509757,0.10200232776984136
0.5410000000000001,0.029100000000000757,-1.322,0.023946420191400777,1.0423676123340895,0.07999918517002469,0.10013146399361428
0.542,0.0325,0.678,0.023949930791426946,1.0397775328537127,0.08001558671806748,0.0995047512063573
0.5430000000000001,-8.770761894537755e-15,-0.322,0.02401191657955605,1.0371809853693024,0.08030518475669081,0.09887647337800157
0.544,-0.0395,0.678,0.02404026581914169,1.0222321427054637,0.08043763260366123,0.09525935238881965
0.5450000000000002,-0.05489999999999032,2.678,0.02405129712577758,1.0248665644833577,0.08048917094594304,0.09589679453209866
0.546,-0.0113,0.678,0.024033847095500157,1.0222321427054637,0.08040764428160938,0.09525935238881965
0.5470000000000002,0.0062000000000059065,0.678,0.02399890457972859,1.0248665644833577,0.08024439260187056,0.09589679453209866
0.548,0.0328,-1.322,0.02396206982405887,1.0371809853693026,0.08007230036400302,0.09887647337800162
0.5490000000000002,0.008999999999997135,-1.322,0.02398390228668687,1.0371809853693026,0.08017430178313828,0.09887647337800162
0.55,-0.0039,-1.322,0.023939598991026417,1.044198963318735,0.07996731647384296,0.10057458980837344
0.5510000000000002,-0.03970000000000529,-0.322,0.023876450809751208,1.044198963318735,0.07967228772625581,0.10057458980837344
0.552,-0.0635,-1.322,0.023828739034836174,1.0441989633187347,0.07944937797788167,0.10057458980837339
0.5530000000000002,-0.09379999999999733,0.678,0.023708304891892924,1.0203613662949778,0.07888670881399196,0.09480668693687773
0.554,-0.0818,0.678,0.023702717796171356,0.9959533928145369,0.07886060586343824,0.08890077199985962
0.5550000000000002,-0.02739999999999829,0.678,0.02372120748769313,0.9737052556630972,0.07894698983242648,0.0835174653673443
0.556,-0.0197,0.678,0.023588841606180223,0.9893875720552441,0.07832857550191984,0.08731206251821565
0.5570000000000002,0.015500000000001377,0.678,0.023299675138911433,0.9940331608683572,0.07697758773062197,0.08843613995891737
0.558,0.0217,0.678,0.02315253857965875,0.9940331608683572,0.07629016468970466,0.08843613995891737
0.5590000000000002,-0.007499999999989364,0.678,0.023158714618444768,0.9913168027882009,0.07631901918640265,0.08777887196521274
0.56,0.0404,-0.322,0.023094481685334713,0.9756654962940872,0.07601892247060463,0.08399177817467306
0.5610000000000002,0.008600000000003863,1.678,0.023042567141076817,0.9913168027882009,0.07577637735426607,0.08777887196521274
0.562,0.026,0.678,0.022820921077891545,0.9784253073559086,0.07474084538630354,0.08465956033964551
0.5630000000000002,0.020999999999998957,0.678,0.02259293697930513,0.9784253073559085,0.07367570207231647,0.08465956033964549
0.5640000000000001,0.0163,0.677999999999889,0.022415427695481722,0.9959533928145369,0.07284637744832971,0.08890077199985962
0.565,0.012,-0.321999999999889,0.02223667854416635,0.9885929809959729,0.07201126015468974,0.08711979800229708
0.5660000000000001,0.016,0.678,0.022301022491587448,0.9885929809959729,0.07231187553013067,0.08711979800229708
0.567,-0.0022,0.677999999999778,0.021998763078767046,0.9932422862741349,0.07089971742501931,0.08824477470349915
0.5680000000000001,0.001,-1.321999999999778,0.021928501717026008,0.9905237593452031,0.07057145584820707,0.08758698192077877
0.569,0.0096,0.677999999999889,0.02200799929899341,0.9823230393206726,0.0709428691109554,0.08560268138366167
0.5700000000000001,0.007,-0.322,0.021955520494287725,0.979574209626043,0.07069768776583144,0.08493755634303343
0.571,-0.005,-0.321999999999889,0.022064588649160718,0.9842661171314664,0.07120725495342123,0.08607284136133257
0.5720000000000001,-0.0253,0.677999999999778,0.022149558144710747,0.9970820982992173,0.07160423303495908,0.0891738810552595
0.573,0.0153,-1.322,0.022448717665073035,1.012402367431153,0.07300190842067768,0.09288087485291921
0.5740000000000001,0.0327,-1.322,0.022614192878084725,1.015062301041626,0.07377500978109199,0.09352449000819446
0.575,0.0276,-1.322,0.02259380071889053,1.015062301041626,0.07367973746974163,0.09352449000819446
0.5760000000000001,0.0135,-1.321999999999889,0.022497840283628067,1.0274942318142897,0.0732314096404726,0.09653260232465062
0.577,0.0004,-0.322,0.022511222644763896,1.0274942318142897,0.07329393212593352,0.09653260232465062
0.5780000000000001,0.0124,0.678,0.022533680236972362,1.036423036577618,0.07339885415487069,0.09869307506785954
0.579,0.0128,0.678,0.02253145932067649,1.043446112328305,0.07338847801829737,0.1003924249959898
0.5800000000000001,-0.0054,0.678,0.022642221889397376,1.0580952850119345,0.07390596151931605,0.10393703585180439
0.581,-0.0152,0.678,0.022794562284395282,1.0555437985932987,0.07461769691747878,0.10331966129739924
0.5820000000000001,-0.0124,-0.322,0.022939692744465456,1.0529861296964236,0.07529574744888907,0.10270079078960775
0.583,-0.0099,-1.322,0.02295297965441785,1.0743243042716524,0.07535782398574885,0.10786391684976715
0.5840000000000001,-0.0169,-0.322,0.02308371830492148,1.0743243042716526,0.07596863588152171,0.1078639168497672
0.585,-0.0236,0.678,0.023077695378142287,1.0860780967151888,0.07594049672519779,0.1107079423242507
0.5860000000000001,-0.0178,1.678,0.023511994512034423,1.0860780967151888,0.07796954533693792,0.1107079423242507
0.587,-0.0088,1.678,0.02407671590066659,1.097706041515762,0.08060792764121541,0.11352151686945242
0.5880000000000001,-0.0102,-0.322,0.02451856374744402,1.0952468361809986,0.08267224389271127,0.11292647125735307
0.589,-0.0116,-0.322,0.02472514744238978,1.097706041515762,0.0836374043701944,0.11352151686945242
0.5900000000000001,0.0007,-1.322,0.024715229459134656,1.097706041515762,0.08359106748258717,0.11352151686945242
0.591,0.0054,-0.322,0.024265101537817493,1.0903117853774917,0.08148806666453605,0.1117323536761155
0.5920000000000001,0.0192,-0.322,0.024092838636748583,1.097706041515762,0.08068325317772165,0.11352151686945242
0.593,0.0174,-0.322,0.023881961429806677,1.097706041515762,0.079698033381959,0.11352151686945242
0.5940000000000001,-0.0073,0.678,0.0238846073507073,1.1116404078710154,0.07971039514303843,0.1168931684513144
0.595,0.0034,-0.322,0.02355916461345062,1.1230037033898659,0.07818992438291121,0.1196427067033249
0.5960000000000001,0.0001,0.678,0.02297742877183038,1.1026079976182095,0.07547205043446308,0.11470762663760875
0.597,-0.0086,1.678,0.023267715179561485,1.1342531636469306,0.07682827057548716,0.12236470062137098
0.5980000000000001,-0.0167,0.678,0.02339199815440313,1.1383076896918676,0.07740892150910841,0.12334576059959944
0.599,-0.0048,-1.322,0.023378205026842312,1.1534086331374154,0.07734447992001747,0.12699968490140984
0.6000000000000001,0.0017,0.678,0.023547264857615123,1.147059020456941,0.07813432863985348,0.12546329055863725
0.601,0.0034,-0.322,0.0235440236017903,1.147059020456941,0.07811918546981601,0.12546329055863725
0.6020000000000001,0.0051,-0.322,0.023412867862669363,1.1470590204569409,0.07750642493308608,0.1254632905586372
0.603,0.0036,-0.322,0.022803386866441806,1.1430355371741818,0.07465892542694004,0.12448974189276654
0.6040000000000001,-0.0102,0.678,0.021137246523920974,1.1430355371741818,0.0668747060142535,0.12448974189276654
0.605,0.0025,1.678,0.019508460452974826,1.143035537174182,0.059265006021400744,0.1244897418927666
0.6060000000000001,0.0041,-1.322,0.019320524216488867,1.1540897541607358,0.05838696660115127,0.12716449345582623
0.607,-0.0002,-0.322,0.01932897781452663,1.1540897541607358,0.058426461870711245,0.12716449345582623
0.6080000000000001,0.0063,-0.322,0.019504747711633554,1.1517509449716423,0.05924766006771038,0.12659857969261393
0.609,0.0028,-0.322,0.020782894566682024,1.1517509449716423,0.06521917117479958,0.12659857969261393
0.6100000000000001,0.0128,1.678,0.022294824966953102,1.1557440877684113,0.07228292065139802,0.1275647869735249
0.611,-0.0021,0.678,0.022831857616643615,1.1557440877684113,0.07479194097236484,0.1275647869735249
0.6120000000000001,0.0115,-0.322,0.02331640975104006,1.1423478251304213,0.07705577195632671,0.12432333853138683
0.613,0.0023,-2.322,0.02317597173319763,1.1463737221119341,0.07639964454804712,0.1252974712317958
0.6140000000000001,0.0103,-0.322,0.023214369425887133,1.1440191385344274,0.07657903883867678,0.12472774059307654
0.615,0.0178,-0.322,0.023507919080157723,1.1480391746371819,0.07795050489051208,0.12570045515643982
0.6160000000000001,0.0327,-1.322,0.024933109751468303,1.1503855301234185,0.08460900574261354,0.12626819487169408
0.617,0.019,-0.322,0.027842877585563315,1.1613697900897266,0.09820346155316305,0.12892601917075333
0.6180000000000001,0.0209,-1.322,0.028890974189064552,1.1914552581463111,0.10310017626508304,0.13620569830204
0.619,0.0029,-0.322,0.028954841055460857,1.2170198510407977,0.10339856271461668,0.14239147653370365
0.6200000000000001,-0.0239,-1.322,0.028941772910920045,1.2170198510407984,0.10333750825130031,0.14239147653370382
0.621,-0.0202,1.678,0.028935015905335572,1.219233463797268,0.10330593947362897,0.1429270969388015
0.6220000000000001,-0.0365,1.678,0.02893223142462519,1.2317938472303382,0.10329293036014263,0.1459662905118152
0.623,-0.0278,0.678,0.0288223150000606,1.2296028467187299,0.10277940005058045,0.14543614151526327
0.6240000000000001,-0.0144,-1.322,0.028810164413213737,1.225850318550449,0.10272263242327134,0.144528154943646
0.625,-0.0024,1.678,0.02875113495949016,1.225850318550449,0.1024468463998082,0.144528154943646
0.6260000000000001,-0.009,-1.322,0.02865230340431698,1.225850318550449,0.10198510467809879,0.144528154943646
0.627,-0.0108,-2.322,0.02863800123172354,1.2220862679539746,0.1019182848270309,0.14361738032898064
0.6280000000000001,0.0059,-1.322,0.028638134976917008,1.228048014088194,0.10191890968551658,0.1450599239130685
0.629,0.0262,1.678,0.028652645551356857,1.2317938472303405,0.10198670319147839,0.14596629051181575
0.6300000000000001,0.0287,-0.322,0.028651325708911494,1.229602846718731,0.10198053687827974,0.14543614151526355
0.631,0.0264,-0.322,0.028660778646167093,1.239885511680221,0.10202470106770248,0.1479242032397275
0.6320000000000001,0.0199,2.678,0.028643929916945598,1.2398855116802212,0.10194598368613626,0.14792420323972755
0.633,0.0256,0.678,0.028650405671509782,1.245762080278095,0.10197623845706033,0.14934613670292174
0.6340000000000001,-0.002,1.678,0.02865685370933461,1.2398855116802212,0.10200636373518296,0.14792420323972755
0.635,-0.0459,1.678,0.028638340189776068,1.239885511680221,0.10191986844143915,0.1479242032397275
0.6360000000000001,-0.0518,1.678,0.02856435399737321,1.239885511680221,0.1015742044295458,0.1479242032397275
0.637,-0.0467,-0.322,0.028526642387177836,1.2274079351393692,0.10139801552115989,0.14490504617085181
0.6380000000000001,-0.0326,0.678,0.028536739953009333,1.2207995228521102,0.10144519141982848,0.14330603096098313
0.639,-0.0196,0.678,0.028524963933327402,1.2230062945102347,0.10139017377295152,0.1438399960486111
0.6400000000000001,0.0003,-1.322,0.02853102201232362,1.2230062945102347,0.1014184771606809,0.1438399960486111
0.641,-0.0033,1.678,0.028531543046624454,1.2170198510408,0.10142091143660337,0.14239147653370418
0.6420000000000001,0.0065,0.678,0.028626833608183466,1.2192334637972688,0.10186610961121283,0.14292709693880173
0.643,0.0036,1.678,0.028564516399751605,1.2192334637972688,0.10157496317460125,0.14292709693880173
0.6440000000000001,-0.0044,1.678,0.028511816223072164,1.219233463797269,0.10132874757805706,0.14292709693880176
0.645,0.0177,1.678,0.028502779162865984,1.2230062945102307,0.10128652636913768,0.14383999604861014
0.6460000000000001,0.0384,2.678,0.02850327810899155,1.2355283239339658,0.10128885744894975,0.14686990923147558
0.647,0.0249,-1.322,0.0285084977296691,1.2355283239339638,0.10131324355351017,0.1468699092314751
0.6480000000000001,0.0318,-2.322,0.02849784849698863,1.2429636171586813,0.10126349026343852,0.1486690020300705
0.649,0.0296,-0.322,0.028461441450868513,1.2407923404681684,0.10109339628759852,0.14814362553991758
0.6500000000000001,-0.0005,-1.322,0.0285216429040881,1.2370737548731316,0.10137465790095987,0.14724385193815145
0.651,-0.031,-0.322,0.02861250571296533,1.2370737548731316,0.10179916958386122,0.14724385193815145
0.6520000000000001,-0.0349,0.678,0.028645976913214986,1.2392515468667478,0.10195554726712114,0.14777080491419933
0.653,-0.0385,0.678,0.02866280280290476,1.2516110574947223,0.10203415794223432,0.1507613939727495
0.6540000000000001,-0.008799999999999112,0.678,0.028673035695159894,1.2537635983943598,0.10208196608690707,0.15128223702683993
0.655,-0.0048,1.678,0.028659920827154163,1.2537635983943598,0.10202069333123358,0.15128223702683993
0.6560000000000001,0.020600000000002176,0.678,0.028661329372707513,1.2414255184373084,0.10202727406597735,0.14829683347537898
0.657,0.0304,-0.322,0.02866423876460559,1.2377088351703618,0.10204086676541217,0.1473975201735182
0.6580000000000001,0.07500000000000136,0.678,0.02866753700434569,1.2377088351703616,0.10205627616470309,0.14739752017351815
0.659,0.0811,-1.322,0.028666692082347414,1.2398855116802077,0.10205232868317746,0.14792420323972427
0.6600000000000001,0.06369999999999654,-0.322,0.028665440339494825,1.2420583736242863,0.10204648053175579,0.14844996330833035
0.661,0.0481,-0.322,0.028648657488893357,1.2420583736242863,0.10196807093556626,0.14844996330833035
0.6620000000000001,0.004599999999993472,-1.322,0.02866280167797807,1.2398855116802077,0.1020341526865689,0.14792420323972427
0.663,-0.0248,-0.322,0.02865719872847512,1.2522387651346383,0.10200797566703693,0.15091327827111745
0.6640000000000001,-0.04040000000000966,-1.322,0.028675744632093995,1.2383435897688655,0.10209462225933866,0.14755110960066373
0.665,-0.0839,0.678,0.02869333320576432,1.2383435897688655,0.10217679619937954,0.14755110960066373
0.6660000000000001,-0.12489999999998938,1.678,0.028685582282131486,1.2383435897688655,0.1021405838295874,0.14755110960066373
0.667,-0.0771,2.678,0.02853423635498655,1.2383435897688655,0.1014334945922365,0.14755110960066373
0.6680000000000001,-0.019199999999994846,2.678,0.028475694053012097,1.2383435897688655,0.10115998454517562,0.14755110960066373
0.669,0.004,0.678,0.028402099888485244,1.2346176287227855,0.10081615209027951,0.14664955138590963
0.6700000000000002,-0.0029999999999986457,0.678,0.028428799019803264,1.236799745540397,0.10094089061980407,0.1471775508250182
0.671,0.0031,1.678,0.028361105566767224,1.236799745540397,0.10062462633054398,0.1471775508250182
0.6720000000000002,-0.0026999999999965585,-0.322,0.028310702677854637,1.2242907202692328,0.1003891436786233,0.14415078421304584
0.673,0.0128,0.678,0.02815411389131804,1.2176653906103296,0.099657559765276,0.14254767556387674
0.6740000000000002,0.026999999999997092,-1.322,0.02817886213630439,1.215448922034361,0.09977318374012147,0.14201136414577664
0.675,0.0139,-1.322,0.028175850221847147,1.215448922034361,0.09975911205456829,0.14201136414577664
0.6760000000000002,0.00999999999999758,0.678,0.028195694065909018,1.2087751312081747,0.09985182263375937,0.1403965295115743
0.677,-0.0009,-1.322,0.028181420459573798,1.2049577422709783,0.09978513624445104,0.13947284879868505
0.6780000000000002,0.015399999999999357,-1.322,0.028161087270626748,1.1843601662881975,0.09969013944251058,0.13448892287953604
0.679,0.0125,-0.322,0.028353070378904756,1.1804638267738832,0.1005870858762693,0.13354613876205398
0.6800000000000002,0.009200000000000555,1.678,0.02837823601098718,1.1735911051445858,0.10070465988656674,0.13188316951305176
0.681,0.0117,0.678,0.028277116081954434,1.1758864755962657,0.10023222686607144,0.1324385725516297
0.6820000000000002,0.01389999999999951,-1.322,0.028157226570269357,1.1966299180025435,0.09967210222325504,0.13745779327679897
0.683,0.0117,-0.322,0.028329068269699637,1.1643643744170564,0.10047494785304778,0.12965060863014083
0.6840000000000002,0.0134999999999996,-0.322,0.028314992385525203,1.168314406989912,0.10040918522306692,0.13060638467571997
0.685,0.0117,0.678,0.028317287445965744,1.168314406989912,0.10041990776160623,0.13060638467571997
0.6860000000000002,0.010200000000000334,-0.322,0.027952807911855244,1.1550639422771174,0.09871705681169327,0.1274002144652994
0.687,0.0117,-1.322,0.027481134543900197,1.1416596988233065,0.09651339551523377,0.1241568349321019
0.6880000000000002,-0.006100000000001532,0.677999999999889,0.027086564611530525,1.1416596988233065,0.09466996201276696,0.1241568349321019
0.6890000000000001,-0.013,-0.322,0.02692378045669465,1.1456880138527632,0.09390943329509963,0.12513155271940807
0.6900000000000002,-0.001800000000004907,-0.321999999999889,0.026876869317133102,1.1646554257971493,0.09369026412073478,0.1297210333499361
0.6910000000000001,-0.0239,0.677999999999889,0.0269671116315626,1.1606929411649634,0.09411187684920701,0.12876224432160138
0.6920000000000002,-0.003199999999999423,-0.322,0.02697673842049752,1.1537024483908418,0.09415685327489973,0.12707077838630423
0.6930000000000001,-0.0006,-0.32200000000011103,0.026973940687557416,1.1537024483908418,0.09414378224690283,0.12707077838630423
0.694,0.0016,-1.321999999999667,0.02702610102408033,1.1466693399476033,0.09438747570643434,0.12536900088142963
0.6950000000000001,0.0038,1.677999999999889,0.027775890867232592,1.133165800906663,0.09789049913342279,0.12210159513025555
0.696,0.0055,0.677999999999667,0.028940130386053142,1.1194993923683056,0.103329834363556,0.11879478039667045
0.6970000000000001,-0.0037,-2.321999999999778,0.028994395415976537,1.0916534266195195,0.10358336096547514,0.11205698607780837
0.698,-0.0085,-0.321999999999889,0.029011300721567056,1.0916534266195195,0.10366234267223583,0.11205698607780837
0.6990000000000001,-0.0191,0.678,0.028864738325981465,1.0756858859657197,0.10297760212801427,0.1081933741753172
0.7,-0.0228,0.678,0.02893219881525515,1.0781897081133598,0.10329277800893619,0.10879921556699333
0.7010000000000001,-0.0142,0.6780000000001111,0.029231751645945724,1.0781897081133598,0.1046922909432781,0.10879921556699333
0.702,-0.011,1.677999999999889,0.030947323461411384,1.0781897081133598,0.11270745454564356,0.10879921556699333
0.7030000000000001,-0.0084,0.678,0.03281356856690064,1.0781897081133598,0.12142656481999253,0.10879921556699333
0.704,0.0055,0.678,0.03313679469590511,1.139592826815228,0.12293667957075678,0.12365672089046721
0.7050000000000001,0.0038,-0.322,0.03335430586726594,1.1702382893069923,0.12395289329499894,0.13107189998458468
0.706,0.0058,0.678,0.033355413902750236,1.1593380578349177,0.12395807004458399,0.1284344077765787
0.7070000000000001,0.0044,-0.322,0.03331171955152139,1.1633051575201605,0.12375392972796112,0.12939431349372027
0.708,0.0059,0.678,0.033214409187212364,1.1633051575201605,0.1232992950206808,0.12939431349372027
0.7090000000000001,-0.0006,0.678,0.03242733124123569,1.1672587745147056,0.11962206131472575,0.1303509568497139
0.71,0.0082,1.678,0.031443710475473674,1.1633051575201605,0.11502657817074172,0.12939431349372027
0.7110000000000001,0.0093,-0.322,0.030928482058300632,1.1656207835006729,0.11261942737763497,0.1299546176942232
0.712,0.01,1.678,0.030811723774023497,1.1718698261807947,0.11207393185131757,0.13146667745355428
0.7130000000000001,0.0106,-1.322,0.03102565017493357,1.1718698261807947,0.11307339750277096,0.13146667745355428
0.714,0.0144,-0.322,0.03105210843668169,1.1718698261807945,0.11319701068796882,0.13146667745355423
0.7150000000000001,0.0165,-0.322,0.03078976085903156,1.1656207835006727,0.1119713209578194,0.12995461769422315
0.716,0.0142,-1.322,0.029737612395296775,1.1656207835006727,0.10705567592635637,0.12995461769422315
0.7170000000000001,0.0051,-0.322,0.027022484869334777,1.1656207835006727,0.09437058100599931,0.12995461769422315
0.718,-0.004,0.678,0.02595862990987333,1.134850636910994,0.0894002431440679,0.122509269209891
0.7190000000000001,-0.0126,0.678,0.02591478761263017,1.114671721486453,0.08919541162262438,0.11762664517254016
0.72,-0.0137,-1.322,0.025923945286226997,1.1260044263222455,0.08923819633815418,0.1203687815002512
0.7210000000000001,-0.0111,-0.322,0.025923841989073236,1.1236071585218619,0.08923771373312442,0.1197887227042326
0.722,-0.0212,-1.322,0.02592958786956928,1.1236071585218619,0.0892645585272626,0.1197887227042326
0.7230000000000001,-0.0302,-0.322,0.025930306247607504,1.1372242037140283,0.08926791479451576,0.12308359315560011
0.724,-0.0138,-1.322,0.025905533022559005,1.1372242037140283,0.08915217411264402,0.12308359315560011
0.7250000000000001,0.0109,-1.322,0.025816703734070984,1.1307837153623688,0.08873716305132046,0.12152520993348469
0.726,0.0012,0.678,0.025801097599591854,1.1243063338540964,0.08866425108114054,0.1199578997988221
0.7270000000000001,-0.0017,-0.322,0.025791264319689568,1.1243063338540964,0.08861830992819424,0.1199578997988221
0.728,0.0335,0.678,0.025793681574162772,1.120201131572305,0.08862960335811458,0.11896457786265477
0.7290000000000001,0.0288,-1.322,0.02581470807041176,1.1136622003963272,0.08872783929665172,0.1173823747627011
0.73,0.0158,0.678,0.025870467259326676,1.1160808295133942,0.08898834661990065,0.1179676022843976
0.7310000000000001,-0.0042,-2.322,0.02629524752693224,1.1046463219472509,0.09097292302132111,0.11520083309372932
0.732,-0.0369,-0.322,0.026749560908347104,1.1022026016916637,0.09309547833842137,0.11460953435395761
0.7330000000000001,-0.0239,-1.322,0.026772594711114876,1.0980147621991727,0.0932030924271491,0.11359621697091651
0.734,-0.0041,1.678,0.026750269937381665,1.0980147621991727,0.0930987909270636,0.11359621697091651
0.7350000000000001,-0.0077,-0.322,0.026907899509250623,1.100467782092244,0.09383523739681257,0.11418976591257286
0.736,0.0086,-0.322,0.027348159156865975,1.0980147621991727,0.0958921335706396,0.11359621697091651
0.7370000000000001,0.0057,-0.322,0.027540531279161964,1.1119452598211566,0.09679089748062962,0.11696693244845084
0.738,0.0137,-1.322,0.027845886980787278,1.1119452598211566,0.09821752146884061,0.11696693244845084
0.7390000000000001,0.0116,-2.322,0.02829780967963059,1.1160808295133948,0.10032890750013217,0.11796760228439776
0.74,-0.022,0.678,0.028330471402169644,1.1184942286051476,0.10048150329782807,0.11855156431452657
0.7410000000000001,-0.0079,-1.322,0.028331309792316628,1.1250050746584694,0.10048542026249845,0.120126971752172
0.742,0.0052,0.678,0.028230174685583684,1.122605672795035,0.10001291633168094,0.11954639658412204
0.7430000000000001,0.0172,-1.322,0.02823229713839778,1.12500507465847,0.10002283244617403,0.12012697175217216
0.744,0.0643,-0.322,0.02824339954480615,1.12739936997633,0.10007470296709356,0.12070631130663018
0.7450000000000001,0.0832,-0.322,0.028263402079220883,1.1233054714789152,0.10016815494873066,0.11971572450900467
0.746,0.0423,-1.322,0.028291459531007666,1.1095176156434103,0.10029923956105014,0.11637952358295836
0.7470000000000001,0.0268,-1.322,0.02838410868683275,1.1209024314536749,0.10073209706947074,0.11913426902722564
0.748,0.0127,-1.322,0.02839278574347133,1.1053574907035673,0.10077263633918726,0.11537291219665179
0.7490000000000001,-0.0355,0.678,0.02840812839134926,1.1119452598211705,0.100844317298111,0.11696693244845423
0.75,-0.0417,-1.322,0.028355565606613273,1.1095176156434172,0.10059874359769408,0.11637952358296003
0.7510000000000001,-0.1062,-0.322,0.028266446541634932,1.1095176156434172,0.10018237869856722,0.11637952358296003
0.752,-0.1145,0.678,0.02824118202941654,1.1070846480768013,0.10006434271957824,0.11579082663503552
0.7530000000000001,-0.0601,3.678,0.028222937764306427,1.0997534513517968,0.0999791053845135,0.11401692171502575
0.754,-0.039,2.678,0.028213802394608408,1.0972988345680825,0.09993642487295601,0.11342298637913191
0.7550000000000001,0.0056,0.678,0.028209197985070957,1.0948387145734093,0.09991491303917424,0.11282771944986225
0.756,0.0115,-1.322,0.02821105066840228,1.0948387145734093,0.09992356878874419,0.11282771944986225
0.7570000000000001,0.0166,-0.322,0.02821450940354886,1.0923730541866357,0.09993972802370432,0.11223111193062148
0.758,0.0213,-1.322,0.02824180386968864,1.0948387145734093,0.10006724796170831,0.11282771944986225
0.7590000000000001,0.017,0.678,0.02823879075439437,1.0948387145734095,0.10005317066583608,0.11282771944986231
0.76,0.029,0.678,0.02825877261108884,1.106374589524033,0.10014652604101851,0.11561901616431731
0.7610000000000001,0.0399,-1.322,0.028270220795642103,1.0923730541866359,0.10020001203986582,0.11223111193062153
0.762,0.0367,-1.322,0.028327576052287258,1.0948387145734095,0.10046797620278942,0.11282771944986231
0.7630000000000001,0.028,-0.322,0.028382369918079166,1.0874249614026732,0.10072397352961016,0.11103383862540533
0.764,0.0037,-0.322,0.02870592518667442,1.0831799894352911,0.10223562602286025,0.11000669709030514
0.7650000000000001,-0.026,0.678,0.028732602297114693,1.0831799894352911,0.10236026167068892,0.11000669709030514
0.766,-0.0141,1.678,0.028707909835682666,1.0831799894352907,0.10224489831700204,0.11000669709030503
0.7670000000000001,-0.0177,0.678,0.028689543753551653,1.0789183158814528,0.10215909185195785,0.10897551432871791
0.768,0.012,1.678,0.02898580870374099,1.0814146539418572,0.10354324378544578,0.10957954482107335
0.7690000000000001,-0.0079,1.678,0.029084214570169784,1.0814146539418565,0.10400299668634384,0.10957954482107318
0.77,0.003,-0.322,0.02911971564427213,1.078918315881452,0.10416885795453726,0.1089755143287177
0.7710000000000001,0.0063,1.678,0.02909163407917177,1.0721276294174054,0.10403766068464695,0.10733239485168462
0.772,0.0034,1.678,0.029118526220556842,1.072127629417405,0.1041633009585639,0.10733239485168451
0.7730000000000001,0.0059,0.678,0.029068921894818914,1.0678218468413239,0.10393154919941844,0.10629053917890581
0.774,-0.0163,-0.322,0.028925646939021773,1.0678218468413243,0.10326216759703763,0.10629053917890592
0.7750000000000001,0.0106,-0.322,0.028892591740783798,1.0678218468413205,0.10310773347810563,0.106290539178905
0.776,0.007,0.678,0.028872996437959927,1.0753707550602047,0.10301618408532863,0.1081171230140527
0.7770000000000001,0.0037,0.678,0.028876518126867055,1.0753707550602039,0.10303263744070135,0.10811712301405249
0.778,0.0186,-0.322,0.028899102533913656,1.0753707550602039,0.10313815194945526,0.10811712301405249
0.7790000000000001,0.021100000000005975,0.678,0.028707648816491287,1.0728603541109327,0.1022436788335019,0.107509689771957
0.78,0.048,0.678,0.028564075034465806,1.0685575240736773,0.10157290111287805,0.1064685485150296
0.7810000000000001,0.050499999999992745,-0.322,0.028528827997408635,1.0660310787396168,0.10140822670754854,0.10585723306731558
0.782,0.0178,0.678,0.02853790426564524,1.0426927177602154,0.10145063109666215,0.1002101286559551
0.7830000000000001,-0.004000000000006217,-0.322,0.028469841992720818,1.0426927177602154,0.10113264367828642,0.1002101286559551
0.784,-0.032,0.678,0.028764797594542132,1.0356645330829384,0.10251067832697894,0.09850954253810659
0.7850000000000001,-0.05019999999999641,-0.322,0.028886915885729822,1.044523498741428,0.1030812158433259,0.10065311654890806
0.786,-0.034,1.678,0.02887813730260825,1.0471018388097457,0.10304020224116593,0.10127698879026363
0.7870000000000001,-0.04270000000000178,-1.322,0.029032994181463264,1.0496738456561008,0.10376369466962934,0.10189932860328307
0.788,-0.0507,-1.322,0.02905723201587899,1.0496738456561008,0.10387693400269472,0.10189932860328307
0.7890000000000001,-0.01879999999999518,0.678,0.029027171688813524,1.0426927177602154,0.10373649194296962,0.1002101286559551
0.79,0.0029,-1.322,0.029227274676816874,1.0214631015936575,0.10467137451198273,0.09507327010742758
0.7910000000000001,-0.0011000000000007993,-0.322,0.029553810005039028,1.0214631015936575,0.10619694986479433,0.09507327010742758
0.792,-0.0047,0.678,0.029883050594083364,1.0169428257029833,0.10773516421521676,0.09397951421148776
0.7930000000000001,-0.007900000000000622,0.678,0.030268791804755665,1.0293520448148366,0.1095373498677444,0.09698213106405656
0.794,-0.0107,0.678,0.03027759754618048,1.0371809853693015,0.10957849035368834,0.09887647337800134
0.7950000000000002,-0.01309999999999185,-0.322,0.02962365358528147,1.051917410847006,0.10652325956350324,0.10244219649781593
0.796,0.0236,1.678,0.028453314187866643,1.066450224846196,0.10105542565762418,0.10595865243560615
0.7970000000000002,0.008000000000001044,-1.322,0.028138039644156173,1.0621214266297123,0.09958246076934602,0.10491122774602447
0.798,0.0127,-1.322,0.028056523770166084,1.0577749135507841,0.09920161803205552,0.10385951665098592
0.7990000000000002,0.00829999999999909,-0.322,0.028061212258995848,1.065395012183049,0.09922352268488302,0.10570332619010674
0.8,0.0042,0.678,0.027843623799603548,1.0772462361968298,0.09820694787041362,0.10857092685269443
0.8010000000000002,0.007799999999999245,-0.322,0.027561293562721936,1.0704449424496116,0.0968878990156232,0.10692524076716456
0.802,0.0044,-1.322,0.02545743412130727,1.0847295596817605,0.0870586528906263,0.11038164137119418
0.8030000000000002,-0.004399999999999445,-0.322,0.022774694212915562,1.0822408679363706,0.07452487314762091,0.10977946103186735
0.804,-0.0019,-0.322,0.021983618784725444,1.0147283432371454,0.07082896317661566,0.09344368336575051
0.8050000000000002,0.005000000000000511,-0.322,0.021634812226850725,0.9839217066951695,0.06919933648204038,0.08598950553085813
0.806,0.0073,-0.322,0.021632905819336204,0.9839217066951695,0.06919042973270821,0.08598950553085813
0.8070000000000002,0.013199999999998002,0.678,0.02164504191918258,0.9839217066951695,0.06924712967664903,0.08598950553085813
0.808,0.0042,0.678,0.02158392745369208,0.9839217066951695,0.06896160246352882,0.08598950553085813
0.8090000000000002,-0.010599999999995093,1.678,0.021479221133993736,0.979228148971101,0.06847241380058963,0.08485382121472487
0.81,0.0115,-0.322,0.021412563010535936,0.9764706069931915,0.06816098657840954,0.08418658809232574
0.8110000000000002,0.020299999999991006,0.678,0.021360858543503457,0.9811773557773429,0.06791942294434743,0.08532546420473167
0.812,-0.0202,-1.322,0.021039686659457695,0.973705255663096,0.06641890564049559,0.08351746536734402
0.8130000000000002,0.04429999999999438,0.677999999999889,0.020741826045976845,0.9689622117179642,0.06502729875687356,0.08236980703737515
0.8140000000000001,0.019,-0.322,0.020559292551765054,0.9764706069931915,0.06417450098657339,0.08418658809232574
0.8150000000000002,0.011399999999995315,-0.321999999999889,0.020570626779801458,0.9764706069931915,0.06422745457977148,0.08418658809232574
0.8160000000000001,-0.0097,0.678,0.020409520809739044,0.9764706069931915,0.063474766353183,0.08418658809232574
0.8170000000000002,-0.04159999999999613,0.678,0.020360523523413596,0.9605774323240258,0.06324585068644722,0.08034097027606252
0.8180000000000001,-0.0242,0.677999999999889,0.020309469108866707,0.9577661938461295,0.06300732410217526,0.07966074439285134
0.8190000000000002,-0.01909999999999687,-0.322,0.020287588361922154,0.9492825279269347,0.06290509709837305,0.07760798039288246
0.8200000000000001,-0.005,-0.322,0.020295968882527674,0.9358121587218425,0.062944250949655,0.07434860063490079
0.821,0.0168,-0.321999999999889,0.02029495024014737,0.9386891486681581,0.06293949184528126,0.07504473617893569
0.8220000000000001,0.0128,0.677999999999889,0.02028530819991046,0.9221450401080722,0.06289444416539826,0.07104161408676535
0.823,0.0092,-0.32200000000011103,0.02050400926092147,0.9052986425287981,0.06391621706246484,0.0669653481412083
0.8240000000000001,-0.0007,-1.321999999999667,0.020566487264757332,0.9023151947899182,0.06420811473633618,0.06624345336452873
0.825,0.0022,1.677999999999889,0.020507669207197717,0.9052986425287981,0.06393331635723964,0.0669653481412083
0.8260000000000001,0.0047,0.677999999999889,0.020488824644279795,0.9133305594081301,0.06384527442658972,0.06890880395119381
0.827,0.0116,-0.322,0.020497424387220114,0.9271276245288372,0.06388545248616352,0.07224723321688817
0.8280000000000001,-0.004,-0.321999999999889,0.020529528018611982,0.9271276245288372,0.06403544087808988,0.07224723321688817
0.829,-0.0021,0.677999999999889,0.02044970129792787,0.9271276245288372,0.06366248987693938,0.07224723321688817
0.8300000000000001,0.0069,-0.322,0.020576556775936897,0.9407223573298348,0.0642551595634734,0.07553670481429549
0.831,0.0084,-0.322,0.020198628212697273,0.9407223573298348,0.06248947465476539,0.07553670481429549
0.8320000000000001,0.0313,-0.322,0.019590598674359812,0.9484543384710118,0.05964875637010257,0.07740758618636075
0.833,0.0476,-0.322,0.020114803171539773,0.9456070593797234,0.062097843472208335,0.0767186396776072
0.8340000000000001,0.0269,-2.322,0.02128286682820307,0.971281044763736,0.06755504510127121,0.08293088724063123
0.835,-0.003,0.678,0.02152565312046674,0.9760128201442342,0.06868934436835077,0.08407581895406056
0.8360000000000001,-0.0311,0.678,0.020990255578369376,0.9760128201442341,0.06618796328157305,0.08407581895406054
0.837,-0.0131,-0.322,0.02074790063681019,0.9629164572641722,0.06505567928802228,0.08090693624382868
0.8380000000000001,-0.0034,-0.322,0.020528329506529473,0.9553015362103743,0.06402984142120086,0.07906437950588902
0.839,-0.036,0.678,0.020430843168616368,0.9476254252085144,0.0635743845640031,0.07720701684280593
0.8400000000000001,-0.049,0.678,0.022296277231310183,0.9447756480169782,0.07228970564070068,0.07651746587716947
0.841,-0.0449,0.678,0.022777174169296952,0.9398866250337509,0.07453645952129782,0.0753344854922061
0.8420000000000001,-0.0484,1.678,0.022963863912720688,0.9476254252085144,0.07540867531718318,0.07720701684280593
0.843,-0.0186,1.678,0.0229994715185608,0.9476254252085144,0.07557503430240559,0.07720701684280593
0.8440000000000001,-0.0145,1.678,0.02298579109173085,0.9524747260007397,0.07551111925192287,0.0783803857833223
0.845,0.0109,1.678,0.022965797770111804,0.9496395012079413,0.07541771031253208,0.07769435601247672
0.8460000000000001,0.0012,0.678,0.022990756823368295,0.9496395012079414,0.0755343191851001,0.07769435601247675
0.847,0.0161,0.678,0.02306758186469707,0.9361742684130722,0.07589324631916561,0.07443621909433519
0.8480000000000001,0.0137,1.678,0.023220337189181425,0.9283400143559836,0.0766069202708108,0.07254059109009997
0.849,0.0069,1.678,0.02345233220671094,0.9233639721615204,0.07769080262634366,0.07133655496038761
0.8500000000000001,0.0134,-0.322,0.023479904359459645,0.9233639721615204,0.07781961991813993,0.07133655496038761
0.851,0.0116,1.678,0.02348143376339701,0.9233639721615204,0.07782676530410486,0.07133655496038761
0.8520000000000001,0.0135,-0.322,0.023468779062255956,0.9233639721615204,0.0777676424512635,0.07133655496038761
0.853,0.0088,-0.322,0.023522365738869202,0.9154200929090522,0.07801799978174088,0.06941440131774228
0.8540000000000001,-0.0017,-1.322,0.023519345656864962,0.9233639721615204,0.07800388993735062,0.07133655496038761
0.855,0.0048,0.678,0.023542168478536196,0.9233639721615204,0.07811051832090965,0.07133655496038761
0.8560000000000001,0.0136,-1.322,0.02353746654983923,0.9233639721615204,0.07808855087692794,0.07133655496038761
0.857,-0.0031,-0.322,0.023527085321016224,0.9312400891661529,0.07804004970276555,0.07324231240070259
0.8580000000000001,-0.0009,0.678,0.023503744070552914,0.931240089166153,0.07793099921623933,0.07324231240070261
0.859,0.0013,-0.322,0.02355972704221034,0.9361742684130723,0.07819255205403705,0.07443621909433522
0.8600000000000001,-0.0248,-1.322,0.02357880005489493,0.9225125145075453,0.07828166130360555,0.07113053062654115
0.861,0.0151,-0.322,0.023609073672196168,0.9225125145075455,0.07842309985681409,0.07113053062654118
0.8620000000000001,0.01,0.678,0.023528118490843627,0.9274931248217427,0.07804487667947443,0.07233567208876276
0.863,0.0053,-1.322,0.023475480081525706,0.9225125145075455,0.0777989496604782,0.07113053062654118
0.8640000000000001,-0.0077,-0.322,0.023102303326450576,0.9225125145075463,0.07605546523297545,0.07113053062654139
0.865,0.0043,0.678,0.02303086992228586,0.9225125145075463,0.07572172786570663,0.07113053062654139
0.8660000000000001,0.0006,-0.322,0.02304217860516131,0.9254308514625785,0.07577456211173286,0.07183667076667993
0.867,0.0104,-0.322,0.023074733417456212,0.9254308514625785,0.07592665842401526,0.07183667076667993
0.8680000000000001,0.0074,-1.322,0.02271428574962699,0.9254308514625785,0.07424264438175955,0.07183667076667993
0.869,0.0099,0.678,0.022633987416137258,0.9303958394185355,0.07386749000226026,0.07303803213962223
0.8700000000000001,-0.0021,0.678,0.02257353492157045,0.9382129271074902,0.07358505552195693,0.07492950645571705
0.871,0.0,-0.322,0.02257376061088423,0.9410825776770716,0.07358610994402015,0.07562386611554275
0.8720000000000001,0.0301,-0.322,0.022537597575390277,0.9488116233434354,0.07341715598754382,0.07749403720067818
0.873,0.0171,-0.322,0.02250214984132928,0.9459654196512102,0.0732515439243992,0.07680535090260518
0.8740000000000001,0.0051,0.678,0.022485592998020693,0.94596541965121,0.07317419023587347,0.07680535090260512
0.875,-0.0058,-1.322,0.022572086605637164,0.9544785693890921,0.07357828897971803,0.07886524900263871
0.8760000000000001,-0.0091,1.678,0.022610535074868456,0.9382129271074976,0.0737579204987085,0.07492950645571886
0.877,-0.012,0.678,0.0227240243547343,0.9353344723551589,0.07428814321339705,0.074233016477516
0.8780000000000001,-0.0041,-0.322,0.022976120041745474,0.9382129271074984,0.07546593603829074,0.07492950645571904
0.879,-0.031,1.678,0.02299962878670579,0.9382129271074988,0.07557576906028642,0.07492950645571915
0.8800000000000001,-0.0275,0.678,0.023098390678156493,0.9353344723551601,0.07603718531259386,0.0742330164775163
0.881,-0.0112,-1.322,0.023343736144578305,0.9382129271074996,0.07718344105936115,0.07492950645571933
0.8820000000000001,0.049,-0.322,0.023436499523801398,0.9459654196512184,0.07761683222030158,0.07680535090260716
0.883,0.0697,-2.322,0.02387278434587476,0.9459654196512184,0.07965515798120698,0.07680535090260716
0.8840000000000001,0.0455,-1.322,0.02393835577302052,0.9488116233434445,0.07996150815056506,0.07749403720068039
0.885,0.0158,-0.322,0.02398510146138017,0.925430851462589,0.08017990433574958,0.07183667076668246
0.8860000000000001,-0.0121,0.678,0.023983886638063272,0.9254308514625891,0.08017422867265864,0.07183667076668249
0.887,-0.0303,-0.322,0.023788775157338925,0.9254308514625891,0.07926266646080163,0.07183667076668249
0.8880000000000001,-0.0466,-0.322,0.023792165917782916,0.9254308514625891,0.07927850811747261,0.07183667076668249
0.889,-0.0912,-0.322,0.023793658747905934,0.9332895260437944,0.07928548263031938,0.07373820772268982
0.8900000000000001,-0.0466,0.678,0.023531189479400735,0.9332895260437926,0.07805922435963818,0.07373820772268937
0.891,-0.0292,-1.322,0.023018919040744764,0.9382129271074919,0.07566589326299233,0.07492950645571748
0.8920000000000001,-0.0136,0.678,0.022593200529563952,0.938212927107491,0.07367693338098151,0.07492950645571726
0.893,0.0005,-1.322,0.02209483507211017,0.9216602702515566,0.07134856645442673,0.07092431596126117
0.8940000000000001,0.0049,-0.322,0.022020314992675448,0.9077801123314256,0.07100040811856108,0.06756578101142759
0.895,0.017,-0.322,0.02212266258232005,0.8936844023080718,0.07147857677807977,0.0641550896469228
0.8960000000000001,-0.0301,0.678,0.023913900862055984,0.8845863703910334,0.07984725463433506,0.061953669580674275
0.897,0.0278,-0.322,0.02674462169358935,0.8815328271062096,0.09307240229229276,0.061214814021398806
0.8980000000000001,0.0353,0.678,0.028318107422804842,0.8867436396357365,0.1004237386991725,0.062475656736456456
0.899,0.0141,-0.322,0.028567373747031,0.8775736539956519,0.10158831272121112,0.060256826270772126
0.9000000000000001,-0.0049,0.678,0.028563445849255648,0.8598544500994614,0.10156996155514567,0.05596937032747392
0.901,0.0009,-0.322,0.02880631437240058,0.8683068316788314,0.10270464500548152,0.05801456456135738
0.9020000000000001,0.0165,-0.322,0.02959733271344508,0.8589400384735681,0.10640028826494045,0.05574811323358723
0.903,0.0024,-1.322,0.031791796305472436,0.8620736111891439,0.11665283761960539,0.056506333244026916
0.9040000000000001,-0.010499999999997314,-0.322,0.034553529586277325,0.8651958347821646,0.1295556749547713,0.05726180714559876
0.905,0.0016,-0.322,0.035055624988615565,0.856712760462994,0.13190146821009135,0.055209186293090406
0.9060000000000001,-0.0018999999999978017,-1.322,0.03516601057628156,0.8535595073129973,0.13241719045296702,0.05444620427437885
0.907,0.008,0.678,0.03513987534843025,0.8449596167510749,0.13229508648440974,0.05236531779000606
0.9080000000000001,0.016799999999999444,-1.322,0.035148400736822225,0.844959616751075,0.1323349171590101,0.05236531779000609
0.909,0.0143,0.678,0.03517960747073164,0.8417623373164228,0.13248071523958277,0.0515916828798377
0.9100000000000001,0.016599999999997513,-0.322,0.03518494448890575,0.8503945620173557,0.1325056498260738,0.053680393146660545
0.911,0.0054,-1.322,0.035119213030851575,0.8503945620173557,0.13219855199118472,0.053680393146660545
0.9120000000000001,-0.012700000000000466,0.678,0.03513438582809742,0.8535595073129975,0.1322694394067593,0.05444620427437888
0.913,-0.0148,0.678,0.03519718874643238,0.8535595073129975,0.13256285508345836,0.05444620427437888
0.9140000000000001,0.005500000000001776,-0.322,0.03539096131080104,0.8449596167510751,0.13346816186867339,0.05236531779000612
0.915,0.0135,0.678,0.03546552662255833,0.8449596167510751,0.1338165315302686,0.05236531779000612
0.9160000000000001,0.015699999999998555,0.678,0.035574565984170824,0.8503945620173559,0.1343259641955426,0.05368039314666057
0.917,0.0092,0.678,0.035577425389306215,0.8535595073129976,0.13433932335647017,0.054446204274378907
0.9180000000000001,0.014999999999998823,-1.322,0.03565979888529671,0.8567127604629943,0.13472417290978567,0.05520918629309046
0.919,0.0097,-1.322,0.03565785727513679,0.8661036417122803,0.1347151016934463,0.057481466123546904
0.9200000000000002,-0.005100000000001266,0.678,0.03568592545382587,0.8661036417122803,0.13484623642192886,0.057481466123546904
0.921,-0.0108,-1.322,0.03571290799825153,0.8629847025130615,0.13497229905948802,0.056726786935654534
0.9220000000000002,-0.0016999999999989341,-0.322,0.035713010155015636,0.8629847025130615,0.13497277633660928,0.056726786935654534
0.923,0.0031,-0.322,0.03559368889442753,0.8806409254645111,0.13441530656691936,0.06099900359238965
0.9240000000000002,0.01979999999999858,1.678,0.03556537463652687,0.8836975506465475,0.1342830221546275,0.06173860486792858
0.925,0.0134,-0.322,0.035580550459442264,0.8836975506465475,0.13435392370615154,0.06173860486792858
0.9260000000000002,0.02320000000000282,-0.322,0.0356397880421977,0.878468669817052,0.1346306821099171,0.060473390227329595
0.927,0.0359,0.678,0.0356491260705392,0.86389483297125,0.134674309444084,0.05694700812984578
0.9280000000000002,0.011199999999992761,-0.322,0.035655316012610586,0.86389483297125,0.13470322889702913,0.05694700812984578
0.929,-0.0214,-0.322,0.03568510378806041,0.8723080654325669,0.1348423975936867,0.05898272958380892
0.9300000000000002,-0.034399999999997335,0.678,0.03561570568180383,0.8576295468341739,0.13451816915257664,0.05543101799607651
0.931,-0.0224,-1.322,0.03559802452469946,0.8544796768719979,0.13443556266207995,0.054668854595899624
0.9320000000000002,-0.055099999999999025,-0.322,0.03567626614456609,0.845889141438162,0.13480110806104942,0.05259023174028521
0.933,-0.0507,0.678,0.035362159007238034,0.8490708810333253,0.13333359730361036,0.05336010652795798
0.9340000000000002,-0.030699999999992764,0.678,0.03468961059416034,0.8228609392028872,0.13019144638183983,0.04701817539308507
0.935,0.0019,0.678,0.03441682215228047,0.8172429064221304,0.12891697686048784,0.045658798968691745
0.9360000000000002,0.0061999999999955814,0.678,0.034399452569825816,0.8261313737424418,0.1288358260489486,0.04780951139700091
0.937,-0.0137,-0.322,0.03438673013779011,0.8228609392028872,0.1287763867568905,0.04701817539308507
0.9380000000000002,0.004400000000000711,-1.321999999999778,0.0342700611717075,0.8228609392028872,0.12823130852580686,0.04701817539308507
0.9390000000000001,0.0076,0.677999999999778,0.03396066897932978,0.8316893674023619,0.12678582602437696,0.049154360358029066
0.9400000000000002,0.004599999999997025,-1.321999999999778,0.03271647368835762,0.8316893674023619,0.12097293686372834,0.049154360358029066
0.9410000000000001,-0.0088,0.677999999999889,0.03242867244880305,0.8316893674023619,0.11962832744592482,0.049154360358029066
0.9420000000000002,-0.010899999999998534,-0.321999999999889,0.0323315592195428,0.8316893674023619,0.11917461375498054,0.049154360358029066
0.9430000000000001,-0.0043,0.678,0.032346643998342785,0.8316893674023618,0.11924508994775626,0.04915436035802904
0.9440000000000002,0.02580000000001459,0.677999999999778,0.032399727433476404,0.8261313737424418,0.11949309613049716,0.04780951139700091
0.9450000000000001,0.0915,-1.321999999999889,0.03240193632108497,0.8261313737424418,0.11950341606895866,0.04780951139700091
0.9460000000000002,0.11979999999999438,-0.32200000000011103,0.03241412965036881,0.8349252213616842,0.11956038338923429,0.04993732901569683
0.9470000000000001,0.0945,-1.322,0.03241609627008839,0.8316893674023618,0.11956957145041247,0.04915436035802904
0.948,0.0401,-1.321999999999889,0.032310600762393615,0.8316893674023619,0.11907669569559676,0.049154360358029066
0.9490000000000001,0.005,-0.32200000000011103,0.032119331959335855,0.8468176458162983,0.11818308650085696,0.052814898809852295
0.95,-0.0396,-1.322,0.03208965397589475,0.8553988565868794,0.11804443075323721,0.054891265408180824
0.9510000000000001,-0.0689,-1.321999999999778,0.03209518954037801,0.8701150069191184,0.11807029294948268,0.058452082619499926
0.952,-0.1168,0.678,0.03217069369262316,0.8701150069191178,0.1184230488804482,0.05845208261949979
0.9530000000000001,-0.1356,0.677999999999889,0.0321775459026796,0.873208478361023,0.11845506245408297,0.059200599460139065
0.954,-0.0591,-0.322,0.032181991545197346,0.8824238272670948,0.11847583252723068,0.061430406322139135
0.9550000000000001,-0.0282,-0.322,0.03217887019759517,0.8824238272670949,0.11846124956925376,0.06143040632213916
0.956,0.0,-0.322,0.03217851392372633,0.8854742979581194,0.11845958505522979,0.062168518416266694
0.9570000000000001,0.0084,-0.322,0.032178932454516494,0.880255971394604,0.1184615404340286,0.06090585755577369
0.958,-0.0148,-0.32200000000011103,0.03223917118133506,0.8771873538532918,0.11874297618990685,0.06016335452954933
0.9590000000000001,0.0063,-1.322,0.032280124729941816,0.8719194323970384,0.11893431145737944,0.05888869336030246
0.96,0.0125,-1.322,0.032265576773741526,0.8863613360290906,0.11886634330356963,0.062383152023487334
0.9610000000000001,0.0183,0.678,0.032259167765925516,0.8863613360290907,0.11883640037392303,0.06238315202348736
0.962,0.0233,0.678,0.032379119423730264,0.8863613360290937,0.11939681536384815,0.06238315202348809
0.9630000000000001,0.0374,-0.322,0.0324463213498432,0.9107456581066582,0.11971078323586234,0.0682833441104039
0.964,0.0243,-0.322,0.03247937195437448,0.9344939216030032,0.11986519589296431,0.07402963124987896
0.9650000000000001,0.0282,-1.322,0.03249394427594465,0.9344939216030033,0.11993327788195379,0.07402963124987899
0.966,-0.0045,0.678,0.03246707939101208,0.9316039759990525,0.11980776495037485,0.07333036086910692
0.9670000000000001,-0.0263,0.678,0.03246997411159049,0.9287050375019651,0.11982128910530089,0.07262891450834431
0.968,-0.0063,1.678,0.032470513274425725,0.9422770123998798,0.1198238080778637,0.07591287945277778
0.9690000000000001,-0.0172,0.678,0.032614229574787865,0.9508231866884576,0.12049525164516,0.07798076839184588
0.97,-0.014,-0.322,0.03260282913272447,0.9459654196511766,0.12044198869956155,0.07680535090259706
0.9710000000000001,0.0009,-0.322,0.032636340188981545,0.9459654196511766,0.12059855259036878,0.07680535090259706
0.972,-0.0072,1.678,0.03264058761571456,0.938212927107457,0.12061839659797446,0.07492950645570902
0.9730000000000001,0.0095,0.678,0.03264288117573,0.9410825776770385,0.1206291121265171,0.07562386611553475
0.974,0.0116,0.678,0.03266671370270189,0.9410825776770391,0.12074045786035083,0.07562386611553489
0.9750000000000001,0.0214,0.678,0.03264300867181347,0.9324471318847574,0.12062970778911684,0.0735343764521134
0.976,0.0123,0.678,0.03262660684619624,0.9402471655604144,0.12055307834433673,0.07542172426618828
0.9770000000000001,0.0138,0.678,0.032545501744086894,0.9402471655604144,0.12017415473616559,0.07542172426618828
0.978,0.0152,-1.322,0.03237174666054871,0.9451343235291796,0.11936236976234729,0.07660425337989886
0.9790000000000001,0.0217,0.678,0.03242491494713985,0.9479830224896839,0.11961077237169522,0.07729354344961285
0.98,0.0252,-0.322,0.032684317181076325,0.9479830224896839,0.12082270143527428,0.07729354344961285
0.9810000000000001,0.0262,-0.322,0.03381921529702374,0.9451343235291796,0.1261249534245714,0.07660425337989886
0.982,0.0129,0.678,0.034558453944343356,0.9451343235291796,0.12957868159033156,0.07660425337989886
0.9830000000000001,0.0119,0.678,0.0345911086499346,0.9451343235291797,0.12973124460479787,0.07660425337989887
0.984,0.0135,0.678,0.0343539246410575,0.9422770123998798,0.12862311924514988,0.07591287945277778
0.9850000000000001,-0.0113,-1.322,0.03428895799266983,0.9422770123998798,0.12831959460640827,0.07591287945277778
0.986,-0.0077,-0.322,0.03503100251439699,0.9394110105175085,0.13178643183715855,0.07521940265347764
0.9870000000000001,-0.0109,-0.322,0.03542348925632401,0.9394110105175085,0.13362013265920814,0.07521940265347764
0.988,-0.008,-1.322,0.036089030375841734,0.9471536967492709,0.13672954545612334,0.07709287430016937
0.9890000000000001,-0.0054,-0.322,0.03686866330536409,0.9556562611697604,0.1403719959927784,0.07915021110669154
0.99,-0.0173,0.678,0.03693041146660658,0.9556562611697621,0.14066048383691418,0.07915021110669195
0.9910000000000001,-0.015,-1.322,0.03718579977236128,0.9479830224896915,0.14185365979976317,0.07729354344961467
0.992,-0.0168,0.678,0.037510612907748424,0.9612828576149735,0.14337118905552246,0.08051165965206075
0.9930000000000001,-0.0185,0.678,0.03750579253923702,0.9640838416653018,0.14334866825989367,0.08118940430605424
0.994,0.0062,-0.322,0.03753069943674171,0.9688507681416644,0.14346503346042205,0.08234284141147298
0.9950000000000001,-0.0191,-1.322,0.0374546418887069,0.9660636053143602,0.14310969206043037,0.08166844103215153
0.996,0.0304,-0.322,0.03638017602142147,0.9584736881775625,0.13808977996242672,0.07983193440759034
0.9970000000000001,0.0094,-0.322,0.03459237363507081,0.9660636053143613,0.12973715462426189,0.08166844103215179
0.998,0.0033,1.678,0.033312781470919206,0.9660636053143613,0.12375889102286543,0.08166844103215179
0.9990000000000001,-0.0026,-1.322,0.033093056714823696,0.9584736881775636,0.1227323354151555,0.07983193440759061
1.0,-0.0077,1.678,0.0331020098139122,0.9744011770108524,0.12277416435714188,0.08368585510629542
1.0010000000000001,-0.022,-0.32199999999977796,0.03287028771714906,0.9668767114662816,0.12169155708935134,0.08186518558252814
1.002,-0.0177,0.678,0.032203435114975566,0.9592932276377091,0.1185760170362333,0.08003023560383812
1.0030000000000001,-0.0058,1.6779999999995558,0.030055032732182733,0.9640838416653086,0.1085386659754604,0.08118940430605588
1.004,-0.0095,-0.322,0.026819983610116407,0.9688507681416721,0.09342449369698178,0.08234284141147485
1.0050000000000001,0.0004,0.678,0.026160962254891576,0.9688507681416721,0.09034554128475303,0.08234284141147485
1.006,-0.0025,0.678,0.026013535036016694,0.9716299359038012,0.0896567602800341,0.08301530725186877
1.0070000000000001,-0.0212,-0.32199999999977796,0.026067439633176023,0.9966337790347022,0.08990860293754148,0.08906540275643741
1.008,-0.0233,0.678,0.026090331329312537,0.9993356848070163,0.0900155531030873,0.08971917377400725
1.0090000000000001,0.0105,1.6779999999995558,0.0261379285366963,1.002030305102807,0.0902379275911486,0.09037118194941988
1.01,0.0153,-0.322,0.026171507602143342,1.010071035418586,0.09039480922137026,0.0923167703168666
1.0110000000000001,0.0284,-1.322000000000222,0.02622650822401556,1.010071035418586,0.0906517725140541,0.0923167703168666
1.012,0.0245,-2.322,0.0261726792996578,1.0146219265126006,0.09040028340040852,0.09341793407019587
1.0130000000000001,0.0209,-2.321999999999556,0.02607526871354127,1.01196083538071,0.0899451804561378,0.09277403883337115
1.014,0.0112,-0.322,0.025827433201731892,1.01196083538071,0.0887872911997857,0.09277403883337115
1.0150000000000001,0.0026,-0.322,0.025720652445819354,1.027059187766634,0.08828841075624629,0.0964273361852323
1.016,-0.0162,-0.322,0.025579410184873298,1.0199232797576367,0.08762852591852333,0.0947006846165023
1.0170000000000001,-0.0093,1.678,0.025595132215568923,1.0322966715083854,0.08770197935664283,0.09769463244346475
1.018,-0.034,1.678,0.025472571688571116,1.0367500061132664,0.0871293757114769,0.09877219078248796
1.0190000000000001,-0.0043,0.678,0.02547389498733783,1.0289177862826104,0.08713555817263323,0.0968770549931547
1.02,0.0157,0.678,0.025415568015914308,1.041184293170246,0.08686305415142259,0.09984514025065366
1.0210000000000001,0.0121,-0.32199999999977796,0.02546301939401037,1.0437708818318996,0.08708474732402488,0.10047100837628987
1.022,-0.0042,0.678,0.025526733578850998,1.0437708818318996,0.08738242044425527,0.10047100837628987
1.0230000000000001,-0.0128,-0.32200000000022205,0.025520497979617376,1.0315351338390877,0.0873532876807267,0.0975103657447234
1.024,-0.0153,-1.322,0.025504063494669472,1.0289177862826104,0.08727650565132368,0.0968770549931547
1.0250000000000001,-0.0084,-1.322,0.025477877278630476,1.0289177862826107,0.0871541634655945,0.09687705499315476
1.026,0.0028,-0.322,0.02539520381874658,1.0289177862826107,0.08676791247885678,0.09687705499315476
1.0270000000000001,0.0126,-1.322,0.025365656110755235,1.0627594524445036,0.08662986537905568,0.10506560869833086
1.028,0.0217,0.678,0.025339270579564425,1.0602191907074803,0.08650659199153371,0.10445095014223876
1.029,0.0464,-0.322,0.025293912762293518,1.0533079577028464,0.08629467994984875,0.10277866242576822
1.0300000000000002,0.0934999999999916,-0.322,0.025264924807447478,1.050744846451518,0.08615924802068411,0.10215847504984416
1.0310000000000001,0.0746,-1.322,0.025220049338440107,1.050744846451518,0.08594958951348293,0.10215847504984416
1.032,0.0572,-0.322,0.025121197153037903,1.0576728279239793,0.08548775140719825,0.1038348153365288
1.033,0.0307,-0.322,0.02508828711731799,1.0620197588073745,0.08533399548857283,0.10488662752630365
1.0340000000000003,-0.022300000000021938,0.678,0.02506101491674566,1.0594777235419146,0.08520657957545677,0.10427153983552354
1.0350000000000001,-0.0717,-0.322,0.025028317363280192,1.0638172793530494,0.08505381637542035,0.10532156750396321
1.036,-0.0529,0.678,0.025042571141502316,1.0594777235419146,0.08512041012764468,0.10427153983552354
1.037,-0.0703,-1.322,0.025041366023614092,1.0620197588073748,0.08511477980838483,0.1048866275263037
1.0380000000000003,-0.0754999999999765,1.678,0.025020255610063647,1.064555724005555,0.08501615180762435,0.10550024646339787
1.0390000000000001,-0.0226,0.678,0.025008155371079796,1.064555724005555,0.08495961940588577,0.10550024646339787
1.04,-0.0437,-0.322,0.025131477335414803,1.0670856624136171,0.08553578049165289,0.10611240711843478
1.041,-0.05,1.678,0.02516318976893054,1.0713944036148753,0.08568394120434726,0.10715497867975868
1.0420000000000003,-0.00910000000000231,0.678,0.025140343439130512,1.0645557240055548,0.08557720299064496,0.10550024646339781
1.0430000000000001,-0.0143,-1.322,0.025094630238314344,1.068874663691472,0.08536363059453403,0.10654528571762266
1.044,-0.0096,-0.322,0.02503708566705279,1.0663489697401318,0.08509478195238952,0.10593415207944863
1.045,0.0208,-0.322,0.025303636284321633,1.068874663691472,0.08634010831323405,0.10654528571762266
1.0460000000000003,0.04069999999998872,-1.322,0.025289290697176284,1.0620197588073745,0.08627308562907392,0.10488662752630365
1.0470000000000002,0.0153,-1.322,0.025462702268410523,1.0620197588073745,0.0870832657109893,0.10488662752630365
1.048,0.0121,-0.322,0.02557845197837348,1.0645557240055548,0.0876240491710088,0.10550024646339781
1.049,0.0092,1.678,0.0255765233740143,1.0569295744115788,0.08761503871786208,0.103654972793501
1.0500000000000003,0.006599999999988054,-0.322,0.0255765233740143,1.0569295744115788,0.08761503871786208,0.103654972793501
1.0510000000000002,-0.0203,-0.322,0.02563415604227844,1.0448479333616563,0.08788429894982303,0.1007316188986106
1.052,-0.0166,-1.322,0.025687299691053486,1.0474254748027862,0.08813258645112068,0.10135529789884187
1.053,-0.0003,-1.322,0.025700361323075842,1.0474254748027862,0.08819361048790497,0.10135529789884187
1.0540000000000003,0.0025999999999964914,-0.322,0.02570478923456019,1.0326249476138103,0.08821429772153978,0.09777406430437072
1.0550000000000002,-0.0053,0.678,0.025744285901919288,1.0474254748027936,0.08839882642956444,0.10135529789884364
1.056,0.0168,-2.322,0.026054007744053018,1.0474254748027938,0.08984584905697572,0.10135529789884369
1.057,0.0138,0.678,0.026628133703475616,1.0518147567107166,0.0925281695822101,0.10241735762303822
1.0580000000000003,0.021699999999996892,0.678,0.02695886587416533,1.0749550872492264,0.09407335261258297,0.10801654527720528
1.0590000000000002,0.0147,1.678,0.027157608114401037,1.0792324109159983,0.0950018777584437,0.10905151484378124
1.06,0.0211,-1.322,0.027622854518545504,1.071710703746316,0.09717551223472354,0.10723151275467292
1.061,0.0072,-1.322,0.02817278869985105,1.0785040153419492,0.09974480860224426,0.10887526742593305
1.0620000000000003,-0.005600000000002132,-0.322,0.028188280972670916,1.0717107037463134,0.09981718860995031,0.10723151275467228
1.0630000000000002,-0.0104,-0.322,0.028241199386756215,1.0484987722242938,0.10006442381319144,0.10161500005226415
1.064,0.0062,1.678,0.028422568440092354,1.0247612005668953,0.10091178130752095,0.09587129998096126
1.065,0.0083,-0.322,0.028769898599369386,1.0396736800644413,0.10253451025745151,0.09947962229756442
1.0660000000000003,0.0100999999999992,1.678,0.029250082335743104,1.0396736800644413,0.10477793205509034,0.09947962229756442
1.0670000000000002,0.0083,-1.322,0.02979582388266703,1.0396736800644413,0.10732764040525694,0.09947962229756442
1.068,0.0069,-1.322,0.030478946197971025,1.0396736800644415,0.11051919267268681,0.09947962229756448
1.069,-0.0007,1.678,0.03068753359993909,1.027389137378346,0.1114937144834876,0.09650717297880448
1.0700000000000003,-0.02089999999999871,0.678,0.030725856747314772,1.0247612005668956,0.11167276049788617,0.09587129998096132
1.0710000000000002,-0.018,-0.322,0.030687360193016877,1.0221265072248094,0.11149290432512594,0.09523379212821155
1.072,-0.0045,0.678,0.030676745960784884,1.024761200566896,0.11144331455739603,0.09587129998096143
1.073,0.0024,-0.322,0.03069908689137003,1.0370768725620212,0.11154769154240755,0.09885128155352874
1.0740000000000003,0.00020000000000257572,0.678,0.03067335326192775,1.060538823792693,0.11142746384444521,0.10452829068072449
1.0750000000000002,0.006,0.678,0.030684636584887407,1.060538823792693,0.11148017960876629,0.10452829068072449
1.076,0.0005,2.678,0.030737211343237505,1.053629687407917,0.11172580924999263,0.10285651027628237
1.077,-0.0074,-0.322,0.030786642575942904,1.0605388237926903,0.11195675231727124,0.10452829068072383
1.0779999999999998,0.0002,-0.322,0.030799832345267415,1.0536296874079145,0.1120183750124335,0.10285651027628179
1.0790000000000002,0.018,-0.322,0.03073846406729583,1.0536296874079127,0.1117316619856144,0.10285651027628136
