time_sec,bts_raw,diy_raw,bts_rms,diy_rms,bts_norm_rms,diy_norm_rms
0.0,-0.0072,-0.411,0.005752227693883642,0.7094690632617153,0.021148864929531257,0.00532612532091215
0.0010000000000000009,-0.0148,-1.411,0.005772845504422135,0.7109401059504712,0.02133049794182122,0.005638705791334044
0.0020000000000000018,-0.0083,0.589,0.0057675237928274115,0.7124081111078667,0.021283616217610813,0.005950640819588428
0.0030000000000000027,-0.0057,-1.411,0.005856452374952471,0.7138730974729961,0.022067034331764778,0.006261934387527705
0.0040000000000000036,-0.0079,-0.411,0.005904946401837086,0.7159344315322558,0.02249424342676924,0.0066999453132915296
0.0050000000000000044,-0.0028,0.589,0.00593444125157346,0.7179898475682917,0.022754078892550423,0.007136698723894576
0.006000000000000005,0.008,0.589,0.0060492395858535025,0.7194434680602432,0.023765397103192892,0.0074455771681859505
0.007000000000000006,0.0095,-0.411,0.00640460180043428,0.7214888874350558,0.026895967605227226,0.00788020639769507
0.008000000000000007,0.0058,-1.411,0.0063765597985118725,0.723528524420426,0.026648931031178852,0.008313606932737418
0.009000000000000008,-0.0055,0.589,0.0063757421473413355,0.7380549977739446,0.0266417279169185,0.011400323524391348
0.010000000000000009,-0.004,0.589,0.006383128659260632,0.7394691760056726,0.02670679954068344,0.011700820920090872
0.01100000000000001,-0.0105,-1.411,0.006366342840496266,0.7414593537209123,0.026558924536194815,0.012123711901574847
0.01200000000000001,-0.0044,-1.411,0.006370561252890929,0.742867051189945,0.0265960867241436,0.012422832206135208
0.013000000000000012,0.0032,-1.4109999999999983,0.006372623189998469,0.7448481500959567,0.026614251400130694,0.01284379404002813
0.014000000000000012,0.0039,-0.411,0.006373322792569584,0.746249455091781,0.02662041456290494,0.013141556013998953
0.015000000000000013,-0.0004,-0.411,0.006277230258882177,0.7482215983132968,0.02577388547488015,0.013560614862958762
0.016000000000000014,-0.0044,0.589,0.006317159635927958,0.7875337363169209,0.02612564411666933,0.02191401390731689
0.017000000000000015,-0.0023,2.589,0.00631367765584071,0.7894027468884397,0.02609496954378974,0.022311158196965573
0.018000000000000016,0.0028,-0.41099999999999653,0.0062963465129460905,0.8267590473951881,0.025942290495522203,0.030248963180379604
0.019000000000000017,0.0118,0.589,0.006297277898043374,0.8285395786608648,0.025950495551073843,0.030627306585965484
0.020000000000000018,0.0129,-0.411,0.006345734968978086,0.8303162917619092,0.026377379081902113,0.031004838673357803
0.02100000000000002,0.0067,-1.411,0.006312008858976946,0.8430046254050723,0.026080268244604767,0.033700970695470775
0.02200000000000002,0.0034,-0.411,0.006315593734727255,0.8447509156029785,0.026111849278875998,0.0340720382489327
0.02300000000000002,0.0027,1.589,0.006315593734727254,0.84598675635939,0.02611184927887599,0.03433464088307676
0.02400000000000002,0.0089,0.589,0.0063186701613906745,0.8472207943971236,0.026138951120796738,0.03459686045923298
0.025000000000000022,-0.0002,-0.411,0.006313493884210656,0.8484530375821072,0.02609335060395722,0.03485869864882496
0.026000000000000023,0.0059,0.589,0.006316943730266419,0.8833155623202218,0.026123742091446883,0.042266603576418336
0.027000000000000024,0.007,0.589,0.00634433898208052,0.8844975212856737,0.026365081107544028,0.04251775691973348
0.028000000000000025,0.0005,1.589,0.006344373772978398,0.8861620484528918,0.026365387598651317,0.042871450724091466
0.029000000000000026,-0.0057,0.589,0.006361861656011096,0.8878234549030285,0.026519447452284822,0.043224481410226695
0.030000000000000027,0.0019,-0.411,0.006353389927767335,0.8894817581230514,0.02644481559371073,0.04357685269392839
0.031000000000000028,-0.0072,-1.411,0.006350662222543196,0.8911369754372215,0.02642078582024984,0.04392856825641239
0.03200000000000003,-0.001,-0.411,0.0063463195469982215,0.892308574157399,0.026382528933605206,0.04417752016100226
0.03300000000000003,-0.0021,0.589,0.0063495163024843955,0.8934786365874797,0.02641069081468488,0.04442614562076166
0.03400000000000003,-0.0047,-0.411,0.006349913285016164,0.8946471687551651,0.026414188040199536,0.04467444591651116
0.03500000000000003,-0.004,-2.411,0.0063582735297024245,0.896292846964293,0.026487837782155,0.04502413452358164
0.03600000000000003,-0.0094,0.5890000000000069,0.00636932007825941,0.8979355090857484,0.026585152571524447,0.04537318224503356
0.03700000000000003,0.0004,1.589,0.006465587108966781,0.8990982488029288,0.027433218894519586,0.0456202517084506
0.038000000000000034,-0.0007,-0.411,0.0064896077266103705,0.90073579475794,0.027644829003727115,0.045968212300530886
0.039000000000000035,0.003,1.589,0.006489672556993202,0.9023703690369838,0.027645400128274968,0.04631554144399386
0.040000000000000036,0.0019,0.589,0.006433110613423116,0.9040019877597985,0.027147116560656128,0.04666224256410746
0.041000000000000036,0.0026,0.589,0.006352617614563202,0.9056306669009123,0.026438011885167763,0.04700831905528412
0.04200000000000004,-0.0018,-0.411,0.006377492990478416,0.9186795111590488,0.0266571520043812,0.049781055637197986
0.04300000000000004,0.0037,0.5890000000000069,0.006580501663744242,0.9198160287507715,0.028445560951947172,0.050022553185963145
0.04400000000000004,0.0029,1.589,0.006530249987097833,0.9312857675471791,0.028002867806384127,0.05245974714097306
0.04500000000000004,0.0051,0.589,0.006560861670984757,0.9328668135343131,0.02827254204484264,0.05279570210828607
0.04600000000000004,0.008,0.589,0.006578155104742791,0.9339860675176445,0.02842488889372092,0.053033531329222665
0.04700000000000004,0.0007,-0.411,0.0065821832274528865,0.9452838877322368,0.02846037472090622,0.055434194467289734
0.04800000000000004,-0.0102,0.589,0.006531058458018397,0.9468415597996829,0.028009990047049627,0.05576518273250257
0.049000000000000044,-0.0178,-0.411,0.0064802456442829386,0.947944313705878,0.027562353553132427,0.05599950586764529
0.050000000000000044,-0.0087,-0.411,0.006486136522890289,0.9494976212950891,0.027614249365468562,0.05632956672900353
0.051000000000000045,-0.0026,-0.411,0.00645150061729262,0.9595248326180617,0.027309123665756153,0.05846023938474091
0.052000000000000046,-0.0102,-0.41099999999999304,0.006280137368075451,0.9494976212950891,0.02579949571117776,0.05632956672900353
0.05300000000000005,-0.0076,0.589,0.006230743343650671,0.949045786256237,0.02536435806993079,0.05623355672869761
0.05400000000000005,0.0062,0.589,0.006207410571065079,0.9389066688681214,0.0251588075454517,0.05407910525895785
0.05500000000000005,0.012,-0.411,0.00616267385614058,0.9504006469450961,0.024764698564940714,0.056521449795783156
0.05600000000000005,0.0211,0.589,0.006161635506628636,0.9599717354407008,0.024755551204249236,0.05855520134308596
0.05700000000000005,-0.0036,0.589,0.006121987121981367,0.9599717354407008,0.024406267970587266,0.05855520134308596
0.05800000000000005,0.0001,-1.411,0.006048920941627393,0.9698906662148665,0.023762590000541088,0.0606628655673602
0.05900000000000005,-0.0031,-0.41099999999999304,0.0060246793022393375,0.9599717354407007,0.023549032795876744,0.058555201343085936
0.06000000000000005,-0.0002,0.589,0.006018399506550388,0.9595248326180608,0.023493710810769747,0.05846023938474072
0.061000000000000054,0.0023,-0.411,0.006009422818744505,0.9590777215514937,0.023414630500883053,0.05836523317684029
0.062000000000000055,0.0045,0.589,0.005917500332482716,0.9494976212950882,0.022604837528649648,0.05632956672900334
0.06300000000000006,0.0023,-0.411,0.005901787538342981,0.9393633808486169,0.022466415355947855,0.05417615155598364
0.06400000000000006,-0.0034,0.589,0.005937123721075229,0.9291186090664943,0.02277771016101477,0.0519992496839318
0.06500000000000006,-0.0089,-2.411,0.005926930787959059,0.9295801300307415,0.02268791531386048,0.052097317837369234
0.06600000000000006,-0.0009,0.589,0.005990754247978973,0.9295801300307416,0.023250169355168226,0.052097317837369254
0.06700000000000006,-0.0052,-2.411,0.005980140156527413,0.939363380848617,0.023156664305276103,0.05417615155598367
0.06800000000000006,0.0013,0.589,0.005997302471910361,0.905444684106326,0.023307856064219444,0.0469687997470638
0.06900000000000006,0.01,0.589,0.0059923298693844735,0.905444684106326,0.023264049823299177,0.0469687997470638
0.07000000000000006,0.0024,-1.411,0.0058819173843693805,0.905444684106326,0.022291368839046734,0.0469687997470638
0.07100000000000006,0.003199999999999512,0.5889999999999861,0.005743628042827214,0.9059182658555448,0.021073106132392955,0.047069430685299354
0.07200000000000006,-0.0011999999999995558,-0.411,0.00573420317130184,0.9272702281300766,0.020990077539109326,0.051606488965945455
0.07300000000000006,0.0027999999999996,-0.411,0.005833847736364724,0.9272702281300765,0.021867898318231573,0.051606488965945434
0.07400000000000007,-0.0008000000000002331,-0.411,0.005951160749309096,0.9159542824519634,0.022901369640616474,0.04920197436526804
0.07500000000000007,-0.0028999999999989893,-2.411,0.005913006774657594,0.9159542824519634,0.022565251441555086,0.04920197436526804
0.07600000000000007,0.006199999999999278,-0.411,0.005915510251420676,0.9159542824519635,0.022587305869925522,0.04920197436526807
0.07700000000000007,-0.0002999999999993227,0.589,0.005942971322944523,0.9154858923586852,0.022829224726065668,0.04910244659709587
0.07800000000000007,0.005799999999999156,0.589,0.006238352067627004,0.9268075569081703,0.025431387275234817,0.051508176395345294
0.07900000000000007,-0.0017999999999994782,0.589,0.00635686925063243,0.9154858923586853,0.02647546675773887,0.04910244659709589
0.08000000000000007,0.0028999999999995115,0.589,0.006333473545341461,0.9154858923586852,0.02626936182633923,0.04910244659709587
0.08100000000000007,-0.001499999999999556,-0.411,0.006375152222010019,0.9467833766174562,0.026636530957971135,0.05575281944310921
0.08200000000000007,0.0024999999999994337,-0.411,0.006345908642241149,0.9366197684618155,0.026378909059969643,0.05359316395332811
0.08300000000000007,-0.0026000000000000775,-0.411,0.006349227934788328,0.9366197684618155,0.026408150433727063,0.05359316395332811
0.08400000000000007,-0.003300000000000444,0.589,0.006359927979952918,0.9366197684618155,0.026502412694564832,0.05359316395332811
0.08500000000000008,-0.0073000000000005665,0.589,0.0063429747296742224,0.9366197684618155,0.026353062698818378,0.05359316395332811
0.08600000000000008,-0.012399999999999278,-0.4109999999999861,0.0063361652084727264,0.9049708545263164,0.026293074086265605,0.0468681161474978
0.08700000000000008,-0.0058999999999994005,0.589,0.006269587077515196,0.9164224331477293,0.02570655271650741,0.04930145126408911
0.08800000000000008,-0.0005000000000000777,0.589,0.006270727772883281,0.9049708545263163,0.02571660169505553,0.04686811614749778
0.08900000000000008,-0.0011999999999991117,0.589,0.006273465204640516,0.9154858923586852,0.02574071715460331,0.04910244659709587
0.09000000000000008,0.0067999999999999216,0.589,0.006351387266017516,0.9040224503149603,0.026427173105167224,0.04666659063311145
0.09099999999999997,0.0061,1.589,0.006348479399732843,0.9035478749015747,0.026401556199257863,0.04656574855211638
0.09199999999999997,0.0166,-0.411,0.006464460526369594,0.9035478749015745,0.027423294242707574,0.046565748552116336
0.09299999999999997,0.0029,-1.411,0.006477481693772002,0.9035478749015745,0.027538004476096115,0.046565748552116336
0.09399999999999997,-0.0069,0.589,0.006494242827996828,0.9030730500933124,0.02768566202164237,0.046464853477439685
0.09499999999999997,-0.0051,-0.411,0.006495175671648068,0.8909687294940333,0.02769387992635412,0.04389281783497981
0.09599999999999997,-0.0036,-1.411,0.006541755577347971,0.8909687294940333,0.028104226532685593,0.04389281783497981
0.09699999999999998,-0.0022,0.589,0.006494596022191969,0.8909687294940333,0.027688773492934,0.04389281783497981
0.09799999999999998,-0.0058,-0.411,0.006498728553525494,0.9016470753581463,0.027725179109965425,0.046161849453875324
0.09899999999999998,0.0029,0.589,0.0064291351246711075,0.9011712490240606,0.027112094413372156,0.04606074156592314
0.09999999999999998,-0.0026,-1.411,0.006180406282972464,0.9011712490240606,0.02492091273204024,0.04606074156592314
0.10099999999999998,-0.0,-0.411,0.0061197161177539644,0.9117301089869043,0.02438626151364674,0.04830438373860269
0.10199999999999998,-0.0026,-0.411,0.0061213271043023395,0.9235623684959768,0.02440045353170771,0.05081860937717193
0.10299999999999998,-0.0018,-0.4109999999999722,0.006052470038608732,0.9235623684959768,0.02379385584103498,0.05081860937717193
0.10399999999999998,-0.0026,1.5889999999999584,0.006005308768105932,0.9230978388381079,0.02337838768990163,0.05071990190927078
0.10499999999999998,0.0025,-1.411,0.006002271049812642,0.9226330752976897,0.023351626850137946,0.050621144743887805
0.10599999999999998,-0.004,0.589,0.005880733347298586,0.9329490678482717,0.022280938040905973,0.05281318024970775
0.10699999999999998,-0.0014,-1.411,0.0054880646785717465,0.9324892142886405,0.018821715588570914,0.05271546640150102
0.10799999999999998,-0.0022,-0.411,0.005481565150180276,0.9320291338420345,0.018764457863847773,0.05261770434229548
0.10899999999999999,0.0047,-0.411,0.005497841119528185,0.9221680775210988,0.01890784133975471,0.05052233780588191
0.10999999999999999,0.0022,-0.411,0.005492445680665311,0.9226330752976898,0.018860310113708156,0.05062114474388783
0.11099999999999999,-0.0,0.589,0.005507483651517787,0.9221680775210988,0.018992787417230005,0.05052233780588191
0.11199999999999999,0.0007,-0.411,0.005502680743773572,0.9226330752976897,0.01895047610586627,0.050621144743887805
0.11299999999999999,0.0072,-0.411,0.005498365099119683,0.9226330752976897,0.018912457348394644,0.050621144743887805
0.11399999999999999,0.0018,0.589,0.005495557330871426,0.9343272705545411,0.018887722258129316,0.05310603324000864
0.11499999999999999,0.0087,-0.411,0.00549787298011776,0.9440613283220918,0.018908122016252686,0.05517441397385956
0.11599999999999999,0.0025,-1.411,0.005497205685882552,0.9230978388381079,0.018902243474406628,0.05071990190927078
0.11699999999999999,-0.0051,-0.411,0.0056202711177916085,0.9226330752976898,0.01998639084614987,0.05062114474388783
0.118,0.0014,-0.4109999999999861,0.0056551688180016355,0.8904871972700668,0.02029382283071027,0.04379049750788036
0.119,-0.003,0.589,0.005653652830595832,0.8904871972700668,0.02028046770948653,0.04379049750788036
0.12,0.0025,0.589,0.005564666078504352,0.890005404515942,0.019496537145855638,0.043688121820973855
0.121,-0.0059,-2.411,0.005569570249527082,0.8791856735081041,0.01953974053808687,0.04138904740653337
0.122,-0.0113,-0.411,0.005575081949103729,0.8895233508083262,0.01958829596520531,0.043585690684306705
0.123,-0.0121,0.589,0.00559649611214226,0.921702845153819,0.019776944460693963,0.050423481019922285
0.124,-0.0059,0.589,0.005591167056810114,0.9320291338420338,0.019729998041682573,0.05261770434229534
0.125,0.0017,-0.411,0.0055907327863485325,0.9422422607249251,0.019726172327408094,0.054787882019622064
0.126,0.0082,-0.411,0.005587575764710926,0.9107887432136191,0.019698360482458186,0.04810435381526891
0.127,0.0202,1.589,0.0055529097890696134,0.9107887432136191,0.019392969880097834,0.04810435381526891
0.128,0.0122,0.589,0.005555356644670112,0.9107887432136191,0.019414525503209573,0.04810435381526891
0.129,-0.0016,0.589,0.005590774230432778,0.910317695274749,0.019726537429893103,0.04800426128399927
0.13,0.0075,-2.411,0.005587995460656416,0.9098464034638032,0.019702057802243086,0.04790411693258277
0.131,-0.0038,-0.411,0.005581759063245419,0.9098464034638032,0.019647118135129454,0.04790411693258277
0.132,-0.0023,-0.411,0.005580019688408438,0.9098464034638032,0.019631795077884734,0.04790411693258277
0.133,0.0042,0.589,0.005574331629204345,0.9098464034638032,0.01958168600711826,0.04790411693258277
0.134,0.0005,-0.411,0.005623171892672633,0.9203057369492513,0.020011945280197646,0.05012661081815854
0.135,-0.0027,-0.411,0.005622044043862,0.9198395626561142,0.020002009473653083,0.05002755388326385
0.136,-0.002,1.589,0.005593200151021278,0.9193731519862206,0.01974790862559999,0.049928446720895615
0.137,-0.0013,0.589,0.005472971153251371,0.9193731519862207,0.018688748876858417,0.04992844672089564
0.138,-0.002,-1.411,0.005451823268557067,0.9292638676524834,0.018502446165742904,0.05203011554356206
0.139,-0.0104,0.589,0.005451646778401118,0.9292638676524834,0.018500891372201435,0.05203011554356206
0.14,-0.0002,-0.411,0.005456929023919606,0.9292638676524834,0.01854742541922776,0.05203011554356206
0.14100000000000001,-0.0125,0.5889999999999722,0.005424876379257371,0.9292638676524834,0.018265057008140056,0.05203011554356206
0.14200000000000002,-0.0045,-0.411,0.0053937409391540915,0.9179724981120834,0.01799076872886937,0.04963082310315659
0.14300000000000002,-0.006,-0.411,0.005147918343788657,0.9179724981120834,0.015825189682452147,0.04963082310315659
0.14400000000000002,0.0031,-0.4109999999999722,0.005146511883796305,0.9074862730226018,0.0158127994451571,0.04740261504605919
0.14500000000000002,0.0093,0.589,0.005104248567250947,0.9074862730226018,0.01544047991689459,0.04740261504605919
0.14600000000000002,0.0017,0.589,0.005149151657740498,0.9079587899011525,0.015836054586257226,0.04750301971093306
0.14700000000000002,0.0024,-1.411,0.005141772449475585,0.8973555552806692,0.01577104730418095,0.04524994840919708
0.14800000000000002,-0.0037,-0.411,0.0051395890119666394,0.8968774521409072,0.015751812267989482,0.04514835672495887
0.14900000000000002,-0.0015,-0.411,0.005107831641524119,0.8973555552806692,0.015472045081017122,0.04524994840919708
0.15000000000000002,0.0007,-1.411,0.005108662367071685,0.8973555552806692,0.015479363374262126,0.04524994840919708
0.15100000000000002,0.0029,1.589,0.005122622396285679,0.8866255246875039,0.015602344529465769,0.04296993435108052
0.15200000000000002,0.0044,-0.411,0.005140393237724412,0.887109153070638,0.015758897110808887,0.043072700089060084
0.15300000000000002,-0.0007,-0.411,0.005136238226401388,0.887109153070638,0.015722293455862554,0.043072700089060084
0.15400000000000003,0.0059,-0.411,0.005145589300470905,0.9217028451538187,0.015804671928990047,0.05042348101992224
0.15500000000000003,0.0005,-1.411,0.005147505163192112,0.909846403463804,0.015821549759763454,0.04790411693258293
0.15600000000000003,-0.0002,-0.411,0.005141804696394379,0.8997422601860185,0.01577133138405386,0.04575709707848776
0.15700000000000003,-0.0024,-0.411,0.00514504823521626,0.8992654259618412,0.015799905403860563,0.045655775024922705
0.15800000000000003,0.0042,0.589,0.005185024284572261,0.8890410357227376,0.01615207520629553,0.04348320400768119
0.15900000000000003,-0.0019,0.589,0.005181584782940239,0.8895233508083255,0.0161217748482127,0.043585690684306545
0.16000000000000003,-0.0041,-0.411,0.005166152611025962,0.8900054045159413,0.01598582482259123,0.043688121820973716
0.16100000000000003,-0.0004,0.589,0.005265656061709532,0.9006951713167287,0.016862402451780348,0.04595958026390746
0.16200000000000003,-0.004,0.589,0.005323542103418065,0.9006951713167287,0.017372350688303027,0.04595958026390746
0.16300000000000003,0.0015,1.589,0.00532788363969734,0.90117124902406,0.017410597538563808,0.046060741565923
0.16400000000000003,0.0037,-1.411,0.0052801389634625625,0.9016470753581457,0.01698998986302323,0.046161849453875206
0.16500000000000004,0.0088,-1.411,0.005282291968954489,0.9016470753581456,0.017008956807755087,0.04616184945387518
0.16600000000000004,0.0117,-0.411,0.005268166807407293,0.9021226507167475,0.016884520915975518,0.04626290401228406
0.16700000000000004,0.0081,-0.411,0.005278268492916348,0.891931014039111,0.016973511915518852,0.0440972927683582
0.16800000000000004,0.0002,0.589,0.005262581181780579,0.891931014039111,0.016835314235847672,0.0440972927683582
0.16900000000000004,-0.0009,-0.411,0.0052664387693685125,0.8924117672011895,0.01686929773048017,0.04419944755333348
0.17000000000000004,-0.0034,-0.411,0.0052814966009362245,0.8919310140391111,0.017001949997368173,0.04409729276835822
0.17100000000000004,-0.0041,-1.411,0.005329483367867505,0.9235623684959763,0.01742469037571787,0.050818609377171815
0.17200000000000004,0.005,-2.4109999999999725,0.005301495945025236,0.8914500016100307,0.017178134617162246,0.043995082891982784
0.17300000000000004,0.0014,-1.411,0.005201848419703685,0.8919310140391111,0.016300287759582355,0.04409729276835822
0.17400000000000004,0.0003,-1.4109999999999723,0.005059969068045389,0.8914500016100307,0.015050398787359464,0.043995082891982784
0.17500000000000004,-0.0022,-0.411,0.005026850584770719,0.8914500016100307,0.014758640849802399,0.043995082891982784
0.17600000000000005,0.0004,-0.411,0.005030448213144134,0.8914500016100307,0.014790334228560693,0.043995082891982784
0.17700000000000005,-0.0017,0.589,0.004962819165772173,0.9021226507167475,0.014194554789733445,0.04626290401228406
0.17800000000000005,-0.0086,-0.411,0.0045463232458723005,0.9006951713167287,0.010525425693961745,0.04595958026390746
0.17900000000000005,-0.0002,-0.411,0.0043812251642870404,0.900218841837338,0.009070990858330711,0.045858365463085
0.18000000000000005,-0.0013,0.589,0.004425360754041342,0.8997422601860185,0.009459804214690799,0.04575709707848776
0.18100000000000005,-0.0005,-0.411,0.004451318622551541,0.8672425382023096,0.009688480573964337,0.03885126187472469
0.18200000000000005,0.0002,-0.411,0.004459412016831688,0.9002188418373379,0.00975977949195609,0.04585836546308498
0.18300000000000005,0.0078,-1.411,0.004618478649724652,0.9002188418373379,0.011161080160289933,0.04585836546308498
0.18400000000000005,-0.0031,-0.411,0.0046586927976905055,0.9103176952747496,0.011515347497167212,0.048004261283999386
0.18500000000000005,0.0045,-0.411,0.0046660416884081145,0.9103176952747496,0.011580087696207116,0.048004261283999386
0.18600000000000005,-0.0045,-0.411,0.004659130200812638,0.9417869448350317,0.011519200808677165,0.054691132376568655
0.18700000000000006,-0.0034,-1.411,0.0046550391565549935,0.9301865364501233,0.011483160672866416,0.052226172564214406
0.18800000000000006,-0.0002,0.589,0.00466315420349198,0.9297253165095395,0.011554650340369545,0.05212816837501064
0.18900000000000006,-0.0027,0.589,0.004672651319422353,0.9193731519862197,0.011638315372176878,0.04992844672089543
0.19000000000000006,0.0034,0.589,0.004659701883451506,0.9189065045796352,0.011524237058262327,0.049829289254571515
0.19100000000000006,-0.002,0.589,0.004664724072958086,0.9193731519862195,0.011568480136675921,0.04992844672089538
0.19200000000000006,-0.0042,-0.411,0.004577802476283535,0.9193731519862197,0.010802742600792737,0.04992844672089543
0.19300000000000006,-0.0027,-0.411,0.004556070235605646,0.9297253165095395,0.010611291994009541,0.05212816837501064
0.19400000000000006,-0.002,0.589,0.004519171457782618,0.9605589556555792,0.010286231476390463,0.05867997921147208
0.19500000000000006,-0.0085,0.589,0.004653410439798514,0.9610053775731177,0.011468812460184268,0.05877483898274685
0.19600000000000006,-0.0022999999999999223,-0.411,0.004661594460523906,0.9904331630259111,0.011540909753649123,0.06502792129682193
0.19700000000000006,-0.0015999999999999224,-0.411,0.004732264479247724,0.999621024965404,0.012163478690124243,0.0669802413954637
0.19800000000000006,-0.0009000000000002442,0.589,0.004731477077182522,1.0190114646649329,0.01215654205595938,0.07110049759828829
0.19900000000000007,-0.0031000000000001664,0.589,0.004719381452554042,1.0194322898323775,0.012049985410058604,0.07118991834033113
0.20000000000000007,-0.004599999999999967,-0.411,0.004717204168142105,1.0194322898323775,0.012030804579697702,0.07118991834033113
0.20100000000000007,-0.004299999999999356,0.589,0.004725986550678556,1.0194322898323775,0.012108173153446124,0.07118991834033113
0.20200000000000007,0.0014999999999994339,-0.411,0.004717045344663683,1.0087252037518732,0.012029405421103515,0.06891477974002148
0.20300000000000007,-0.0035999999999992783,2.589,0.004701028629240142,1.0087252037518732,0.011888305847803166,0.06891477974002148
0.20400000000000007,0.0028999999999997556,-0.4109999999999722,0.004704271207472136,1.0087252037518732,0.01191687140527414,0.06891477974002148
0.20500000000000007,0.0006999999999994338,0.5889999999999722,0.004748458802050523,1.0091503183959123,0.012306142899167042,0.0690051119488912
0.20600000000000007,-0.004400000000000245,-0.4109999999999722,0.004841694555187977,0.999621024965404,0.01312750512207924,0.0669802413954637
0.20700000000000007,-0.006599999999999389,0.589,0.004841806384930754,0.999621024965404,0.013128490288423951,0.0669802413954637
0.20800000000000007,-0.0010999999999996004,0.589,0.004880433386591999,1.0091503183959125,0.013468775628342212,0.06900511194889124
0.20900000000000007,0.002500000000000877,0.589,0.004863252716194556,1.0091503183959125,0.013317422170533368,0.06900511194889124
0.21000000000000008,0.010399999999999712,-1.411,0.004862878317402571,1.018169292529462,0.013314123896923814,0.07092154523729031
0.21100000000000008,0.007799999999998878,0.589,0.004846993086293224,1.028778093234188,0.013174182637306252,0.07317579927100562
0.21200000000000008,-0.002299999999999889,0.589,0.004850084772713721,1.0283610925566264,0.013201418910360679,0.07308719119120297
0.21300000000000008,-0.001300000000000122,0.589,0.004833994045019559,1.0283610925566264,0.013059667324489238,0.07308719119120297
0.21400000000000008,-0.0023999999999988674,0.589,0.00483289398126249,1.0177479451296534,0.01304997629092705,0.07083201352658611
0.21500000000000008,0.0077999999999995885,0.589,0.004835301425867289,1.0082999098730223,0.013071184722087788,0.06882440944571601
0.21600000000000008,0.004099999999999878,0.589,0.004758959924926515,0.998762502642274,0.012398652750144307,0.06679781479854513
0.21700000000000008,0.0029999999999993894,-0.411,0.004615777646974855,0.9991918560109322,0.011137285622808217,0.06688904769000249
0.21799999999999997,-0.0025,0.589,0.004571834961149357,1.0087252037518732,0.010750171657448238,0.06891477974002148
0.21899999999999997,-0.005,-0.411,0.004578448875781874,1.0177479451296534,0.01080843707003848,0.07083201352658611
0.21999999999999997,-0.0076,-2.411,0.004588588835085412,1.0177479451296534,0.010897765243336063,0.07083201352658611
0.22099999999999997,-0.0022,-0.411,0.004627482934307648,1.0177479451296534,0.011240403584533851,0.07083201352658611
0.22199999999999998,0.0047,0.589,0.004633146556884064,1.0082999098730223,0.01129029738034245,0.06882440944571601
0.22299999999999998,0.0003,-0.411,0.004807227885068731,0.9794091042832336,0.012823870305682257,0.0626854294751474
0.22399999999999998,0.001,0.589,0.004909501694224431,0.9807220191551863,0.013724853462969352,0.06296440951524805
0.22499999999999998,-0.0026,-0.411,0.004910689897755232,0.971355411641101,0.013735320965622466,0.06097410793842144
0.22599999999999998,-0.0004,-1.411,0.00491240542316709,0.9717968739190129,0.013750433920881896,0.061067913840560116
0.22699999999999998,0.0036,-1.411,0.0049945132089654985,0.9717968739190129,0.014473764094043632,0.061067913840560116
0.22799999999999998,-0.0015,-0.411,0.005021157149815676,0.9717968739190129,0.014708484421250943,0.061067913840560116
0.22899999999999998,0.0064,-0.411,0.00496637411524738,0.9717968739190129,0.014225872187888549,0.061067913840560116
0.22999999999999998,0.0089,0.589,0.004969354512420678,0.9722381357430282,0.014252128056104816,0.06116167714843976
0.23099999999999998,0.0046,-2.411,0.005069946624493668,0.9829063134538266,0.015138296269471382,0.06342854814604897
0.23199999999999998,0.0122,-0.411,0.005075544963413759,0.9829063134538267,0.015187614947610256,0.063428548146049
0.23299999999999998,0.0074,-1.411,0.0052476019763001815,0.9833425900782012,0.016703354627040746,0.06352125215356925
0.23399999999999999,-0.0027,-0.411,0.005321998537512317,0.9740011839470883,0.01735875261373514,0.06153630559478871
0.235,0.0008,-2.4109999999999445,0.005320137614209155,1.003475285924717,0.017342358772858443,0.06779922966344504
0.236,-0.0003,-0.411,0.005338475260160829,1.014237795751231,0.017503904629839282,0.07008614520315468
0.237,0.003,-0.411,0.0053283401941997734,1.0142377957512305,0.01741461956453969,0.07008614520315458
0.238,-0.0036,-0.411,0.005330728482462707,1.0051835470196178,0.017435659237525502,0.06816221644875657
0.239,-0.0098,-0.4109999999999722,0.005351124319306529,1.0142377957512283,0.017615336768134374,0.07008614520315411
0.24,-0.0022,0.589,0.005346478659843119,1.0142377957512285,0.017574410738630076,0.07008614520315415
0.241,-0.0087,0.589,0.005336462208353926,1.0138148143995516,0.017486170609881106,0.06999626629556195
0.242,-0.0004,-1.411,0.0053428426678515635,1.0133916564989491,0.017542379394814227,0.06990634987325546
0.243,-0.0015,-2.411,0.005330793216370971,1.0138148143995516,0.017436229512178738,0.06999626629556195
0.244,0.0115,0.589,0.005359739464334511,1.0244687085336592,0.01769123205972345,0.07226010218946177
0.245,0.0097,-2.411,0.005356216363835824,1.0244687085336592,0.017660195235760883,0.07226010218946177
0.246,0.0083,-1.411,0.005297147712891482,1.0244687085336592,0.01713982877963817,0.07226010218946177
0.247,-0.0023,-2.411,0.005321516870086027,1.0244687085336592,0.01735450935495673,0.07226010218946177
0.248,0.0014,0.589,0.005327487411767896,1.0244687085336592,0.017407106960733353,0.07226010218946177
0.249,0.0003,-0.411,0.005393706745131719,1.0345984550534262,0.017990467495948723,0.074412562452244
0.25,-0.003,-1.411,0.005387248896870696,1.0345984550534262,0.017933576953164304,0.074412562452244
0.251,-0.0004,-0.411,0.005409839797410194,1.0345984550534262,0.018132591941088037,0.074412562452244
0.252,0.0021,-0.411,0.005421651547809834,1.0345984550534262,0.018236647791319973,0.074412562452244
0.253,-0.0019,-0.411,0.005448651758533739,1.0345984550534262,0.01847450668507063,0.074412562452244
0.254,-0.0088,0.589,0.005440509420855581,1.0039026237120796,0.018402776599239994,0.06789003426593816
0.255,-0.0095,-0.411,0.005441289356485081,1.0043297796691635,0.01840964745769094,0.0679808002314872
0.256,-0.0004,-0.411,0.005566669679862916,1.0039026237120798,0.019514187911901085,0.0678900342659382
0.257,-0.0066,-1.411,0.0055859323625423755,1.032523520810723,0.019683882898346123,0.07397166163635592
0.258,-0.0011,0.589,0.005576061987954527,1.0425750090337313,0.019596929636966888,0.076107492867634
0.2590000000000001,-0.0017999999999998445,-1.411,0.005636049309277446,1.0425750090337313,0.020125389138073744,0.076107492867634
0.26,-0.0011,1.589,0.005630981841177516,1.0421635289278606,0.02008074717699086,0.07602005784889154
0.2610000000000001,-0.0017999999999995114,-0.411,0.00572367150733385,1.033353994474303,0.02089729863577425,0.07414812820011987
0.262,0.0004,0.589,0.005696768286773447,1.0329388411041986,0.02066029417879933,0.07405991265293257
0.2630000000000001,0.001100000000000644,-0.411,0.005707198612609304,1.0329388411041986,0.02075218034184247,0.07405991265293257
0.264,0.004,-0.411,0.005716329936364942,1.032523520810723,0.020832622920206212,0.07397166163635592
0.2650000000000001,-0.002199999999999112,-0.411,0.005739086321411225,1.032523520810723,0.02103309574718606,0.07397166163635592
0.266,0.0018,0.589,0.005743844015827274,1.0321080333923667,0.021075008750835445,0.07388337510757133
0.2670000000000001,-0.005099999999999423,-1.411,0.0057356781853692956,1.0321080333923667,0.02100307170489341,0.07388337510757133
0.268,-0.0025,-1.411,0.0057428380413534754,1.0321080333923667,0.021066146598686858,0.07388337510757133
0.26900000000000013,-0.0032000000000008215,-0.411,0.005737535274380937,1.0421635289278606,0.021019431767502636,0.07602005784889154
0.27,-0.0069,-0.411,0.00575543753112963,1.0425750090337313,0.021177142054634376,0.076107492867634
0.27100000000000013,-0.004700000000002021,-0.411,0.0057088299921257656,1.0142377957512287,0.02076655201216168,0.0700861452031542
0.272,-0.0138,0.589,0.005732408450698654,1.0142377957512287,0.020974266912235685,0.0700861452031542
0.27300000000000013,-0.010099999999997512,1.589,0.00584229387889868,1.0142377957512287,0.02194230477898591,0.0700861452031542
0.274,0.0011,0.589,0.005854737138213718,1.0142377957512285,0.022051923919576805,0.07008614520315415
0.27500000000000013,0.0025000000000014433,0.589,0.0058601913175693136,1.0142377957512287,0.02209997262116309,0.0700861452031542
0.276,0.009,-0.411,0.005854594916016337,1.0146606007747736,0.022050671010298364,0.07017598664294829
0.27700000000000014,0.005399999999999756,0.589,0.00587275140331697,1.0051835470196164,0.022210620946537304,0.0681622164487563
0.278,0.0043,-0.411,0.0058620331729176,0.9956162873483192,0.02211619848251181,0.06612927848471138
0.27900000000000014,0.0017000000000018652,0.589,0.005861930639371836,0.9956162873483192,0.0221152952111997,0.06612927848471138
0.28,0.0101,1.589,0.0058802728716583754,1.0051835470196164,0.02227688147158881,0.0681622164487563
0.28100000000000014,0.00240000000000242,-0.411,0.005899687417537097,1.0155056827183444,0.022447914299910242,0.07035555730631891
0.28200000000000003,0.0133,0.589,0.005890912535157103,0.9868258594788597,0.022370611798939406,0.06426140877593409
0.2829999999999999,0.0118,0.5889999999998334,0.005763572119289878,0.9872604040325447,0.021248803870932746,0.06435374473739078
0.28400000000000003,0.0027,-2.410999999999778,0.00572299125468406,0.9775177409156401,0.020891305936517023,0.06228353546098992
0.2849999999999999,0.0063,1.588999999999889,0.005729845226679873,0.9779564214417377,0.020951686139227023,0.062376750271315014
0.28600000000000003,0.003,-0.41099999999994447,0.005738012233351585,0.9476889885968701,0.02102363354704736,0.055945252076579785
0.2869999999999999,0.0037,0.588999999999889,0.005742277257095045,0.9476889885968701,0.021061206358601068,0.055945252076579785
0.28800000000000003,-0.0047,-1.410999999999889,0.005735919453110892,0.9779564214417391,0.02100519715786489,0.06237675027131532
0.2889999999999999,-0.0015,0.589,0.005735305617041371,0.9783949052777439,0.02099978955679342,0.06246992328714852
0.29000000000000004,0.001,-0.411,0.005766700547100611,0.9788331926879875,0.021276363817995712,0.06256305456465741
0.2909999999999999,-0.0033,-0.411,0.005820251051501985,0.9788331926879875,0.02174811805232187,0.06256305456465741
0.29200000000000004,0.0021,0.589,0.005803587242559043,0.9788331926879875,0.02160131789578341,0.06256305456465741
0.2929999999999999,-0.0062,1.589,0.005842831316357865,0.9690058036678997,0.021947039344979085,0.06047484196117679
0.29400000000000004,0.0003,0.589,0.005867092650686209,0.9499492414225745,0.02216077005261188,0.05642553106299631
0.29499999999999993,-0.003,0.589,0.005752712548584116,0.9494976212950781,0.021153136266665023,0.0563295667290012
0.29600000000000004,-0.0056,-0.411,0.005672182935618301,0.9182926492756203,0.020443709038482,0.04969885172127176
0.29699999999999993,-0.003,-0.411,0.005643441175498351,0.9082824707007523,0.02019050793066526,0.04757179833807882
0.29800000000000004,-0.0085,1.589,0.005643852385828306,0.8756099036962115,0.02019413049625122,0.04062923545922197
0.29899999999999993,-0.0016,0.589,0.005674608235926443,0.8756099036962111,0.020465074769816717,0.04062923545922188
0.30000000000000004,0.0067,-0.411,0.005681273064573083,0.8756099036962105,0.020523788710427704,0.040629235459221764
0.30099999999999993,-0.0056,0.589,0.005676780117326228,0.8770782113094732,0.020484208002234536,0.040941234756037455
0.30200000000000005,0.0056,-0.411,0.005683216298670232,0.8775671012453338,0.020540907669882244,0.04104511851638236
0.30299999999999994,-0.002,-0.411,0.005690181646796151,0.878055718973717,0.020602269042827102,0.04114894443561771
0.30400000000000005,-0.0031,0.589,0.005731617269119296,0.8785440649488018,0.02096729698236564,0.04125271261025153
0.30499999999999994,-0.0118,-0.411,0.005668114173454325,0.8785440649488018,0.020407865197218898,0.04125271261025153
0.30600000000000005,-0.0064,-2.411,0.0055995651224946255,0.8893716015381036,0.01980398096847487,0.043553445625318994
0.30699999999999994,-0.0057,1.589,0.0056003883112801245,0.889853737451703,0.019811232866464443,0.04365589422985791
0.30800000000000005,-0.0083,0.589,0.005567456971683226,0.879519943449488,0.01952112357486138,0.041460076110407404
0.30899999999999994,0.0008,-0.411,0.00558356024754483,0.8912985803644612,0.019662985704063635,0.04396290753464354
0.31000000000000005,0.0146,0.589,0.005622887076507534,0.8912985803644612,0.020009436186522584,0.04396290753464354
0.31099999999999994,0.0055,-0.411,0.005655631981692939,0.8912985803644612,0.020297903080467042,0.04396290753464354
0.31200000000000006,0.0041,0.589,0.005660443876763914,0.8917796744678683,0.02034029356586474,0.044065134765919466
0.31299999999999994,-0.0035,-0.411,0.005663236226580954,0.8912985803644612,0.020364892827153386,0.04396290753464354
0.31400000000000006,0.0056,0.589,0.005691441357514392,0.9033984814179898,0.020613366489471156,0.0465340040720045
0.31499999999999995,-0.0082,-0.411,0.005677990605091574,0.9038731352699024,0.020494871818295388,0.046634862820328034
0.31600000000000006,-0.0028,0.589,0.005673904275631085,0.9043475399960772,0.020458873217584023,0.04673566863215903
0.31699999999999995,-0.0042,-0.411,0.005769709002937219,0.9038731352699024,0.021302866869564847,0.046634862820328034
0.31800000000000006,0.0001,1.589,0.005756123208904702,0.8932214020593978,0.02118318254664074,0.044371486099042
0.31899999999999995,0.0067,0.589,0.005772260448804507,0.8824411037181289,0.02132534388271351,0.042080790694646805
0.32000000000000006,-0.002,-0.411,0.005773986061981941,0.8932214020593978,0.021340545706344565,0.044371486099042
0.32099999999999995,0.0056,-0.411,0.005747813093333789,0.8937014610770588,0.02110997441812464,0.04447349338592615
0.32200000000000006,0.0122,0.589,0.005737344518376582,0.8937014610770588,0.021017751298685706,0.04447349338592615
0.32299999999999995,0.0038,-0.411,0.005898793110030164,0.8932214020593978,0.02244003588012874,0.044371486099042
0.32400000000000007,0.0027,0.589,0.005824791701623104,0.8917796744678682,0.021788118999935286,0.044065134765919445
0.32499999999999996,0.0002,0.589,0.005827231358193225,0.9033984814179898,0.021809611203045635,0.0465340040720045
0.32600000000000007,0.0046,-0.411,0.005864520838571345,0.9029235780474542,0.022138113622599855,0.046433092303704605
0.32699999999999996,-0.0008,-0.411,0.005799442228433573,0.9029235780474542,0.02156480231134791,0.046433092303704605
0.32800000000000007,0.0014,-0.411,0.0057862720052056955,0.9144007962749869,0.021448778967698274,0.048871875555964346
0.32899999999999996,0.0079,-1.411,0.005776231066872516,0.9144007962749869,0.02136032312160985,0.048871875555964346
0.33000000000000007,0.0101,1.589,0.005775778150545765,0.9144007962749869,0.021356333146215056,0.048871875555964346
0.33099999999999996,0.0033,0.589,0.005688597071303503,0.9029235780474542,0.02058830969348721,0.046433092303704605
0.3320000000000001,-0.0011,0.589,0.005704240757055028,0.9033984814179898,0.020726123054467624,0.0465340040720045
0.33299999999999996,0.0029,-0.411,0.005547682243181953,0.9033984814179898,0.019346917710557954,0.0465340040720045
0.3340000000000001,-0.0039,0.589,0.005420967080711022,0.9029235780474552,0.018230617964790207,0.04643309230370482
0.33499999999999996,-0.0032,-0.411,0.00541666945321362,0.8700497943581482,0.018192757929817244,0.03944777308170329
0.3360000000000001,0.0022,-0.411,0.005384785442718938,0.8574794387004467,0.017911875104784886,0.03677671009020165
0.33699999999999997,-0.0014,-2.411,0.00539209220018644,0.8700497943581504,0.0179762441301194,0.03944777308170376
0.3380000000000001,-0.0035,0.589,0.00538316472852834,0.8700497943581511,0.017897597390866146,0.0394477730817039
0.33899999999999997,-0.0115,0.589,0.005364615045653586,0.87152746942687,0.017734183590391313,0.03976176286027484
0.3400000000000001,-0.0082,0.589,0.005451936403229724,0.87152746942687,0.01850344282789337,0.03976176286027484
0.34099999999999997,-0.0075,0.589,0.005454033271917593,0.9067158404199981,0.018521915234332602,0.047238906550587934
0.3420000000000001,-0.0068,-0.411,0.005474715994818871,0.9071887585849245,0.018704120093374455,0.04733939648442445
0.34299999999999997,0.0055,1.589,0.005480096646512656,0.9071887585849245,0.018751521051560614,0.04733939648442445
0.3440000000000001,0.0001,-0.411,0.005453341434424421,0.8951400934123274,0.01851582047816704,0.0447791870109716
0.345,0.0016,-0.41099999999994447,0.005534163052786845,0.8946608063394288,0.019227820133703197,0.04467734375390033
0.3460000000000001,-0.0061,0.5889999999999445,0.0055302845006055925,0.894181262365525,0.0191936519510686,0.0445754459081773
0.347,-0.0024,-0.41099999999994447,0.005513463027178059,0.9048216959883812,0.01904546284611518,0.04683642159076495
0.3480000000000001,-0.0061,0.5889999999999445,0.005520482815919789,0.9153384472953038,0.01910730381474855,0.04907111613495128
0.349,-0.0028,-0.41099999999988895,0.005463190521740454,0.9038731352699141,0.018602586208901546,0.04663486282033051
0.3500000000000001,0.0019,1.5889999999999445,0.0058826070218819925,0.9033984814180016,0.02229744421443977,0.046534004072007
0.351,0.0027,0.589,0.005851537079240996,0.9351006145649381,0.022023732936366645,0.053270360377769874
0.3520000000000001,0.0035,0.589,0.005908000390423781,0.9351006145649381,0.0225211476000065,0.053270360377769874
0.353,0.0071,0.589,0.005882622802522938,0.9452805567266322,0.02229758323431026,0.05543348666505747
0.3540000000000001,0.0021,0.589,0.005879509270433882,0.9457341906475227,0.02227015451140387,0.05552987890810733
0.355,0.0035,-1.411,0.00587298947605843,0.9457341906475228,0.0222127182530915,0.05552987890810736
0.3560000000000001,0.001,0.589,0.005888661360652874,0.9457341906475228,0.022350780032339836,0.05552987890810736
0.357,0.0025,0.589,0.005910272592913588,0.926198938186056,0.022541164613063533,0.0513788515783837
0.3580000000000001,-0.0044,1.589,0.005885260924355051,0.9144007962749979,0.022320823821096132,0.048871875555966685
0.359,-0.0069,-1.411,0.005833244076813349,0.9257357315468924,0.021862580367399246,0.05128042523747664
0.3600000000000001,-0.0062,1.589,0.005839231860546874,0.925735731546892,0.02191532986737309,0.05128042523747657
0.361,0.0029,0.589,0.005653031361513493,0.9257357315468917,0.02027499286523672,0.051280425237476494
0.3620000000000001,0.0018,-0.411,0.005632743919810017,0.9257357315468914,0.02009627024377409,0.051280425237476425
0.363,-0.0058,1.589,0.0056282994231020384,0.9257357315468911,0.02005711636156745,0.051280425237476376
0.3640000000000001,-0.001,0.589,0.005646137293203487,0.9257357315468908,0.020214259433248814,0.05128042523747631
0.365,-0.0003,0.589,0.00564228961863372,0.9257357315468908,0.020180363267547144,0.05128042523747631
0.3660000000000001,0.0106,-0.411,0.005608589082173111,0.926198938186052,0.019883477720864094,0.05137885157838285
0.367,-0.0032,-0.411,0.005637850987230782,0.9261989381860517,0.020141261055862,0.051378851578382775
0.3680000000000001,-0.005,-0.411,0.005622468064608499,0.9261989381860517,0.02000574489285855,0.051378851578382775
0.369,-0.0035,-1.411,0.005624123835157554,0.9144007962749942,0.020020331436464835,0.04887187555596588
0.3700000000000001,0.0041,0.589,0.005584012436231886,0.9144007962749942,0.019666969269302052,0.04887187555596588
0.371,0.0031,-0.411,0.005580548754566126,0.914869741910102,0.019636455896730756,0.04897152137069629
0.3720000000000001,0.0194,-0.411,0.005579548893396239,0.9252722930188407,0.01962764759985465,0.051181949622718964
0.373,0.0038,-1.411,0.005444135900565781,0.924808622253291,0.018434724144423917,0.05108342466003484
0.3740000000000001,0.002,1.589,0.005459749955177008,0.924808622253291,0.018572276469284128,0.05108342466003484
0.375,-0.0071,-0.411,0.005452972204751899,0.9346418195894104,0.018512567742018267,0.05317287146709867
0.3760000000000001,-0.0024,-0.411,0.00545833252268349,0.9670940945916433,0.01855978956952168,0.06006862470661743
0.377,-0.0038,1.589,0.005438714719803684,0.9670940945916433,0.018386966144603827,0.06006862470661743
0.3780000000000001,-0.0027,-0.411,0.005444722709733965,0.9670940945916433,0.01843989365147015,0.06006862470661743
0.379,-0.0016,0.589,0.005462497499421278,0.9782569420467491,0.01859648101498771,0.062440607610605
0.3800000000000001,0.0016,0.589,0.005404645693101109,0.9688665034623103,0.0180868343758002,0.06044524219216545
0.381,-0.0049,0.589,0.005373819981980249,0.9580419996518784,0.017815274660164592,0.0581451536094133
0.3820000000000001,0.0012,0.589,0.005411998206028301,0.9580419996518784,0.018151606484767515,0.0581451536094133
0.383,-0.001,-0.411,0.005450190295037369,0.9580419996518784,0.018488060453020465,0.0581451536094133
0.3840000000000001,-0.0017000000000001554,-0.411,0.005469740048277505,0.9584895938565442,0.018660284393283277,0.05824026247887166
0.385,-0.0024,-0.411,0.005486025595237743,0.9584895938565442,0.018803752243356647,0.05824026247887166
0.3860000000000001,0.004099999999998624,1.589,0.005497594024567307,0.9589369791417974,0.018905664551778986,0.05833532695524152
0.387,-0.0021,0.589,0.0054941157582796595,0.9701936852166285,0.018875022695690895,0.06072725378861409
0.3880000000000001,-0.001399999999997513,1.589,0.005540320714204792,0.9396762440877435,0.019282066174518993,0.05424263156992982
0.389,0.0098,0.589,0.0055371924932070575,0.9396762440877435,0.01925450804937925,0.05424263156992982
0.3900000000000001,0.0017999999999983125,2.589,0.005456284394997216,0.9396762440877435,0.01854174654790608,0.05424263156992982
0.391,-0.0058,0.589,0.005402706567945189,0.9392196842424756,0.018069751614145202,0.054145617599974744
0.3920000000000001,0.0031999999999986237,0.589,0.005354282566190379,0.9392196842424756,0.017643159406915444,0.054145617599974744
0.393,-0.003,-0.411,0.005329737254980637,0.9396762440877435,0.017426926999294053,0.05424263156992982
0.39400000000000013,0.00939999999999838,-0.411,0.005303610442917533,0.9589369791417974,0.017196762328428757,0.05833532695524152
0.395,0.0021,-0.411,0.0053037684126566965,0.9593841557999117,0.017198153965989952,0.05843034710062781
0.39600000000000013,0.0034999999999983126,-1.411,0.005320933130673015,0.959384155799912,0.01734936689097978,0.05843034710062789
0.397,-0.0041,-1.411,0.0052915022127781805,0.9593841557999122,0.017090094634029065,0.05843034710062793
0.39800000000000013,-0.003000000000004197,0.589,0.005286905890234052,0.9598311241224802,0.01704960323909711,0.05852532297699094
0.399,-0.0219,-0.411,0.0052633920761938685,0.9598311241224805,0.016842457826320576,0.05852532297699101
0.40000000000000013,-0.0030000000000015323,-2.411,0.0052617051094524655,0.9602778844004161,0.01682759645923691,0.05862025464614673
0.401,-0.0099,0.589,0.005309575846321096,0.9493554586319222,0.017249314668440374,0.0562993587190873
0.40200000000000014,0.0012999999999996003,-1.411,0.005355745138239197,0.9489035559001316,0.017656043964488718,0.05620333433477287
0.403,-0.0005,0.589,0.00542492412726783,0.9489035559001316,0.018265477645188516,0.05620333433477287
0.40400000000000014,0.0013000000000024869,0.589,0.005377975502256344,0.9584895938565468,0.01785188279874313,0.0582402624788722
0.405,0.0125,-0.411,0.005374825295540167,0.9580419996518811,0.01782413098997919,0.05814515360941387
0.40600000000000014,0.008099999999998556,1.589,0.005368913675983059,0.9484514378530938,0.01777205245983337,0.056107264198325076
0.40700000000000003,0.0016,-0.41099999999988895,0.005369334330877395,0.9479991041827455,0.017775758227497208,0.05601114824428384
0.40800000000000014,0.002699999999998779,1.588999999999889,0.005368610834332458,0.947546554580288,0.01776938457028502,0.05591498640703286
0.40900000000000003,-0.0028,-0.41099999999994447,0.0053797100025027135,0.947546554580288,0.017867162913184843,0.05591498640703286
0.41000000000000014,-0.00020000000000057732,0.5889999999999445,0.005336365111988522,0.9475465545802881,0.01748531523751759,0.05591498640703288
0.41100000000000003,-0.0028,-0.41099999999994447,0.005325727940042721,0.9461876070811938,0.0173916068595521,0.055626224937503514
0.4119999999999999,-0.0035,0.5889999999999445,0.00531895456000967,0.9571461833118013,0.017331936633342048,0.05795480244208604
0.41300000000000003,-0.0057,-0.41099999999994447,0.005321355926940963,0.96842370535679,0.01735309152311708,0.06035115244128098
0.4139999999999999,0.0052,0.589,0.005310190008218659,0.9575941962348464,0.01725472513990046,0.058050000284617015
0.41500000000000004,-0.0054,0.589,0.005328092410349441,0.9571461833118013,0.017412436707778603,0.05795480244208604
0.4159999999999999,-0.0064,0.5889999999999445,0.0053322766143732185,0.9566979605884165,0.017449297536403237,0.05785956001927919
0.41700000000000004,-0.0003,-0.411,0.0052664127816050175,0.9566979605884165,0.016869068790760434,0.05785956001927919
0.4179999999999999,-0.0014,-0.411,0.0052676547428311985,0.9679807046954302,0.01688000987290092,0.060257019649497645
0.41900000000000004,-0.0006,0.589,0.005250446804667221,0.9684237053567899,0.01672841619916008,0.06035115244128096
0.41999999999999993,0.0001,0.589,0.005285134100330687,0.9584895938565468,0.017033994620679928,0.0582402624788722
0.42100000000000004,0.0055,-1.411,0.005277346447776949,0.9580419996518805,0.01696538914051208,0.058145153609413754
0.42199999999999993,0.0005,-0.411,0.005329524192772342,0.9693090992895894,0.017425050023529558,0.06053928896113766
0.42300000000000004,0.0056,-0.411,0.0049627523819679945,0.9791334441899532,0.014193966456481352,0.06262685472249559
0.42399999999999993,0.0002,-1.411,0.004991394813329581,0.9693090992895881,0.014446292525624373,0.060539288961137375
0.42500000000000004,0.0024,2.589,0.005207117146096803,0.9584895938565414,0.016346702709604664,0.05824026247887107
0.42599999999999993,0.0002,-0.411,0.005289250963210158,0.9884263476165754,0.017070262206153517,0.06460149498744638
0.42700000000000005,-0.0027,-0.411,0.005293193356357615,0.9888601888522748,0.0171049927970505,0.06469368150152913
0.42799999999999994,0.0046,1.589,0.00528074864254348,0.978256942046742,0.016995360843020866,0.06244060761060349
0.42900000000000005,-0.0001,0.589,0.005274709479672882,0.978256942046742,0.016942158717516385,0.06244060761060349
0.42999999999999994,0.0083,0.589,0.005336206314171564,0.977818396343784,0.017483916304988592,0.062347421448719874
0.43100000000000005,0.0072,0.589,0.005809649486977475,0.9773796538674295,0.021654723358642915,0.062254193474643255
0.43199999999999994,0.0065,0.589,0.006299183756945752,0.9773796538674295,0.025967285253006175,0.062254193474643255
0.43300000000000005,-0.0055,0.589,0.006413719495535837,0.9769407143525667,0.026976290121691594,0.062160923632040226
0.43399999999999994,0.0057,0.589,0.006426915455995531,0.9879923158751436,0.02709254019799716,0.06450926799298061
0.43500000000000005,-0.0048,0.589,0.006424766182739211,0.9884263476165752,0.02707360613246916,0.06460149498744634
0.43599999999999994,-0.0011,1.589,0.006451512551652451,0.9884263476165752,0.027309228801736612,0.06460149498744634
0.43700000000000006,-0.0073,-0.411,0.006438297311596876,0.9778183963437841,0.027192808881447417,0.0623474214487199
0.43799999999999994,0.0029,0.589,0.006457340023487555,0.9778183963437841,0.027360566030850676,0.0623474214487199
0.43900000000000006,0.0065,0.589,0.006462264460278549,0.9765015775334878,0.027403947954770767,0.06206761186445083
0.43999999999999995,0.0029,-0.411,0.006390761782427677,0.9760622431438873,0.026774043691143657,0.06197425811528808
0.44100000000000006,0.0019,0.589,0.006396812830159513,0.9439183469042494,0.02682735051656975,0.05514403198753626
0.44199999999999995,0.0044,0.589,0.006403507206684551,0.9439183469042494,0.026886324759803563,0.05514403198753626
0.44300000000000006,-0.0017,-2.411,0.006395360115018553,0.9434638398943213,0.026814552793622434,0.05504745422262208
0.44399999999999995,0.0004,0.589,0.006448382370791165,0.9535545022461088,0.027281653411139913,0.0571916095274949
0.44500000000000006,-0.0046,-0.411,0.006380670132259091,0.9635394959831752,0.02668514109813191,0.059313311408309505
0.44599999999999995,-0.0024,0.589,0.0063811578269094855,0.9635394959831751,0.02668943745386103,0.05931331140830948
0.44700000000000006,-0.0009,0.589,0.006371564429582003,0.9858192907712671,0.026604924229169595,0.06404752394272277
0.44799999999999995,-0.0035,0.589,0.00642434022429597,0.9760622431438873,0.027069853643085687,0.06197425811528808
0.44900000000000007,0.0024,0.589,0.006468018348358291,0.9756227109168605,0.02745463694632744,0.06188086232783759
0.44999999999999996,-0.0074,0.589,0.006151330964307152,0.9756227109168605,0.024664773133579405,0.06188086232783759
0.45100000000000007,0.0075,-0.411,0.006176069991415462,0.9452805567266207,0.02488271208526471,0.055433486665055015
0.45199999999999996,0.0093,0.589,0.0061552465600435025,0.9452805567266207,0.0246992676521499,0.055433486665055015
0.45300000000000007,0.0003,-1.411,0.006245641233699415,0.9351006145649264,0.025495601328824172,0.053270360377767396
0.45399999999999996,-0.0011,-0.411,0.006245505924912628,0.9346418195894031,0.025494409323373955,0.053172871467097114
0.45500000000000007,-0.0025,0.589,0.006261228022656575,0.9341827992909508,0.02563291345636222,0.05307533467777066
0.45599999999999996,0.0012,-0.411,0.0061603600965906505,0.9346418195894031,0.024744315454135437,0.053172871467097114
0.4570000000000001,-0.0024,-0.411,0.006109534067804632,0.9346418195894031,0.024296562541967315,0.053172871467097114
0.45799999999999996,-0.0056,1.589,0.006151182307346686,0.9448267050052502,0.024663463537127495,0.05533704814178704
0.4590000000000001,-0.0009,-1.411,0.006360956287696985,0.9662066709174568,0.026511471592102345,0.05988005688893205
0.45999999999999996,-0.0052,-1.411,0.006401750734328641,0.9773796538674322,0.026870851081625548,0.06225419347464382
0.4610000000000001,-0.0012,1.589,0.006418744253466708,0.9879923158751465,0.0270205558266901,0.06450926799298122
0.46199999999999997,0.0024,1.589,0.006421397763503116,0.9884263476165783,0.02704393197616798,0.064601494987447
0.4630000000000001,0.0046,0.589,0.006457239975202314,0.987992315875147,0.027359684653490604,0.06450926799298135
0.46399999999999997,-0.0045,-0.411,0.006491254043030489,0.9884263476165788,0.02765933226099637,0.06460149498744709
0.4650000000000001,0.0021,-0.411,0.0064701572268424734,0.9884263476165788,0.02747347943890341,0.06460149498744709
0.46599999999999997,-0.0066,-0.411,0.006448717090751197,0.9989216551346572,0.027284602133289662,0.06683163296121182
0.4670000000000001,-0.0034,1.589,0.00641876303373113,1.0080321503941911,0.0270207212718033,0.06876751348716041
0.46799999999999997,-0.0026,0.589,0.006419120217451662,1.018746520532445,0.027023867888898268,0.07104419987001598
0.4690000000000001,-0.007,-0.411,0.006419247909079867,1.0191674550981682,0.027024992790838354,0.07113364385799559
0.47,-0.003,-0.41099999999988895,0.006472808858298442,1.018746520532445,0.02749683903898952,0.07104419987001598
0.4710000000000001,-0.0081,1.5889999999998334,0.006562760027849058,1.018746520532445,0.028289265657421226,0.07104419987001598
0.472,-0.0001,-1.4109999999999445,0.006541079482991277,1.018746520532445,0.02809827046599416,0.07104419987001598
0.4730000000000001,-0.0066,-0.41099999999994447,0.006549037789460101,1.0191674550981682,0.028168379325223442,0.07113364385799559
0.474,-0.015,0.5889999999998334,0.006526364756859828,1.0191674550981682,0.02796864079327566,0.07113364385799559
0.4750000000000001,-0.0117,-2.4109999999998335,0.006555432087132026,1.0097327022363838,0.02822471001782837,0.0691288621406512
0.476,0.0031,0.589,0.0066233939153260354,0.9892938398328763,0.028823421095930703,0.06478582758848599
0.4770000000000001,0.001,0.5889999999999445,0.0066248961906630694,0.989727300808455,0.028836655420411715,0.06487793330145512
0.478,-0.0009,-0.411,0.006648210311572575,0.9993509401262786,0.029042041632579098,0.06692285132329724
0.4790000000000001,0.0082,-0.411,0.006632212399999381,0.9884263476165792,0.02890110771217263,0.06460149498744719
0.48,0.023,-0.411,0.006632547778113891,0.9879923158751476,0.02890406223234735,0.06450926799298146
0.4810000000000001,0.0248,0.589,0.006608910691397178,0.9972026671443028,0.028695830846473463,0.06646636682802501
0.482,0.0121,-0.411,0.006570682260914346,1.0063287248663257,0.028359056727284098,0.0684055542069174
0.4830000000000001,0.0042,1.589,0.006596177183511825,1.015372761906906,0.02858365475532563,0.07032731308874055
0.484,-0.0002,0.589,0.006573556069517429,1.015372761906906,0.028384373601369643,0.07032731308874055
0.4850000000000001,0.0063,-0.411,0.00655019266298212,1.0255923527682778,0.02817855320650083,0.07249886429074448
0.486,0.0001,0.589,0.006569880962376494,1.0255923527682778,0.028351997671866844,0.07249886429074448
0.4870000000000001,-0.0054,0.589,0.006569177052686214,1.015372761906906,0.028345796565440583,0.07032731308874055
0.488,-0.0029,-1.411,0.006531970004565307,1.0157950945228922,0.028018020334496914,0.07041705414709905
0.4890000000000001,-0.0022,-0.411,0.006528373708230415,1.0157950945228922,0.0279863386903585,0.07041705414709905
0.49,0.0033,0.589,0.006497942209375037,1.0247555890006872,0.02771825179552156,0.07232106114872508
0.4910000000000001,-0.0065,0.589,0.006500081877490944,1.0251740562570135,0.027737101244373924,0.0724099808604632
0.492,-0.0,-0.411,0.006500386370238044,1.0247555890006872,0.02773978367928974,0.07232106114872508
0.4930000000000001,-0.0088,-1.411,0.006515524406777242,1.0336384088836477,0.02787314251347035,0.0742085631491171
0.494,0.0014,-1.411,0.006525223137914066,1.005049261075369,0.02795858367845161,0.06813368215539774
0.4950000000000001,-0.0023,-0.411,0.006530545306677574,1.0046224110350275,0.02800546943009953,0.06804298119380811
0.496,-0.0005,2.589,0.0065446410659128346,1.0141047087552244,0.028129646301626912,0.07005786567317451
0.4970000000000001,-0.0092,-0.411,0.006541696490083847,1.0243369507900375,0.028103706002256295,0.07223210511106438
0.498,-0.0081,-0.411,0.006587112655507096,1.0239181414153764,0.028503800615458944,0.0721431127029247
0.4990000000000001,-0.0089,-0.411,0.006611700204262955,1.0239181414153764,0.028720405115583502,0.0721431127029247
0.5,-0.0063,-0.411,0.00663067837614097,1.0234991606665857,0.028887593698460664,0.07205408387965821
0.5010000000000001,-0.0085,0.589,0.006848983849522118,1.0230800083331177,0.030810760111090938,0.07196501859652583
0.502,-0.0107,-0.411,0.006810324344951004,1.051178884197293,0.030470188436141292,0.07793572216827514
0.5030000000000001,0.0002,-0.411,0.006761309589531891,1.050770773360181,0.030038391972748244,0.07784900308226637
0.504,0.0046,-0.411,0.007002662887035696,1.0416223147486166,0.03216459865070213,0.0759050557595299
0.5050000000000001,0.0056,0.589,0.007192011781155323,1.0519946309040233,0.033832671502012496,0.07810905941489883
0.506,0.0019,1.589,0.007343213153047295,1.0519946309040233,0.035164682997017783,0.07810905941489883
0.5070000000000001,0.0073,-1.411,0.007379675426811669,1.0524022671418025,0.03548589812344452,0.07819567765374395
0.508,0.0164,2.589,0.007376332621999833,1.0524022671418025,0.035456449617923644,0.07819567765374395
0.5090000000000001,0.007699999999997247,1.589,0.007369199164611,1.0424455398009493,0.03539360728308131,0.07607998207274172
0.51,-0.0047,1.589,0.007375503353468535,1.0436791598732975,0.035449144160292455,0.07634211283582829
0.5110000000000001,0.003300000000000955,0.589,0.007357577246511336,1.0436791598732975,0.0352912237642742,0.07634211283582829
0.512,0.0076,-0.411,0.007387737423198133,1.0336384088836477,0.035556920441066966,0.0742085631491171
0.5130000000000001,0.008699999999998067,0.589,0.007384207977940269,1.023080008333118,0.03552582772282215,0.07196501859652588
0.514,-0.0,0.589,0.0073696942126801526,1.0226606842039925,0.03539796841889933,0.07187591680869662
0.5150000000000001,-0.001099999999999445,1.589,0.007367935153981904,1.0230800083331162,0.03538247195628701,0.0719650185965255
0.516,0.0014,-1.411,0.007367494007692055,1.0323927910522088,0.035378585669266556,0.0739438829935423
0.5170000000000001,0.0007000000000001555,1.589,0.007359249515832559,1.0328081639156805,0.03530595565414227,0.07403214518066775
0.518,0.0014,0.589,0.007367643803274329,1.0503625039545232,0.03537990529642994,0.07776225030217725
0.5190000000000001,0.008300000000000555,-0.411,0.007370868797204566,1.0499540757953665,0.03540831594464461,0.07767546378870717
0.52,0.0108,0.589,0.007347818046261136,1.049954075795367,0.03520524989543515,0.07767546378870727
0.5210000000000001,-0.0015000000000003997,-1.411,0.007356390399579594,1.059030562753026,0.035280768212607505,0.07960411792273706
0.522,-0.0033,0.589,0.0073136711267255535,1.0578148455859655,0.03490443192816887,0.07934579133107221
0.5230000000000001,0.0013999999999983125,-0.411,0.007323381668543323,1.0761572464597067,0.03498997713957898,0.0832433507544701
0.524,-0.0062,-0.411,0.007295536065134178,1.0761572464597065,0.03474467074214206,0.08324335075447005
0.5250000000000001,-0.009799999999997512,1.589,0.007185748834304401,1.0761572464597071,0.03377749794707944,0.0832433507544702
0.526,0.0014,0.589,0.007102016331984393,1.0491367424748252,0.03303985480138435,0.07750178940401453
0.5270000000000001,-0.006199999999998534,-1.411,0.0070952750645285586,1.0590305627530276,0.03298046747156242,0.07960411792273737
0.528,0.0004,-0.411,0.007151755875625797,1.0586254788217984,0.033478036301046954,0.07951804202109845
0.5290000000000001,-0.0007000000000012212,-0.411,0.0073095129681123635,1.0590305627530279,0.03486780054710718,0.07960411792273743
0.53,-0.0062,-1.411,0.0073279163515530075,1.0590305627530279,0.03502992551980546,0.07960411792273743
0.5310000000000001,-0.0013999999999977574,-1.411,0.00710471131731533,1.0590305627530276,0.03306359632829486,0.07960411792273737
0.532,0.0087,-1.411,0.006670147071435388,1.0590305627530279,0.029235293955192383,0.07960411792273743
0.5330000000000001,-0.0004000000000002443,0.589,0.006566398754907237,1.0692340200880353,0.028321321095860923,0.0817722409269745
0.534,-0.0015,1.589,0.006588255828669391,1.0590305627530279,0.028513871422184475,0.07960411792273743
0.5350000000000001,-0.006999999999998557,0.589,0.006613098306628019,1.0590305627530276,0.028732721726194614,0.07960411792273737
0.536,-0.0005,0.589,0.0065835451053166075,1.0594354917970739,0.028472372211051783,0.07969016091254517
0.5370000000000001,0.001999999999999112,0.589,0.006647098702647379,1.0594354917970739,0.029032248891628514,0.07969016091254517
0.538,-0.002,0.589,0.006872675493087271,1.059435491797074,0.031019472116606987,0.07969016091254522
0.5389999999999999,0.0017,-1.411,0.00686922513215179,1.0503625039545257,0.030989076093274205,0.07776225030217776
0.54,-0.0034,0.589,0.0069178512107369175,1.050770773360172,0.03141744850036252,0.07784900308226449
0.5409999999999999,0.002,-0.411,0.007147308510424073,1.0503625039545257,0.03343885714878757,0.07776225030217776
0.542,-0.0063,-1.411,0.007233385918959287,1.0503625039545257,0.0341971577924556,0.07776225030217776
0.5429999999999999,0.0039,-0.411,0.007236231257941204,1.0594354917970739,0.034222223862846866,0.07969016091254517
0.544,-0.0027,-0.411,0.007193081391377997,1.050770773360172,0.03384209425455733,0.07784900308226449
0.5449999999999999,-0.0063,-1.411,0.0071945236946395884,1.0420340085700468,0.033854800253846115,0.07599253619048958
0.546,0.0013,1.589,0.007259167588928649,1.0424455398009402,0.0344242819271768,0.07607998207273978
0.5469999999999999,-0.0078,-0.411,0.00728080940073719,1.0124115006173366,0.03461493589903569,0.06969807747646979
0.548,-0.0067,0.589,0.007239622976288286,1.0124115006173366,0.034252103273130004,0.06969807747646979
0.5489999999999999,-0.0056,-0.411,0.007196210563739327,1.0124115006173364,0.033869660760753595,0.06969807747646975
0.55,-0.0187,-0.411,0.0071442094203152205,1.0218215197126816,0.033411555652793225,0.07169760353916321
0.5509999999999999,-0.002,-2.411,0.007181485739001721,1.0218215197126814,0.03373994212416317,0.07169760353916316
0.552,0.0045,-0.411,0.007137784703454876,1.0214016789263767,0.03335495698174249,0.07160839196733826
0.5529999999999999,0.0182,-0.411,0.007061414996345907,1.049545488697367,0.03268217652699892,0.07758864350247263
0.554,0.0164,1.589,0.007061414996345908,1.0495454886973667,0.032682176526998924,0.07758864350247259
0.5549999999999999,0.015,0.589,0.007046837266737201,1.0499540757953691,0.03255375372787413,0.07767546378870774
0.556,0.0074,0.589,0.0070312837915005024,1.049545488697367,0.032416735078219516,0.07758864350247263
0.5569999999999999,0.0008,-0.411,0.0070305245971937725,1.039148726591323,0.03241004694086432,0.0753794453501605
0.558,0.0045,0.589,0.006992254227581572,1.0298970358296413,0.03207290335808008,0.0734135623254264
0.5589999999999999,-0.0032,1.589,0.006819291646443724,0.9994859916687454,0.03054918605711536,0.06695154829789775
0.56,-0.0006,-1.411,0.006858860377193478,0.9885628916125817,0.03089776757818184,0.06463050909208873
0.5609999999999999,-0.0068,0.589,0.006990160587422999,0.977517740915633,0.03205445939343393,0.06228353546098841
0.562,0.0008,-0.411,0.007098057393626564,0.977517740915633,0.0330049784551273,0.06228353546098841
0.563,0.0001,-0.41099999999988895,0.007099591701394107,0.977517740915633,0.03301849496994241,0.06228353546098841
0.5640000000000001,-0.0042,0.5889999999997779,0.007057471795575285,0.9770788634345181,0.03264743882132959,0.062190278799877846
0.565,-0.002,-1.410999999999778,0.007079422959611998,1.0060365898254149,0.032840818037799514,0.06834347870821662
0.5660000000000001,-0.0056,0.5889999999996669,0.007090889538279447,0.9951853913713383,0.03294183309078684,0.06603771780586969
0.567,-0.0049,-2.410999999999778,0.007089605209499638,0.9964775203193814,0.03293051877083944,0.0663122810646468
0.5680000000000001,-0.0034,-0.411,0.007097239008703341,0.9859561958157929,0.032997768876858055,0.06407661476622376
0.569,0.0038,-0.411000000000111,0.007099432037840614,0.9855210761994068,0.03301708841069017,0.06398415661023728
0.5700000000000001,0.0046,-1.411,0.007062143815578612,0.9855210761994068,0.03268859707453494,0.06398415661023728
0.571,-0.0016,-1.411000000000111,0.00697988633033037,0.9960469969170883,0.03196394812109046,0.06622079955384835
0.5720000000000001,-0.0038,-2.410999999999778,0.0069812865844695645,0.9868258594788528,0.031976283687798604,0.06426140877593262
0.573,-0.0016,-0.41099999999988895,0.006986433531943918,0.9973380095887701,0.03202162582401232,0.0664951256161166
0.5740000000000001,-0.0081,0.589,0.007001244425262498,0.9973380095887701,0.032152102683479844,0.0664951256161166
0.575,-0.0041,0.589000000000111,0.007014523834020813,1.0081660390228961,0.03226908789923296,0.06879596335531492
0.5760000000000001,-0.0005,1.588999999999778,0.006973130846055516,0.9977679759366918,0.03190443554791842,0.06658648875895824
0.577,0.009,-0.411,0.007250923060543682,0.9977679759366919,0.03435165159028066,0.06658648875895827
0.5780000000000001,0.0151,0.589,0.007260697673146167,0.9881289198475652,0.03443776123454391,0.06453829484195477
0.579,0.0097,-0.411,0.007260979832043748,0.9881289198475652,0.03444024691896789,0.06453829484195477
0.5800000000000001,0.0144,-0.411,0.007325565994757101,0.9881289198475652,0.035009220004833363,0.06453829484195477
0.581,0.0042,0.589,0.007351540031775829,0.9788331926879791,0.03523803880090458,0.06256305456465562
0.5820000000000001,0.0031,1.589,0.007350262615367385,0.9694483358984989,0.0352267853756303,0.0605688752165506
0.583,0.0068,-0.411,0.007299117127762878,0.9595248326180421,0.03477621818464259,0.05846023938473676
0.5840000000000001,0.0057,0.589,0.007301314875225485,0.959077721551475,0.03479557928465564,0.0583652331768363
0.585,0.001,0.589,0.007304567022561496,0.9476889885968615,0.0348242291413389,0.055945252076577946
0.5860000000000001,-0.0092,0.589,0.007271356954556585,0.957287189008145,0.03453166438627799,0.05798476460921564
0.587,-0.0183,0.589,0.007271254985018687,0.9889966729507952,0.0345307660836044,0.06472268287861133
0.5880000000000001,-0.0019,-0.411,0.0072709827746233035,0.9994859916687454,0.03452836804070854,0.06695154829789775
0.589,-0.0085,0.589,0.007350023349508666,0.9994859916687455,0.03522467755828586,0.06695154829789778
0.5900000000000001,-0.0183,-0.411,0.007361326242068193,0.9902968769064566,0.03532425061524765,0.06499896198812431
0.591,-0.0129,0.589,0.007397310223808433,0.9898636653480967,0.03564125221856846,0.06490690927358421
0.5920000000000001,0.002,-1.411,0.007426921799338372,0.9902968769064566,0.035902115982551205,0.06499896198812431
0.593,0.0038,0.589,0.007425259895119373,0.9810216925630687,0.03588747540425747,0.0630280868344209
0.5940000000000001,0.002,0.589,0.007426576741578213,1.0102909998662177,0.035899076189345486,0.06924749427628046
0.595,0.0099,0.589,0.007426576741578216,1.0209816654961577,0.035899076189345513,0.0715191437105712
0.5960000000000001,0.0056,0.589,0.007432814558464251,1.011987755927874,0.035954028361352745,0.06960803636795307
0.597,0.0049,-0.411,0.00760340350487842,1.0107154559246607,0.03745683507997736,0.0693376865429194
0.5980000000000001,-0.0016,-0.411,0.007563662292138323,1.0214016789263767,0.03710673407538408,0.07160839196733826
0.599,0.002,-1.411,0.007536510969105762,1.0209816654961577,0.036867543954742774,0.0715191437105712
0.6000000000000001,0.0096,-0.411,0.007557605547172176,1.0209816654961574,0.03705337706005894,0.07151914371057116
0.601,0.003,-0.411,0.0073277154587361075,1.0303134148621935,0.03502815575053666,0.07350203831246865
0.6020000000000001,0.0023,-2.411,0.007325935356062099,1.0303134148621935,0.03501247390060104,0.07350203831246865
0.603,0.0002,-0.411,0.007340496477028155,1.0307296256920666,0.03514075038555785,0.07359047855828263
0.6040000000000001,0.0009,0.589,0.007134397559798609,1.03114566852294,0.03332511787228914,0.07367888310614798
0.605,0.0031,-0.411,0.006963394647294228,1.0205614792088689,0.03181866431115374,0.0714298587235688
0.6060000000000001,0.0016,-0.411,0.006869115302421492,1.0201411198509163,0.030988108546079227,0.07134053696094463
0.607,0.0002,-0.411,0.00688364865192987,1.0197205872082649,0.0311161403778269,0.07125117837721862
0.6080000000000001,-0.0056,0.589,0.006901074044116328,1.02906377233972,0.031269649717106704,0.07323650295410028
0.609,-0.0107,-0.411,0.006897064948656596,1.02906377233972,0.03123433151086217,0.07323650295410028
0.6100000000000001,-0.0143,-0.411,0.006919164065166866,1.0278126104690075,0.031429014117592566,0.07297064475086076
0.611,-0.0128,0.589,0.006921617951603154,1.0188790012105178,0.031450631678992126,0.0710723505640715
0.6120000000000001,-0.0078,-0.411,0.006895080333136703,1.0184579474251398,0.031216848000940368,0.07098288124322014
0.613,-0.0041,-0.411,0.006898515131879007,1.0184579474251398,0.031247106928822634,0.07098288124322014
0.6140000000000001,-0.0056,-2.411,0.00689852414505397,1.0184579474251403,0.031247186330566862,0.07098288124322022
0.615,-0.0042,-0.411,0.0068861923947729645,1.0184579474251416,0.03113854953103061,0.07098288124322051
0.6160000000000001,-0.0005,1.589,0.006883375488475513,1.009441552315965,0.031113733938939035,0.0690669959692726
0.617,-0.0034,0.589,0.006864553168919795,1.0094415523159668,0.030947918340197028,0.06906699596927297
0.6180000000000001,-0.0023,-0.411,0.006860923891987015,0.989863665348109,0.03091594615282512,0.06490690927358682
0.619,-0.0041,-0.411,0.0068551918190517015,0.9994859916687576,0.030865449342217466,0.06695154829790034
0.6200000000000001,0.0013,1.589,0.00684532585124818,0.9999150343786176,0.03077853490249246,0.06704271517776332
0.621,0.002,0.589,0.0068456074251131895,0.9907298990365732,0.030781015433060357,0.06509097445123603
0.6220000000000001,0.0042,1.589,0.006844642705080854,1.0124115006173466,0.030772516712734913,0.06969807747647191
0.623,-0.0048,-0.411,0.006836696019604476,0.983205321105874,0.030702510228869877,0.06349208399939375
0.6240000000000001,0.0075,1.589,0.006842242007692377,0.983641465110748,0.030751367721310652,0.06358475982672172
0.625,0.0061,0.589,0.006811617166377184,0.983641465110748,0.030481577572225922,0.06358475982672172
0.6260000000000001,0.0199,0.589,0.0068931810405644355,1.0145275692428688,0.031200116145223836,0.07014771889848267
0.627,0.0072,-0.411,0.007032352082469011,1.0037681664035896,0.03242614620876852,0.06786146355955368
0.6280000000000001,-0.0008,-0.411,0.006976047823683617,1.0344679875125011,0.031930132720389054,0.07438483952779805
0.629,0.0097,-0.411,0.006850869384589349,1.044500763820916,0.03082737076979304,0.07651669468203173
0.6300000000000001,0.0087,0.589,0.006787090156201766,1.0449113235374523,0.030265506387930654,0.0766039341281145
0.631,-0.0,0.589,0.006633151642079896,1.0449113235374523,0.02890938198397442,0.0766039341281145
0.6320000000000001,0.0011,-0.411,0.006757327808471805,1.0536242295942913,0.03000331439325102,0.07845533130020602
0.633,0.0018,-0.411,0.006808116723169876,1.0432681152606638,0.0304507403481227,0.0762547703546321
0.6340000000000001,0.0025999999999995116,-0.411,0.006775503690274045,1.0432681152606638,0.030163435185737872,0.0762547703546321
0.635,0.0004,-1.411,0.006834399690034521,1.0519946309040324,0.03068228066782009,0.07810905941490076
0.6360000000000001,-0.0002999999999995115,2.589,0.006836072520787553,1.0515868366504966,0.030697017503632854,0.07802240759943686
0.637,0.0019,1.589,0.006774672227511124,1.051178884197302,0.030156110397979528,0.07793572216827703
0.6380000000000001,0.010899999999998557,0.589,0.006531636217107782,1.05077077336019,0.028015079827246558,0.07784900308226832
0.639,0.0044,0.589,0.006573380694910081,1.0507707733601903,0.02838282863527578,0.07784900308226836
0.6400000000000001,0.007999999999999756,-0.411,0.006526773955892322,1.0594354917970923,0.027972245640296604,0.07969016091254909
0.641,0.0069,0.589,0.006268618682846357,1.0684314357248341,0.025698021624398555,0.08160170053428552
0.6420000000000001,-0.006099999999999579,0.589,0.006191907207314704,1.0680299173762486,0.02502223035393322,0.0815163822799322
0.643,-0.0042,-2.411,0.006192745537119306,1.0594354917970903,0.025029615637031922,0.07969016091254867
0.6440000000000001,-0.002700000000000955,1.589,0.006205948255361056,1.0594354917970903,0.02514592524615301,0.07969016091254867
0.645,-0.007,0.589,0.006203240753654418,1.0594354917970903,0.025122073455981653,0.07969016091254867
0.6460000000000001,-0.016099999999996357,-1.411,0.006132853349700024,1.0594354917970896,0.02450199421994258,0.07969016091254852
0.647,0.0003,1.589,0.006107230158993978,1.0590305627530432,0.024276266211445734,0.07960411792274068
0.6480000000000001,-0.001899999999997824,-0.411,0.006093607469846518,1.0594354917970892,0.02415625686027222,0.07969016091254844
0.649,0.0079,-0.411,0.0061175376969393415,1.0598402661314823,0.024367070672123757,0.07977617102824829
0.6500000000000001,0.002499999999999689,-1.411,0.006205876459167013,1.0598402661314792,0.025145292756152647,0.07977617102824762
0.651,0.0011,-2.411,0.006302843012558729,1.0602448859334133,0.025999521538157943,0.07986214830749132
0.6520000000000001,-0.006499999999997268,0.589,0.006338079174122479,1.0602448859334128,0.026309935204750282,0.07986214830749122
0.653,0.0058,0.589,0.0063362723377030665,1.032808163915687,0.026294017843352453,0.07403214518066911
0.6540000000000001,-0.005400000000000977,-0.411,0.006386168348683978,1.0420340085700543,0.026733577745156577,0.07599253619049118
0.655,-0.0098,-0.411,0.006444882694384725,1.041622314748615,0.027250822942184196,0.07590505575952956
0.6560000000000001,-0.008699999999999177,-0.411,0.006486440787068958,1.0420340085700541,0.02761692978680624,0.07599253619049114
0.657,-0.005,-1.411,0.006486061908982303,1.0420340085700541,0.027613592052761135,0.07599253619049114
0.6580000000000001,-0.003900000000000555,0.589,0.006526645996633763,1.0524022671418007,0.027971118380661582,0.07819567765374356
0.659,-0.0064,-1.411,0.006567175970455124,1.0610536626469822,0.02832816799169876,0.08003400450685659
0.6600000000000001,0.0019000000000002442,0.589,0.0064834014535648625,1.0614578199113185,0.027590154717810816,0.08011988350192335
0.661,0.003,-0.411,0.006431175371861342,1.0614578199113185,0.027130068011601054,0.08011988350192335
0.6620000000000001,0.002299999999999445,-0.411,0.006308758201180356,1.0614578199113187,0.02605163151004868,0.0801198835019234
0.663,-0.0002,-0.411,0.006283358963722762,1.0618618233485948,0.025827876422151362,0.08020572981042355
0.6640000000000001,0.0005999999999998445,0.589,0.006270847413349514,1.0622656731343227,0.025717655670123983,0.08029154346965146
0.665,-0.0001,0.589,0.006249350122338983,1.0344679875124903,0.025528274857111524,0.07438483952779573
0.6659999999999999,-0.0023,0.589,0.006237655060905245,1.0344679875124903,0.025425246980647135,0.07438483952779573
0.667,0.0043,-1.411,0.006257252271226679,1.024336950790036,0.025597888995012162,0.07223210511106405
0.6679999999999999,-0.0019,-1.411,0.0062500379880444075,1.0239181414153748,0.025534334623733876,0.07214311270292437
0.669,-0.0011,0.589,0.006246462186630027,1.024336950790036,0.025502833530005615,0.07223210511106405
0.6699999999999999,-0.0047,0.589,0.0062412432081767055,1.024336950790036,0.02545685683544906,0.07223210511106405
0.671,-0.0011,2.589,0.006273895225034415,1.0136816718700217,0.025744505427821952,0.06996797496531591
0.6719999999999999,0.0018,-0.411,0.006270613233879347,1.0226606842039916,0.02571559266142073,0.07187591680869644
0.673,-0.0032,0.589,0.006266852402854303,1.0124115006173444,0.025682461545654726,0.06969807747647144
0.6739999999999999,0.0048,0.589,0.006251175528480304,1.0128350680227143,0.02554435580884409,0.06978808091405887
0.675,0.0113,2.589,0.00621098881906468,1.0024854345985597,0.02519033019242116,0.06758889709081273
0.6759999999999999,0.0139,-0.411,0.006180675700645139,1.012835068022714,0.024923286172389824,0.06978808091405883
0.677,0.0016,2.589,0.0058646995257100095,1.0124115006173442,0.022139687770504287,0.0696980774764714
0.6779999999999999,-0.0075,1.589,0.005820090279093377,1.012835068022714,0.02174670172458842,0.06978808091405883
0.679,-0.0028,0.589,0.005833799684872283,1.023499160666584,0.021867475007652553,0.07205408387965784
0.6799999999999999,-0.0013,-0.411,0.005774042517471609,1.0328081639156854,0.02134104305210441,0.07403214518066878
0.681,-0.0136,-1.411,0.0058229551213880605,1.0328081639156854,0.02177193960980167,0.07403214518066878
0.6819999999999999,-0.0089,-0.411,0.006083971634121877,1.0602448859334102,0.02407136977367638,0.07986214830749065
0.683,0.0015,-0.411,0.006106223863648792,1.06064935137974,0.024267401232574277,0.0799480927878579
0.6839999999999999,0.0106,-1.411,0.006103807606200402,1.070837384223622,0.024246115164492515,0.08211293825655586
0.685,0.0018,-0.411,0.006101517516468166,1.0712378502859214,0.024225940573417305,0.08219803291159093
0.6859999999999999,0.0007,-0.411,0.0061033879966753725,1.0622656731343225,0.024242418606030387,0.08029154346965142
0.687,0.0032,-0.411,0.006109168509624924,1.0428569086337791,0.024293342149907558,0.07616739344718088
0.688,0.0076,-0.411000000000111,0.006286966296865685,1.0328081639156852,0.025859655295269787,0.07403214518066874
0.6890000000000001,-0.0033,-1.411,0.006202112314972651,1.0328081639156852,0.0251121324529556,0.07403214518066874
0.69,-0.0019,-1.410999999999889,0.006186596183080193,1.032392791052212,0.02497544278023531,0.07394388299354297
0.6910000000000001,-0.0084,-0.41099999999988895,0.006136707895134892,1.0328081639156854,0.024535950914667107,0.07403214518066878
0.692,-0.0023,0.589,0.006113106234427984,1.032392791052212,0.024328031614931668,0.07394388299354297
0.6930000000000001,-0.0056,0.589,0.006083759097960456,1.0424455398009476,0.024069497432132287,0.07607998207274135
0.694,-0.0009,0.589,0.006094051495863994,1.0141047087552229,0.024160168516310514,0.07005786567317418
0.6950000000000001,0.0034,0.588999999999889,0.006106859595581427,1.0033407713488418,0.024273001725687637,0.06777064678836804
0.696,-0.0006,-0.41099999999988895,0.006072820736414805,1.0029131941581864,0.023973135718392404,0.06767979131529554
0.6970000000000001,-0.0028,0.589,0.005876538871236122,0.9933240676893365,0.022243986720552097,0.06564220689610838
0.698,0.0056,0.5889999999997779,0.005882512444223034,0.9823324521679324,0.022296611030670817,0.0633066089038551
0.6990000000000001,0.0106,-1.410999999999778,0.005881039551110831,0.9920278313373824,0.022283635549484246,0.06536677085895677
0.7,0.0146,0.588999999999889,0.005874507082324284,0.9920278313373824,0.02222608763569507,0.06536677085895677
0.7010000000000001,0.0073,-0.41099999999988895,0.005871161127100342,0.9823324521679324,0.022196611376556052,0.0633066089038551
0.702,-0.0018,0.5889999999997779,0.00591320943970317,0.9526544661550705,0.022567036823307674,0.05700036170927464
0.7030000000000001,-0.008,-1.410999999999889,0.005890159280673169,0.9522041290872926,0.022363975988571348,0.05690467001142629
0.704,0.0087,-0.411,0.005922977051748511,0.9517535789355227,0.022653084796023442,0.056808933035561913
0.7050000000000001,-0.008,0.589,0.005900942589305715,0.9818957267184484,0.02245897176058725,0.06321380952591156
0.706,-0.0015,-0.411,0.005819768885874549,0.9823324521679323,0.02174387040463055,0.06330660890385507
0.7070000000000001,-0.0073,1.589,0.005782281754680632,0.9920278313373823,0.021413626776280767,0.06536677085895674
0.708,-0.0092,-1.411,0.005778980574779075,0.9827689835442387,0.021384544966235455,0.06339936704337254
0.7090000000000001,0.0021,0.589,0.005783764737613606,0.9827689835442387,0.02142669114394424,0.06339936704337254
0.71,-0.0117,-0.411,0.005749322444015252,0.9734220728364457,0.021123271072993215,0.06141325082229646
0.7110000000000001,-0.0027,0.589,0.0057642348084013095,0.9729813479460381,0.021254641843849235,0.061319601606931576
0.712,0.0053,0.589,0.005759845262112679,0.9729813479460381,0.02121597204845551,0.061319601606931576
0.7130000000000001,0.0009,0.589,0.005772928676665721,0.9734220728364457,0.021331230649356447,0.06141325082229646
0.714,0.002,-0.411,0.005811991512201535,0.9738625982752986,0.021675355476467015,0.061506857656389045
0.7150000000000001,-0.0017,-0.411,0.005828821439630421,0.9738625982752986,0.021823619057113608,0.061506857656389045
0.716,-0.005,0.589,0.005828862240606333,0.9738625982752985,0.02182397849412296,0.061506857656389025
0.7170000000000001,0.0015,-0.411,0.005876822985022674,0.9734220728364457,0.02224648962660937,0.06141325082229646
0.718,0.0008,0.589,0.005876094778762546,0.9734220728364457,0.022240074479067465,0.06141325082229646
0.7190000000000001,-0.0032,-0.411,0.005881446868204928,0.9734220728364457,0.022287223817531426,0.06141325082229646
0.72,0.0065,-0.411,0.005897442379680027,0.9734220728364457,0.02242813659422596,0.06141325082229646
0.7210000000000001,-0.0,-1.411,0.005950016130110963,0.9734220728364457,0.02289128609500945,0.06141325082229646
0.722,0.0036,0.589,0.005956465355482574,0.941188012575902,0.022948100674277973,0.054563865826970474
0.7230000000000001,-0.0018,0.589,0.005964960970123387,0.941188012575902,0.023022942960542303,0.054563865826970474
0.724,-0.0026,0.589,0.005956532075973061,0.9407321864283495,0.022948688449766837,0.05446700775974942
0.7250000000000001,-0.0001,1.589,0.005959397582227733,0.940276139305869,0.022973932184148824,0.05437010273777477
0.726,-0.0041,-0.411,0.005854742993835478,0.9168903448126702,0.022051975504793243,0.049400877371476117
0.7270000000000001,-0.0004,0.589,0.005706607310265152,0.9168903448126702,0.020746971252073122,0.049400877371476117
0.728,-0.0041,1.589,0.005713414370253313,0.8825940445879243,0.020806938182518036,0.04211328895550137
0.7290000000000001,0.005,-1.411,0.005668910678191609,0.8706976622845372,0.02041488202155464,0.03958543792498066
0.73,0.0115,0.589,0.005704882930360648,0.8825940445879243,0.0207317802929845,0.04211328895550137
0.7310000000000001,0.0176,-2.411,0.005703988253018409,0.883079880858116,0.020723898615131506,0.04221652384531477
0.732,0.0053,0.589,0.005603081875331618,0.8726658769798499,0.019834961872585405,0.04000366200512103
0.7330000000000001,0.0006,1.589,0.005563477595028126,0.8726658769798499,0.019486067177017743,0.04000366200512103
0.734,0.002,0.589,0.005563319737501134,0.8850205589214505,0.019484676527991903,0.042628896692555256
0.7350000000000001,-0.0016,-0.411,0.005461528490109739,0.8741391297430575,0.018587944508171757,0.0403167120921741
0.736,-0.0027,1.589,0.005466542154812678,0.8746296625328134,0.01863211248715801,0.04042094494099029
0.7370000000000001,-0.015,0.589,0.0055492118950747245,0.886956990755972,0.019360393209351602,0.043040367262649044
0.738,-0.0037,0.589,0.005546526833522681,0.8991153209235819,0.01933673910616877,0.04562387934723067
0.7390000000000001,0.0006,-0.411,0.005512444550105382,0.8991153209235813,0.019036490552072943,0.04562387934723052
0.74,0.0017,0.589,0.005502759300113637,0.8884065447495464,0.018951168149507567,0.04334838162054414
0.7410000000000001,-0.0044,-0.411,0.005515058731546532,0.8780557189737206,0.01905952023550815,0.041148944435618465
0.742,0.001,1.589,0.005476188033650265,0.8903356122783613,0.018717088048757238,0.043758287356279485
0.7430000000000001,-0.0055,-0.411,0.005646000372204181,0.889853737451707,0.020213053224980317,0.04365589422985876
0.744,-0.0048,-0.411,0.005718112015863737,0.900068895800841,0.02084832218501913,0.045826503571527136
0.7450000000000001,-0.0027,-0.411,0.00586625960784324,0.9314239270521268,0.0221534313451069,0.052489104523583324
0.746,-0.0049,-0.411,0.005951908707592694,0.9314239270521275,0.02290795879400226,0.05248910452358346
0.7470000000000001,-0.0027,-0.411,0.006011030411638966,0.931423927052128,0.023428792622482323,0.05248910452358356
0.748,0.0013,-1.411,0.006011030411638966,0.9411880125759048,0.023428792622482323,0.054563865826971064
0.7490000000000001,0.0074,-0.411,0.005999832525071401,0.9712164484365184,0.02333014461789664,0.060944579778435495
0.75,-0.0016,-0.411,0.005910094796436846,0.961757270095879,0.02253959831146303,0.058934607914177525
0.7510000000000001,0.0071,0.589,0.005726996330501402,0.9712164484365224,0.02092658873164192,0.06094457977843634
0.752,0.0038,-0.411,0.005728823773045033,0.971657973850864,0.020942687623101166,0.061038399096375276
0.7530000000000001,0.0085,-0.411,0.005739154319976833,0.9716579738508654,0.021033694781903145,0.06103839909637556
0.754,-0.0017,-2.411,0.005683930535615623,0.9622031360459175,0.020547199754467945,0.059029349548443764
0.7550000000000001,-0.0006,0.589,0.005625442123704858,0.9622031360459176,0.02003194492565987,0.05902934954844379
0.756,0.0056,-1.411,0.005619913992252406,0.9729813479460496,0.019983244741604483,0.06131960160693403
0.7570000000000001,-0.0046,0.589,0.005643602563699099,0.973422072836457,0.02019192968323182,0.06141325082229887
0.758,0.0045,0.589,0.005605546394143488,0.9920278313373935,0.019856673100109273,0.06536677085895913
0.7590000000000001,0.0008999999999987787,0.589,0.005530187249340468,0.98276898354425,0.019192795214112924,0.06339936704337495
0.76,-0.0046,-0.411,0.005531607161703745,0.98276898354425,0.01920530396033737,0.06339936704337495
0.7610000000000001,0.002000000000000555,-0.411,0.005408268851728428,0.98276898354425,0.018118752663838385,0.06339936704337495
0.762,0.0045,0.589,0.005402162771931956,0.9933240676893477,0.01806496103234359,0.06564220689611076
0.7630000000000001,0.0066999999999975135,0.589,0.005388048560797475,0.9933240676893477,0.017940621608442776,0.06564220689611076
0.764,-0.0045,0.589,0.005387740732155832,0.9933240676893463,0.017937909785897585,0.06564220689611049
0.7650000000000001,0.00020000000000168754,0.589,0.005401629671344489,1.002913194158193,0.018060264672108136,0.06767979131529696
0.766,0.0078,-0.411,0.005437682667130619,1.0033407713488487,0.01837787425603977,0.0677706467883695
0.7670000000000001,0.004199999999999755,-1.411,0.005426676005113771,1.0033407713488487,0.018280910847939515,0.0677706467883695
0.768,0.0031,-1.411,0.005439034133787795,1.0037681664035853,0.018389780028454063,0.06786146355955279
0.7690000000000001,-0.004500000000001043,0.589,0.005450111575347215,1.0037681664035853,0.018487366970343314,0.06786146355955279
0.77,-0.0092,0.589,0.0054469502910780955,1.004195379554958,0.01845951757365626,0.0679522416782622
0.7710000000000001,-0.0030000000000001553,0.589,0.005421931871383747,1.0136816718700288,0.018239117307423565,0.06996797496531743
0.772,-0.0037,-0.411,0.005461103446813572,1.0328081639156843,0.01858420008079465,0.07403214518066854
0.7730000000000001,-0.00010000000000113243,-0.411,0.005450002623967276,1.0328081639156836,0.018486407160993312,0.0740321451806684
0.774,-0.0052,-0.411,0.005495435237111015,1.0323927910522106,0.018886646670716975,0.0739438829935427
0.7750000000000001,-0.0022000000000005774,-1.411,0.005569814560658409,1.0412104581437611,0.019541892801860753,0.07581754073887406
0.776,-0.0048,-0.411,0.005575549882807194,1.0311456685229423,0.01959241823647915,0.07367888310614845
0.7770000000000001,0.003199999999998779,0.589,0.005580744461558995,1.0403862558104606,0.019638179981379546,0.0756424067641532
0.778,-0.0023,0.589,0.005618687442566546,1.0399739096943705,0.01997243942773519,0.07555478772771783
0.7790000000000001,-0.006999999999998624,1.589,0.005623842176555552,1.0298970358296409,0.020017850159404715,0.0734135623254263
0.78,-0.0008,0.589,0.0056106102125864105,1.0205614792088675,0.019901282909466106,0.07142985872356851
0.7810000000000001,-0.008399999999999444,0.589,0.0054939209835431525,1.0307296256920635,0.018873306823773084,0.07359047855828196
0.782,-0.0059,-0.411,0.005231636921843301,1.0024854345985497,0.01656271016205438,0.0675888970908106
0.7830000000000001,-0.0014999999999998669,1.589,0.005282167279511005,1.032808163915673,0.017007858353621053,0.07403214518066614
0.784,-0.0009,-0.411,0.005291909653935275,1.032808163915673,0.01709368399501169,0.07403214518066614
0.7850000000000001,-0.0030000000000014655,0.589,0.005290228260100093,1.032808163915673,0.01707887172255629,0.07403214518066614
0.786,-0.0096,1.589,0.005287896729003614,1.033223369792407,0.01705833205295798,0.07412037188493752
0.7870000000000001,0.0027000000000004,1.589,0.005293205539367808,1.0226606842039792,0.01710510012352127,0.07187591680869379
0.788,0.0045,-0.411,0.005098524821543901,1.0226606842039792,0.015390056465170089,0.07187591680869379
0.7890000000000001,-0.0001999999999990452,-0.411,0.005087140843988609,1.031561543558078,0.015289769088324296,0.0737672519992561
0.79,0.0041,0.589,0.005101457369567224,1.0315615435580778,0.015415890805347325,0.07376725199925604
0.7910000000000001,0.005200000000001931,1.589,0.005103843510850798,1.0311456685229352,0.015436911564475736,0.07367888310614694
0.792,0.0139,-0.411,0.005087703949786614,1.0311456685229352,0.015294729780059175,0.07367888310614694
0.7930000000000001,0.010600000000000555,-1.411,0.005086880503444049,1.020561479208864,0.015287475613115503,0.07142985872356776
0.794,0.0131,-2.411,0.005058973441767959,1.020561479208864,0.01504162779785274,0.07142985872356776
0.7949999999999999,0.0106,0.589,0.005043504912123188,1.0209816654961528,0.014905357478080868,0.07151914371057017
0.796,0.0084,-0.411,0.0051322437901668416,1.0214016789263718,0.01568710439035406,0.07160839196733722
0.7969999999999999,-0.0028,-1.411,0.005120185987448234,1.0218215197126768,0.01558088093732106,0.07169760353916217
0.798,-0.0043,-2.411,0.00512103746344723,1.0218215197126768,0.015588382032080935,0.07169760353916217
0.7989999999999999,-0.0025,0.589,0.005224466728427999,1.0124115006173318,0.01649954420045572,0.06969807747646875
0.8,-0.001,-1.411,0.005190663286122542,1.0128350680227016,0.016201752102684368,0.0697880809140562
0.8009999999999999,-0.0075,0.589,0.005192253180301667,1.0132584583663062,0.01621575830709863,0.0698780467279565
0.802,-0.0039,0.589,0.005143126797612439,1.0132584583663062,0.015782978461047818,0.0698780467279565
0.8029999999999999,-0.0007,0.589,0.005132864637518997,1.0239181414153624,0.015692573757459437,0.07214311270292173
0.804,-0.0032,-0.411,0.005068544364862039,1.0239181414153624,0.015125943035337727,0.07214311270292173
0.8049999999999999,-0.0076,1.589,0.0051148978846988005,1.0059024177606608,0.015534295290902146,0.06831496861300397
0.806,-0.0054,0.589,0.0051147960779670005,1.0340532813901822,0.01553339842247212,0.07429671901586991
0.8069999999999999,-0.0032,-2.411,0.005084113640023156,1.0352969014040092,0.015263100874740962,0.07456097465706882
0.808,0.0004,0.589,0.005086898451885833,1.0352969014040092,0.015287633730270624,0.07456097465706882
0.8089999999999999,-0.0025,0.589,0.005066723210335494,1.0348825274505455,0.015109899538290145,0.07447292472738676
0.81,0.0011,-0.411,0.0050662617821507615,1.0449113235374294,0.015105834577513053,0.07660393412810965
0.8109999999999999,0.0007,1.589,0.0050935256243895746,1.0449113235374294,0.015346015938341286,0.07660393412810965
0.812,0.0036,0.589,0.005093525624389572,1.045321722002875,0.015346015938341263,0.07669113931010059
0.813,0.0007,0.5889999999997779,0.005082989633104557,1.045321722002875,0.015253198913420734,0.07669113931010059
0.8140000000000001,-0.0044,-1.410999999999778,0.005038253896590116,1.0449113235374294,0.014859098552232627,0.07660393412810965
0.815,-0.0065,0.589,0.00502548069300158,1.0449113235374297,0.014746572760997558,0.0766039341281097
0.8160000000000001,-0.0036,0.589,0.005028909094588452,1.0449113235374297,0.014776775333011723,0.0766039341281097
0.817,-0.004,0.589,0.005018487505573971,1.0449113235374294,0.01468496613717038,0.07660393412810965
0.8180000000000001,-0.0036,0.589,0.005001694042852995,1.035711109572093,0.014537023793093864,0.0746489893591722
0.819,-0.0026,0.5889999999997779,0.00500977916973442,1.0264284343905175,0.014608249879272032,0.07267652248434307
0.8200000000000001,0.0039,-1.411000000000111,0.005036308497929157,1.0264284343905175,0.014841960524010128,0.07267652248434307
0.821,0.0065,-2.410999999999667,0.005000929048556974,1.0260104787433,0.01453028456061758,0.07258771148394089
0.8220000000000001,0.001,0.588999999999889,0.005068559514088901,1.0348825274505455,0.015126076492753276,0.07447292472738676
0.823,-0.0073,-0.411000000000111,0.005164586693611361,1.0348825274505455,0.01597202984196124,0.07447292472738676
0.8240000000000001,0.0094,-1.410999999999778,0.005182695422326356,1.0352969014040092,0.016131559047989477,0.07456097465706882
0.825,0.0025,0.5889999999997779,0.005193134679306055,1.045731959407079,0.016223523890122046,0.07677831026834057
0.8260000000000001,0.0047,-1.410999999999889,0.005206625916683799,1.0642826234093348,0.01634237521431399,0.08072012332705455
0.827,0.0065,-0.41099999999988895,0.0052627590767914305,1.0642826234093348,0.016836881405486368,0.08072012332705455
0.8280000000000001,0.0047,0.588999999999889,0.005254786316409499,1.0638795392603162,0.016766645214221897,0.08063447235724727
0.829,0.0032,-0.41099999999977793,0.005249981093934854,1.0638795392603162,0.01672431351119437,0.08063447235724727
0.8300000000000001,0.0018,1.588999999999889,0.005213767138395831,1.0638795392603162,0.016405285949116076,0.08063447235724727
0.831,0.0054,0.589000000000222,0.005213198265914983,1.0634763023323224,0.016400274455673925,0.08054878892357997
0.8320000000000001,0.009,2.588999999999889,0.005186082199238225,1.0732379391620213,0.016161394926600754,0.0826230299062775
0.833,-0.0033,1.589,0.0051528796544480235,1.0732379391620213,0.015868896447449557,0.0826230299062775
0.8340000000000001,0.0015,0.589,0.005150885613411595,1.0634763023323224,0.01585132990325224,0.08054878892357997
0.835,0.0,0.589,0.005153546072322157,1.0638795392603162,0.015874767268975284,0.08063447235724727
0.8360000000000001,-0.0036,-0.411,0.005151395084121234,1.0638795392603162,0.015855818095608674,0.08063447235724727
0.837,-0.0047,0.589,0.005104177481379191,1.0536242295942688,0.015439853684492553,0.07845533130020124
0.8380000000000001,-0.0014,-1.411,0.005100156941389679,1.0436791598732837,0.015404434657435143,0.07634211283582536
0.839,-0.0039,-0.411,0.005083449000061223,1.0440900426630437,0.015257245715768149,0.07642942093143205
0.8400000000000001,0.0023,-0.411,0.0050915197075513926,1.0445007638208932,0.015328344774032063,0.07651669468202688
0.841,0.0016,-0.411,0.005079388190529697,1.0544380845060286,0.015221471933378895,0.07862826656109989
0.8420000000000001,-0.0005,-0.411,0.005184508798398766,1.0440900426630437,0.01614753402059054,0.07642942093143205
0.843,-0.0013,-0.411,0.005087776769128091,1.0445007638208934,0.01529537128349722,0.07651669468202692
0.8440000000000001,-0.0027,0.589,0.004976040210019962,1.035711109572093,0.014311025842169462,0.0746489893591722
0.845,-0.0099,0.589,0.004804428775598394,1.0076065639891372,0.012799211495093351,0.06867708103423857
0.8460000000000001,-0.0034,0.589,0.004685940629057739,1.007180797751666,0.011755387809903602,0.06858661036889639
0.847,0.0028,-0.411,0.004609651541006537,1.0076065639891372,0.011083317570353964,0.06867708103423857
0.8480000000000001,0.0104,-0.411,0.00460335823128819,1.0076065639891372,0.011027876533136026,0.06867708103423857
0.849,-0.0045,0.589,0.004625640990830826,0.9782569420467313,0.011224176946815045,0.062440607610601224
0.8500000000000001,0.002,0.589,0.004627949911450319,0.9782569420467313,0.011244517428966339,0.062440607610601224
0.851,0.0002,0.589,0.004632020920009845,0.9684237053567695,0.011280381059895745,0.060351152441276625
0.8520000000000001,0.002,1.589,0.004589101312544556,0.9679807046954095,0.010902279923712108,0.06025701964949325
0.853,-0.0027,-0.411,0.004614195947954574,0.9675375011999837,0.01112335161380889,0.06016284375769096
0.8540000000000001,-0.0071,1.589,0.004716033964222405,0.9670940945916252,0.012020495644976826,0.06006862470661359
0.855,-0.0005,-2.411,0.004706581122831779,0.9769407143525559,0.01193722065060858,0.06216092363203794
0.8560000000000001,0.0006,1.589,0.004666361715580724,0.9662066709174436,0.01158290698195364,0.059880056888929244
0.857,-0.0049,0.589,0.00472439638078102,0.9662066709174436,0.012094164520085026,0.059880056888929244
0.8580000000000001,-0.0002,-0.411,0.004722837347236051,0.935559184549003,0.01208043018304157,0.05336780148021782
0.859,0.0006,1.589,0.004736566916421498,0.9452805567266097,0.012201381096036933,0.055433486665052684
0.8600000000000001,-0.007,-0.411,0.004785043922254198,0.9452805567266097,0.012628440243745782,0.055433486665052684
0.861,0.002,0.589,0.004797458602756279,0.9457341906475002,0.012737807618715138,0.05552987890810254
0.8620000000000001,0.0031,0.589,0.004826876588379837,0.9341827992909396,0.012996965948564657,0.05307533467776828
0.863,-0.0001,-0.411,0.004856513587145098,0.9452805567266097,0.013258053679044972,0.055433486665052684
0.8640000000000001,-0.0027,0.589,0.004959294406139649,0.9452805567266109,0.014163503349598318,0.05543348666505294
0.865,-0.0019,0.589,0.004962028351581317,0.9355591845490078,0.014187588096379723,0.05336780148021884
0.8660000000000001,0.0071,-0.411,0.004938668704950124,0.9355591845490077,0.013981800824461038,0.053367801480218816
0.867,0.001,-0.411,0.0049369817104469044,0.9355591845490077,0.013966939212809101,0.053367801480218816
0.8680000000000001,0.0042,-0.411,0.004925773267063091,0.93510061456492,0.013868198207740559,0.05327036037776603
0.869,0.0068,0.589,0.004988742959474424,0.9346418195893965,0.014422930966308187,0.05317287146709572
0.8700000000000001,-0.007,-0.411,0.00498225294200256,0.9341827992909456,0.014365757028220606,0.05307533467776955
0.871,-0.0088,-1.411,0.00499315000351254,0.9355591845490073,0.01446175490847426,0.053367801480218746
0.8720000000000001,-0.0106,-0.411,0.004984479623746584,0.903873135269904,0.014385373025361676,0.04663486282032837
0.873,0.0043,0.589,0.005002546902515382,0.9033984814179921,0.014544537077263917,0.046534004072004975
0.8740000000000001,0.0061,1.589,0.004971971571389691,0.913931610020148,0.014275183089179001,0.04877217861217471
0.875,0.0043,-2.411,0.004883046364577025,0.9038731352699076,0.013491794709906746,0.046634862820329144
0.8760000000000001,0.009,-0.411,0.004919234945850637,0.9033984814179965,0.013810598736888882,0.04653400407200592
0.877,0.0014,-0.411,0.004896449803973493,0.8927410848967681,0.013609872576035216,0.044269423959177455
0.8780000000000001,0.0003,0.589,0.004859007237770004,0.8932214020594069,0.013280021543855582,0.044371486099043934
0.879,-0.0033,1.589,0.004836079545860866,0.8932214020594076,0.013078039585657937,0.04437148609904407
0.8800000000000001,-0.0,-0.411,0.004929257393490257,0.8937014610770696,0.013898891688844374,0.04447349338592844
0.881,-0.0065,1.589,0.004948512539308987,0.8922605091722668,0.014068520279164809,0.04416730687774525
0.8820000000000001,-0.0004,-0.411,0.004919803930323449,0.8917796744678796,0.013815611216926472,0.04406513476592187
0.883,0.0003,0.589,0.0049024366625100456,0.8564784474377722,0.013662613925467923,0.03656401040298888
0.8840000000000001,-0.0019000000000001555,0.589,0.005070963601979224,0.8442141330794597,0.015147255352871031,0.03395797783790704
0.885,-0.0026,0.589,0.005070963601979223,0.8442141330794597,0.015147255352871024,0.03395797783790704
0.8860000000000001,-0.006599999999998135,-0.411,0.005072093041477486,0.8442141330794597,0.015157205172609925,0.03395797783790704
0.887,0.0018,0.589,0.005060768675907881,0.8447220435891423,0.015057442948738483,0.034065903262004066
0.8880000000000001,-0.001900000000000222,0.589,0.005040306273382871,0.8447220435891423,0.014877179006436342,0.034065903262004066
0.889,-0.0029,0.589,0.005060588777525158,0.8333145620710884,0.015055858130355416,0.03164193829722248
0.8900000000000001,-0.0021999999999969357,1.589,0.005046209698427575,0.8333145620710879,0.014929185346862049,0.03164193829722236
0.891,0.0116,-0.411,0.005056908901833247,0.8338291118652817,0.015023440192207877,0.03175127449660936
0.8920000000000001,0.009699999999998002,0.589,0.005095535813820038,0.8705426314069706,0.015363724742137253,0.03955249556035041
0.893,0.0007,0.589,0.005095319221734233,0.8710351896056128,0.01536181666984657,0.039657158786386315
0.8940000000000001,0.002099999999999689,0.589,0.005129782417748138,0.8715274694268672,0.015665420881043415,0.03976176286027425
0.895,0.0007,-0.411,0.0051251074800078384,0.8715274694268672,0.01562423692397613,0.03976176286027425
0.8960000000000001,-0.00040000000000022206,0.589,0.005053661598075108,0.8715274694268651,0.01499483300512028,0.0397617628602738
0.897,-0.0014,-1.411,0.005043906102339216,0.9038731352699033,0.014908891771273757,0.04663486282032823
0.8980000000000001,0.006199999999997979,-0.411,0.005214532906817385,0.9038731352699028,0.016412032001266657,0.04663486282032811
0.899,-0.0029,0.589,0.0053370666897462,0.9043475399960762,0.017491495800737184,0.04673566863215882
0.9000000000000001,-0.0021999999999986236,-0.411,0.005334314951684787,0.9144007962749806,0.017467254309518017,0.048871875555963
0.901,0.004,-0.411,0.005341740900474214,0.9257357315468734,0.017532673353175262,0.0512804252374726
0.9020000000000001,-0.0062000000000007995,-0.411,0.00536121119989342,0.9252722930188231,0.017704197343421244,0.05118194962271522
0.903,-0.0098,-0.411,0.005358076859232492,0.9139316100201345,0.017676585306986806,0.04877217861217184
0.9040000000000001,-0.0010999999999987788,-1.411,0.0053514322364739235,0.9243447189007332,0.017618049370548935,0.05098485027515725
0.905,0.0044,0.589,0.005311531296530767,0.9129925141672083,0.017266541245981308,0.04857263102206949
0.9060000000000001,0.009099999999998623,0.589,0.00535763528394771,0.8912985803644403,0.017672695240726958,0.043962907534639106
0.907,0.0029,-0.411,0.005360889252750197,0.8795199434494662,0.017701361143655392,0.041460076110402755
0.9080000000000001,0.003600000000000799,-1.411,0.00533942651526044,0.8790321396234834,0.017512284730571894,0.04135642313651913
0.909,0.0072,0.589,0.005339414870258469,0.8790321396234828,0.01751218214369527,0.041356423136519015
0.9100000000000001,0.0035999999999980015,0.589,0.005346015401290427,0.8670868895657035,0.01757032965319001,0.038818188243060055
0.911,-0.0054,-0.411,0.005311456456851549,0.8795199434494665,0.017265881944337716,0.041460076110402824
0.9120000000000001,-0.006500000000000799,1.589,0.005311235991877629,0.8790321396234835,0.017263939753762107,0.04135642313651916
0.913,-0.0101,0.589,0.005303531996381401,0.8790321396234835,0.017196071252107405,0.04135642313651916
0.9140000000000001,-0.004699999999998002,0.589,0.0053041755788486465,0.8795199434494664,0.01720174090466166,0.0414600761104028
0.915,0.0043,0.589,0.005301493172776555,0.8790321396234835,0.01717811019498232,0.04135642313651916
0.9160000000000001,0.0032999999999987787,0.589,0.005323935272860734,0.87854406494878,0.01737581432233338,0.041252712610246906
0.917,-0.0022,-0.411,0.005277515393935102,0.87854406494878,0.016966877475054824,0.041252712610246906
0.9180000000000001,-0.008699999999998157,-0.411,0.0052768202509254096,0.87854406494878,0.016960753598875677,0.041252712610246906
0.919,-0.0004,-0.411,0.0052796666287774656,0.8790321396234835,0.01698582882121411,0.04135642313651916
0.9200000000000002,0.005100000000000156,1.589,0.005235579353685213,0.8790321396234835,0.016597441093830937,0.04135642313651916
0.921,0.0058,-0.411,0.005258599257762267,0.8790321396234835,0.016800235396957124,0.04135642313651916
0.9220000000000002,-0.004399999999997979,-0.411,0.0051903577183388585,0.8680756481582423,0.01619906019721237,0.03902828862175871
0.923,0.0047,-1.411,0.005125172838806814,0.8685696053625557,0.015624812703616523,0.039133249121187264
0.9239999999999999,0.0011,0.589,0.005116078972627161,0.8685696053625557,0.015544700108513932,0.039133249121187264
0.925,-0.0065,-0.411,0.005088861130493495,0.85597751284192,0.015304923986527526,0.03645756728422765
0.9259999999999999,-0.0,-0.411,0.005152679262893371,0.8343433443303134,0.01586713109406051,0.03186054326702265
0.927,-0.0025,0.589,0.005074301100707022,0.8343433443303134,0.015176657114338974,0.03186054326702265
0.9279999999999999,-0.0004,0.589,0.005079314046279525,0.8343433443303134,0.015220818758131333,0.03186054326702265
0.929,-0.0101,0.589,0.005080057329447624,0.8338291118652423,0.015227366725994082,0.031751274496600985
0.9299999999999999,0.0047,-1.411,0.005128727697724762,0.8322845081407195,0.015656129304005652,0.031423063111222976
0.931,-0.0011,-0.411,0.005134203213590297,0.8437059168079398,0.0157043659700009,0.03384998744276624
0.9319999999999999,0.008,0.589,0.00509331575438769,0.8421794278856418,0.015344167084382692,0.03352562525458985
0.933,-0.0134,0.589,0.005100488248285103,0.8549747631494238,0.015407353312124299,0.036244493949924225
0.9339999999999999,0.0015,0.589,0.0051007701394755545,0.8549747631494238,0.015409836638176994,0.036244493949924225
0.935,-0.0011,0.589,0.0050973670984834196,0.8544729470194478,0.01537985748082691,0.0361378635148103
0.9359999999999999,0.0011,0.589,0.005091155697255965,0.8539708360089278,0.015325138018089686,0.03603117042080831
0.937,-0.0011,0.589,0.005068852453359643,0.8544729470194478,0.015128657147089171,0.0361378635148103
0.938,0.0047,-0.411,0.005068305042493802,0.8544729470194478,0.01512383472017157,0.0361378635148103
0.9390000000000001,-0.0007,-0.41099999999988895,0.005065127951269968,0.8539708360089276,0.015095846071802354,0.03603117042080829
0.94,0.004,0.589000000000222,0.0050882214738958995,0.8534684295974125,0.01529928891900008,0.03592441455732809
0.9410000000000001,-0.0065,2.588999999999778,0.0050891139376943425,0.8411602296145251,0.015307151096594947,0.033309056777363476
0.942,0.0,0.589,0.005004661041523279,0.841160229614525,0.014563161626931167,0.033309056777363455
0.9430000000000001,-0.0061,0.589,0.004909951733140054,0.8406501671033244,0.013728818089753547,0.033200674076498064
0.944,0.0015,0.589,0.0050096368485847784,0.8406501671033244,0.014606996098271683,0.033200674076498064
0.9450000000000001,-0.005,0.5889999999996669,0.005126083590849189,0.8406501671033244,0.015632835991860296,0.033200674076498064
0.946,0.0012,-2.410999999999778,0.005221644215504032,0.841160229614525,0.01647467921667627,0.033309056777363455
0.9470000000000001,0.0135,-0.41099999999988895,0.005243797557534473,0.8406501671033244,0.016669839524205844,0.033200674076498064
0.948,0.0154,0.5889999999997779,0.005288925304898267,0.8636173197756829,0.01706739331277342,0.03808094263801004
0.9490000000000001,0.0041,-1.410999999999667,0.0052535515098147065,0.8636173197756829,0.016755767160949023,0.03808094263801004
0.95,-0.0035,1.588999999999778,0.005287425229150656,0.8986381540337359,0.017054178365619208,0.045522486605852126
0.9510000000000001,-0.0046,-0.41099999999988895,0.005403079637859791,0.9092264313419662,0.018073038180983002,0.04777237964244597
0.952,-0.0009,0.5889999999997779,0.005393067239717977,0.9096980443450209,0.017984833760278447,0.047872592243670055
0.9530000000000001,0.0001,-1.410999999999778,0.005361648508809879,0.9201590642116407,0.017708049825024438,0.05009544446678694
0.954,0.0027,0.5889999999997779,0.005272762746565911,0.9318843062952906,0.016925008933465185,0.05258693007378698
0.9550000000000001,0.007,-1.410999999999778,0.005370003997985658,0.9215563947766671,0.017781657673215667,0.05039236191771437
0.956,-0.002,0.588999999999889,0.005384451797791218,0.92109085345554,0.017908935853153684,0.050293439482443775
0.9570000000000001,-0.0009,-0.411,0.005391377871741016,0.9206250767196937,0.017969951239462344,0.05019446702412203
0.958,0.0001,-0.41099999999988895,0.005393699059927246,0.9210908534555413,0.017990399792986965,0.05029343948244406
0.9590000000000001,0.0027,0.589000000000111,0.005385457482564551,0.9224867726002347,0.017917795453180257,0.05059005702199909
0.96,0.0034,1.589,0.005356252757128808,0.9220217010396663,0.017660515843199755,0.05049123440570557
0.9610000000000001,-0.002,-0.411,0.0053724720581652735,0.933264081395182,0.017803400098489176,0.052880117180522296
0.962,-0.0013,0.589,0.0053490401046319995,0.9332640813951809,0.017596975837477505,0.05288011718052206
0.9630000000000001,0.0008,0.589,0.005326905114918881,0.9220217010396652,0.01740197720505264,0.05049123440570533
0.964,-0.0021,-0.411,0.005257330921797227,0.9318843062952887,0.01678906196602973,0.05258693007378658
0.9650000000000001,0.0052,-0.411,0.005243866973789663,0.9416436180693974,0.016670451048087516,0.054660677007619514
0.966,-0.0013,-0.411,0.0052381500096756505,0.9411880125758679,0.016620087338941818,0.05456386582696323
0.9670000000000001,-0.0006,-0.411,0.005282095584161445,0.9407321864283155,0.01700722675201216,0.05446700775974218
0.968,-0.0046,0.589,0.005282339432958917,0.9411880125758666,0.017009374942846753,0.054563865826962946
0.9690000000000001,0.0005,0.589,0.005362533725150768,0.9411880125758666,0.01771584815599774,0.054563865826962946
0.97,0.0085,-0.411,0.005389820382370737,0.9411880125758666,0.017956230505856544,0.054563865826962946
0.9710000000000001,-0.0024,-0.411,0.005367373619104269,0.9295801300306947,0.0177584852981083,0.0520973178373593
0.972,-0.0067,0.589,0.005336123462238202,0.9295801300306947,0.017483186419232653,0.0520973178373593
0.9730000000000001,-0.0031,0.589,0.005319481849723724,0.9295801300306947,0.017336581802572523,0.0520973178373593
0.974,0.0031,-0.411,0.005298791057367341,0.9196928155729538,0.017154305855505318,0.04999637173427665
0.9750000000000001,-0.0092,1.589,0.005298148190841741,0.9192263304443546,0.017148642510053234,0.04989724875024845
0.976,-0.0012,-0.411,0.005415102272390173,0.9192263304443548,0.01817895181916188,0.04989724875024848
0.9770000000000001,-0.0027,-0.411,0.005415150017961265,0.9196928155729538,0.018179372434720686,0.04999637173427665
0.978,0.0009,-0.411,0.005410777286564318,0.9196928155729538,0.018140850770449902,0.04999637173427665
0.9790000000000001,-0.0078,-1.411,0.005419691876385805,0.9196928155729538,0.018219384026907138,0.04999637173427665
0.98,-0.0024,-1.411,0.0053255122449239675,0.9295801300306934,0.017389706689110513,0.05209731783735902
0.9810000000000001,0.0002,-1.411,0.005306796786060644,0.9192263304443546,0.017224832481764978,0.04989724875024845
0.982,0.0027,1.589,0.005312434033086719,0.9192263304443546,0.0172744939216379,0.04989724875024845
0.9830000000000001,0.0006,0.589,0.0052660853464403705,0.9187596084656099,0.016866184244160618,0.0497980754381567
0.984,-0.0002,-0.411,0.005133930992668456,0.9187596084656099,0.015701967834372,0.0497980754381567
0.9850000000000001,0.0005,-0.411,0.0051809387317107766,0.9286568587369904,0.016116083447048554,0.05190113279288775
0.986,0.0045,0.589,0.0051958030845126,0.9281948787000182,0.0162470312588977,0.051802967091520886
0.9870000000000001,-0.0017,0.589,0.0052243609137939285,0.9277326686123694,0.016498612024330873,0.05170475250690322
0.988,0.0005,-0.411,0.005227204028405463,0.9277326686123694,0.016523658499086984,0.05170475250690322
0.9890000000000001,0.0056,-0.411,0.005208135310481743,0.9281948787000182,0.01635567224901806,0.051802967091520886
0.99,-0.0024,0.589,0.005234307995421257,0.9281948787000187,0.016586241037901097,0.051802967091521004
0.9910000000000001,-0.0071,-0.411,0.005218827009577718,0.9281948787000174,0.016449860984998257,0.05180296709152072
0.992,-0.0009,-0.411,0.0051857440930506175,0.8938524752675979,0.016158416373411782,0.04450558224852674
0.9930000000000001,-0.01,0.589,0.0051970696012734905,0.8938524752675979,0.01625818866350993,0.04450558224852674
0.994,-0.0111,0.589,0.005178314866633497,0.893852475267598,0.01609296845542813,0.044505582248526764
0.9950000000000001,-0.01,0.589,0.00518767938904096,0.9054446841062821,0.016175465401956413,0.04696879974705448
0.996,0.0048,-0.411,0.005180626007520992,0.9054446841062841,0.01611332849707458,0.0469687997470549
0.9970000000000001,0.007,-2.411,0.005242578150284122,0.8726658769798243,0.016659097131764323,0.040003662005115605
0.998,0.0012,-0.411,0.00506592895328556,0.8726658769798249,0.015102902515000849,0.04000366200511572
0.9990000000000001,0.0066,2.589,0.0048584547410133174,0.8726658769798262,0.01327515431268135,0.04000366200511601
1.0,0.0113,-1.411,0.004892241312727364,0.8741391297430394,0.013572797788641905,0.040316712092170255
1.0010000000000001,0.0023,0.5889999999995559,0.004892241312727364,0.8621260869000613,0.013572797788641905,0.03776407197386594
1.002,-0.0021,-1.411,0.004892241312727364,0.8626234509610357,0.013572797788641905,0.037869756393046045
1.0030000000000001,-0.001,1.5889999999995559,0.004903764146694606,0.8626234509610371,0.013674308423812391,0.03786975639304635
1.004,0.0102,-0.411,0.004935952082666148,0.8519594327293768,0.013957868686382102,0.03560376923922743
1.0050000000000001,0.0059,-0.411,0.004949169307227471,0.8626234509610422,0.01407430608921418,0.03786975639304744
1.006,0.0095,-0.411,0.004908611153297632,0.8850205589214473,0.013717008224950504,0.042628896692554576
1.0070000000000001,0.0033,0.589000000000222,0.004937326925324599,0.8952908649399958,0.013969980390144875,0.04481122431036818
1.008,-0.0021,1.589,0.005036245553298025,0.8957698148962818,0.014841406012029405,0.04491299593384911
1.0090000000000001,-0.004599999999997757,-0.4109999999995559,0.005071498578073673,0.8957698148962824,0.015151968235422576,0.04491299593384923
1.01,0.0055,1.589,0.005064897835983562,0.8952908649399958,0.015093818866606833,0.04481122431036818
1.0110000000000001,0.0018999999999986233,-0.41099999999977793,0.0050884267263721925,0.8830798808581132,0.015301097094775071,0.04221652384531418
1.012,-0.0043,0.589,0.005084826916819682,0.8938524752676283,0.015269384500876127,0.0445055822485332
1.0130000000000001,-0.005299999999999445,-1.411,0.005195237296683857,0.8938524752676283,0.01624204693975966,0.0445055822485332
1.014,-0.0028,-1.411,0.005229448831373415,0.8938524752676283,0.016543434135510904,0.0445055822485332
1.0150000000000001,-0.003600000000000888,-0.411,0.005245813360710204,0.894332195538313,0.01668759778240247,0.04460751755539255
1.016,-0.0076,-0.411,0.005490452305016959,0.8948116586247032,0.01884274943126034,0.044709398213404285
1.0170000000000001,0.0021999999999966916,0.5889999999997779,0.005519848135798693,0.8948116586247032,0.019101712587589876,0.044709398213404285
1.018,-0.0127,-0.411,0.005521403300619069,0.8948116586247032,0.01911541284302703,0.044709398213404285
1.0190000000000001,0.0053999999999984685,-0.411,0.005526307410219804,0.8948116586247032,0.019158615694159966,0.044709398213404285
1.02,-0.0015,-0.411,0.005594575457714227,0.894332195538313,0.019760024417283903,0.04460751755539255
1.0210000000000001,0.0006999999999995781,-0.411,0.005658517804356572,0.8948116586247032,0.02032332579265812,0.044709398213404285
1.022,-0.0012,-0.411,0.005700859840969912,0.8952908649399957,0.020696338806926264,0.04481122431036815
1.0230000000000001,0.0005999999999996891,0.5889999999997779,0.005662529485921727,0.9068646874144559,0.020358666781249844,0.047270534907741774
1.024,-0.0008,-0.411,0.005670303131178162,0.9068646874144558,0.020427148863853318,0.04727053490774175
1.0250000000000001,0.01289999999999718,-0.411,0.005664126347594345,0.917358017812569,0.02037273436593671,0.049500252765153935
1.026,0.0002,0.589,0.00571198783489282,0.9054446841063122,0.020794371090867795,0.04696879974706087
1.0270000000000001,-0.0011999999999990451,0.589,0.005995939731878157,0.9059182658555309,0.023295850978783464,0.047069430685296405
1.028,0.0031,0.589,0.006006649598494068,0.9059182658555309,0.023390199761892123,0.047069430685296405
1.0290000000000001,-0.0005000000000002443,-1.411,0.0060385779718559835,0.9059182658555309,0.02367147340248632,0.047069430685296405
1.03,-0.0016,-0.411,0.006009452396296029,0.9059182658555309,0.02341489106491188,0.047069430685296405
1.0310000000000001,-0.0026999999999985347,-0.411,0.00601573195885327,0.8952908649399957,0.023470210996240453,0.04481122431036815
1.032,0.0039,-0.411,0.006102039481173717,0.8850205589214478,0.02423053883187939,0.042628896692554694
1.0330000000000001,0.0064000000000001556,0.589,0.00609785070744756,0.8731572374316775,0.024193637746370695,0.040108070723068504
1.034,0.0071,-1.411,0.006136772098800007,0.8850205589214478,0.02453651651813276,0.042628896692554694
1.0350000000000001,-0.004100000000000333,-0.411,0.006149581039190983,0.8957698148962817,0.024649357133440193,0.044912995933849086
1.036,-0.0056,-0.411,0.006184983298545608,0.8957698148962817,0.024961234041827044,0.044912995933849086
1.0370000000000001,0.0019999999999992008,0.589,0.006175328463380926,0.8957698148962817,0.02487617957928602,0.044912995933849086
1.038,-0.0016,0.589,0.006175777750276041,0.8957698148962817,0.024880137581130578,0.044912995933849086
1.0390000000000001,-0.005299999999998779,-0.411,0.006196815637257601,0.8957698148962817,0.025065471265206418,0.044912995933849086
1.04,0.0002,0.589,0.006171343413800803,0.927732668612404,0.02484107320569648,0.05170475250691058
1.0410000000000001,0.0027000000000001554,-0.411,0.006170607476387007,0.9272702281300631,0.024834589950402466,0.051606488965942575
1.042,0.0034,0.589,0.006129963585230952,0.9272702281300632,0.024476536782338035,0.0516064889659426
1.0430000000000001,-0.0041999999999998445,0.589,0.006133397798386968,0.9277326686124039,0.024506790551486243,0.05170475250691056
1.044,-0.0035,1.589,0.00606757342415543,0.9389066688681073,0.023926909416607505,0.05407910525895485
1.0450000000000002,-0.004199999999997268,0.589,0.005969669844753367,0.9389066688681073,0.023064425885314658,0.05407910525895485
1.046,0.0081,-0.411,0.005892810448671498,0.9389066688681073,0.022387331505818158,0.05407910525895485
1.0470000000000002,-0.0010000000000010437,-0.411,0.005876847299371725,0.9389066688681073,0.022246703824351254,0.05407910525895485
1.048,-0.0057,0.589,0.0058438175627091166,0.9073375279980609,0.02195572770183945,0.04737100835639663
1.0490000000000002,-0.007099999999999201,1.589,0.0058453874975034435,0.9389066688681073,0.021969558073656092,0.05407910525895485
1.05,-0.0035,0.589,0.005808772231719949,0.9049708545263025,0.02164699516099195,0.04686811614749485
1.051,-0.0046,0.589,0.005704447473925254,0.9063916001624274,0.02072794413085011,0.04717000904474676
1.052,-0.0035,0.589,0.005771416332034384,0.90639160016243,0.021317907619226868,0.04717000904474733
1.053,0.0056,0.589,0.005770733365375142,0.8962485089045542,0.02131189101084936,0.045014713171178555
1.054,0.0045,-1.411,0.0057711044417575064,0.8962485089045619,0.02131516001562524,0.04501471317118018
1.055,-0.0031,-2.411,0.005682804073214371,0.90828247070076,0.020537276161524412,0.047571798338080444
1.056,-0.0057,-1.411,0.005678202852086465,0.90828247070076,0.02049674161242118,0.047571798338080444
1.057,-0.01,0.589,0.005677223216879701,0.9087545735877152,0.020488111496569757,0.0476721150342715
1.058,-0.006,-0.411,0.005685059075122371,0.9201590642116724,0.020557141645713678,0.05009544446679366
1.059,-0.0009,-0.411,0.005719157456703377,0.9398198708867822,0.020857532016903085,0.054273150692693464
1.06,-0.006,-0.411,0.005851027846592139,0.9402761393058772,0.02201924684121141,0.05437010273777652
1.061,-0.0005,-1.411,0.005919983157649318,0.9291186090664916,0.02262671002636988,0.05199924968393121
1.062,0.0107,0.589,0.005918923161918026,0.9295801300307399,0.022617371972878234,0.0520973178373689
1.063,0.006,0.589,0.0059921731032463645,0.9291186090664928,0.02326266878888543,0.051999249683931464
1.064,0.0046,0.589,0.005972395878076417,0.918759608465657,0.023088440930129628,0.04979807543816671
1.065,0.017,0.589,0.005971940310548534,0.908282470700762,0.023084427598925695,0.047571798338080874
1.066,0.0058,-0.411,0.005963763420202262,0.918759608465657,0.023012393120677616,0.04979807543816671
