time_sec,bts_raw,diy_raw,bts_rms,diy_rms,bts_norm_rms,diy_norm_rms
0.0,-0.0,-0.097,0.024463929941172483,0.976314803346894,0.04117892367988946,0.01868757631636245
0.0010000000000000009,0.0098,-0.097,0.024439792245255082,0.981645135772536,0.041131856518783774,0.019251742379707868
0.0020000000000000018,0.0226,1.903,0.02440624581358809,0.9816475112382247,0.04106644284760345,0.019251993800636094
0.0030000000000000027,0.0077,-0.097,0.024250260729549663,0.981649886698165,0.040762280631555785,0.019252245220955908
0.0040000000000000036,0.0096,-0.097,0.02429807734055802,0.981652262152357,0.04085552035673752,0.019252496640667315
0.0050000000000000044,-0.0107,-0.097,0.024245552447769242,0.9816546376008009,0.040753099744620755,0.01925274805977033
0.006000000000000005,-0.0081,1.903,0.024006782561568657,0.9816570130434965,0.04028751178048998,0.01925299947826496
0.007000000000000006,-0.0059,0.903,0.023965213805549068,0.9816593884804439,0.040206455024151995,0.01925325089615118
0.008000000000000007,0.0055,-1.097,0.023930619084225085,0.9816617639116433,0.040138997246593845,0.019253502313429035
0.009000000000000008,-0.0126,-1.0969999999999949,0.02386848272527408,1.0013993485247956,0.04001783481140219,0.021342541893321305
0.010000000000000009,0.0194,1.903,0.023740448329862014,1.0216012657562432,0.03976817487962779,0.023480726758052906
0.01100000000000001,0.0326,-1.097,0.02372300861131897,1.041411367886692,0.03973416840091864,0.025577441642033145
0.01200000000000001,0.0526,0.903,0.023605319764324173,1.0464101559690768,0.03950468171168357,0.026106516823230185
0.013000000000000012,0.0128,2.9029999999999982,0.023037638994439967,1.050974293040639,0.03839773586464934,0.02658958824141138
0.014000000000000012,-0.024,1.903,0.02279821656982133,1.0923625256821843,0.03793087548698931,0.03097014735361211
0.015000000000000013,-0.0479,0.903,0.02285726416514465,1.0923646603809005,0.03804601500533841,0.030970373291597773
0.016000000000000014,-0.0261,-0.097,0.0227725873886336,1.110135751946061,0.03788090001277266,0.03285127788986213
0.017000000000000015,0.0018,-0.097,0.022633927144634684,1.114438934112538,0.03761052026875797,0.03330672966075747
0.018000000000000016,0.0199,0.903,0.022648608735741267,1.1191115740700237,0.037639148552760966,0.033801285099282055
0.019000000000000017,-0.0029,0.903,0.022647398531137806,1.1372243429448559,0.037636788721265996,0.03571835305985466
0.020000000000000018,-0.0318,0.903,0.02275452690128556,1.137226393433022,0.03784568306950821,0.035718570084937576
0.02100000000000002,0.0009,-0.097,0.022753983936076687,1.1414274484336364,0.037844624317626994,0.036163212646101804
0.02200000000000002,-0.0034,0.903,0.022737323238380975,1.1459900511737953,0.03781213688613143,0.036646121669588166
0.02300000000000002,0.0007,0.903,0.022737477205844354,1.1459920859777513,0.0378124371140997,0.03664633703464345
0.02400000000000002,0.0044,-0.097,0.02272358584355716,1.1459941207780941,0.03778534973223085,0.03664655239931632
0.025000000000000022,-0.0054,0.903,0.022669636626008783,1.1459961555748241,0.03768015176625411,0.0366467677636068
0.026000000000000023,0.0034,-0.097,0.022731771515501896,1.1501651788805467,0.037801311336084824,0.03708802006807288
0.027000000000000024,0.0114,-0.097,0.02278691329550192,1.1546932562637213,0.03790883473234422,0.037567274903943904
0.028000000000000025,-0.0006,0.903,0.022655620584557314,1.1588309912053436,0.03765282126696712,0.03800521562635592
0.029000000000000026,-0.0118,0.903,0.022800419052693654,1.1588330034617926,0.03793517020577851,0.0380054286049675
0.030000000000000027,0.002,0.903,0.022789222289707867,1.1588350157147476,0.03791333714229484,0.038005641583209265
0.031000000000000028,0.011,-0.097,0.022799175082957257,1.162958014617743,0.037932744534157084,0.038442022633121034
0.03200000000000003,0.0357,-3.097,0.022810782633644118,1.1670664479286024,0.03795537861075207,0.03887686205070681
0.03300000000000003,0.0901,-2.097,0.022812955775830236,1.171160468935717,0.037959616116839213,0.03931017606011572
0.03400000000000003,0.0669,-2.097,0.02285564603219787,1.175240228257513,0.03804285973632031,0.039741980602905985
0.03500000000000003,0.0317,-0.097,0.023199341455986067,1.179672060984055,0.038713046648032365,0.04021104883788337
0.03600000000000003,-0.0128,-0.09699999999999306,0.02362506081220863,1.1837224850375239,0.03954317565428491,0.04063974851562437
0.03700000000000003,-0.0185,0.903,0.02398231525252009,1.2008611129320008,0.04023980189215795,0.04245371272240731
0.038000000000000034,-0.034,1.903,0.024182667973864366,1.2177585571537386,0.040630478526984405,0.04424214988278356
0.039000000000000035,-0.0579,2.903,0.024186638582553127,1.22168271398027,0.04063822099252384,0.04465748535006591
0.040000000000000036,-0.0796,0.903,0.02418445289081203,1.225594306349063,0.04063395901550426,0.04507149098646826
0.041000000000000036,-0.0357,0.903,0.024187601239674145,1.2255962089895518,0.04064009812023145,0.04507169236325094
0.04200000000000004,0.0172,1.903,0.02418594365217456,1.2421572197022541,0.040636865917035386,0.046824521168797956
0.04300000000000004,0.0104,0.903,0.024184272842276037,1.2463511286190703,0.04063360793089869,0.04726840738352019
0.04400000000000004,-0.0215,0.903,0.024184289759387165,1.246352999572894,0.04063364091832208,0.04726860540656437
0.04500000000000004,-0.0509,2.903,0.024149085558537602,1.250532837192189,0.040564994689674005,0.04771100230544387
0.04600000000000004,-0.0458,1.903,0.024073304243597122,1.2505347018896622,0.04041722535115428,0.04771119966631158
0.04700000000000004,-0.0218,0.903,0.02411742612410497,1.254356325270977,0.04050326055788053,0.04811568292297555
0.04800000000000004,-0.0174,-1.097,0.024117141412660154,1.2698624442226316,0.04050270538643883,0.04975686125636385
0.049000000000000044,-0.0054,-0.097,0.024121212223775206,1.269864280536072,0.04051064324112217,0.049757055613045956
0.050000000000000044,0.0055,0.903,0.02421062802734237,1.2698661168468568,0.0406849990721962,0.04975724996944698
0.051000000000000045,0.0152,-0.097,0.024374992841537962,1.2851833050118424,0.04100550129479126,0.05137843173795933
0.052000000000000046,0.0181,-0.097,0.024607915660161118,1.3003200760761209,0.04145968780318223,0.052980518035994725
0.05300000000000005,0.0261,-0.097,0.024549303603131997,1.288230010283404,0.04134539756022095,0.05170089712697745
0.05400000000000005,0.0192,-0.097,0.024582192736212243,1.288230010283404,0.04140952953580849,0.05170089712697745
0.05500000000000005,0.0079,-0.097,0.02480805740395239,1.2922726001165759,0.04184995304354457,0.05212876762543443
0.05600000000000005,-0.0018,-0.097,0.02484059651121973,1.2963025829756463,0.04191340248831462,0.05255530379305018
0.05700000000000005,0.0109,-0.097,0.024863609300476444,1.2804438915449512,0.04195827614415749,0.05087680894510692
0.05800000000000005,0.0095,-2.097,0.024856882349968915,1.280106531566895,0.041945158965766824,0.050841102532157
0.05900000000000005,0.0019,1.903,0.025202624143677663,1.2916039712477463,0.04261933618471707,0.052057999484417174
0.06000000000000005,0.0054,1.903,0.025859056248096486,1.2919383289373771,0.043899342185263084,0.05209338813308773
0.061000000000000054,0.0017,0.903,0.025993742254491674,1.2797690826573647,0.04416197238755651,0.05080538670663849
0.062000000000000055,0.0005,-1.097,0.025803892950133474,1.280106531566895,0.043791776830175703,0.050841102532157
0.06300000000000006,0.003,-3.097,0.025296579120845198,1.2801065315668951,0.04280254315120461,0.05084110253215702
0.06400000000000006,0.0168,-0.097,0.02538817469447855,1.2481221514441898,0.04298114941236235,0.047455853661830354
0.06500000000000006,0.0149,-2.097,0.025314181863918428,1.2355214138467383,0.04283686751865729,0.04612218289649406
0.06600000000000006,0.013,-1.097,0.025243227120103663,1.2312925121418412,0.042698509724700046,0.04567459302092656
0.06700000000000006,0.0145,0.903,0.025159339042828813,1.235521413846738,0.04253493265166651,0.046122182896494036
0.06800000000000006,-0.0022,1.903,0.02515948683071075,1.2397358902972517,0.04253522082979553,0.04656824599318015
0.06900000000000006,-0.0225,-0.097,0.02508629294856943,1.2393874496930188,0.04239249684095728,0.04653136679910697
0.07000000000000006,0.0018,-1.097,0.02521648138566382,1.2516042362000226,0.042646357033901475,0.04782439991599698
0.07100000000000006,-0.0016,0.9029999999999861,0.02507690113164207,1.2516042362000224,0.042374183321642604,0.04782439991599696
0.07200000000000006,0.0013,-0.097,0.025366655911526804,1.2557647381938697,0.04293918898550743,0.048264750318932084
0.07300000000000006,-0.0013,-0.097,0.02550176529524162,1.2516042362000224,0.04320264474996635,0.04782439991599696
0.07400000000000007,0.0057,-0.097,0.025525138891632642,1.2512591006019849,0.04324822195960227,0.047787870526060885
0.07500000000000007,0.0169,-1.097,0.025605556683923236,1.2512591006019849,0.0434050321704218,0.047787870526060885
0.07600000000000007,0.0267,0.903,0.02577427128529858,1.250913869778705,0.043734016235470484,0.047751331057419424
0.07700000000000007,0.0177,-1.097,0.025777615715690764,1.267142192825765,0.043740537688247684,0.04946894797078761
0.07800000000000007,0.0257,-0.097,0.0257531644735971,1.2831652910182076,0.043692859129581825,0.05116484374388074
0.07900000000000007,0.009,-0.097,0.025793643347010946,1.294969141598022,0.04377179067561115,0.05241417143719611
0.08000000000000007,0.0068,-1.097,0.02576648828103196,1.2946355666582643,0.043718839811135835,0.052378865635312445
0.08100000000000007,0.0127,-1.097,0.025803430306397427,1.2946355666582643,0.04379087470068772,0.052378865635312445
0.08200000000000007,0.0036,-1.097,0.02578162366020638,1.2946355666582643,0.04374835295656761,0.052378865635312445
0.08300000000000007,-0.0145,-1.097,0.02553845131563589,1.2599115013795195,0.0432741804440994,0.04870364659692397
0.08400000000000007,-0.0412,0.903,0.023899656782501298,1.2484681542435212,0.04007862248471006,0.04749247483694999
0.08500000000000008,-0.0448,-1.097,0.02294566149937491,1.2326948362813799,0.03821838487799597,0.04582301597584995
0.08600000000000008,-0.0416,1.903,0.02274346541748608,1.2365697092269003,0.03782411379289458,0.04623313520314649
0.08700000000000008,-0.0329,1.9029999999999585,0.02271137070474539,1.2404324778722235,0.037761530892671785,0.0466419733029548
0.08800000000000008,0.0076,-1.097,0.022696051799085484,1.2362203762043997,0.037731659880826864,0.04619616155490784
0.08900000000000008,-0.0099,-1.097,0.02245407971084748,1.2238500336747435,0.037259827801279954,0.04488687596258383
0.09000000000000008,0.0056,-0.097,0.02172539366948746,1.1859650770886305,0.035838930652623995,0.040877106006327255
0.09100000000000008,0.0009,1.903,0.020560840079901072,1.1859650770886305,0.03356811608917768,0.040877106006327255
0.09200000000000008,-0.0035,0.903,0.020317055135386865,1.1987264398899014,0.033092749040978184,0.042227777454111964
0.09300000000000008,0.0005,-0.097,0.02027250706527642,1.1859650770886299,0.03300588278829148,0.040877106006327185
0.09400000000000008,-0.0032,0.903,0.020251852720492073,1.1815588222583602,0.03296560796766137,0.04041074495354714
0.09500000000000008,-0.013000000000000322,-0.097,0.020136981581527595,1.1943672651550006,0.032741615651968245,0.04176639939112416
0.09600000000000009,-0.0158999999999973,-1.097,0.019488263779392907,1.1723282799572192,0.031476652110721905,0.03943377798474672
0.09700000000000009,0.008399999999999633,-2.097,0.019113117489519885,1.1589037298825224,0.0307451377638647,0.038012914338158496
0.09800000000000009,0.005100000000002288,-0.097,0.01903626861849878,1.1719597982665186,0.030595286750515354,0.03939477762824787
0.09900000000000009,0.02570000000000029,-0.097,0.018961884392862404,1.1719597982665186,0.030450241658236052,0.03939477762824787
0.10000000000000009,0.028300000000000766,-2.097,0.01895462450121943,1.1764020071260402,0.030436085274348417,0.03986494408030223
0.10100000000000009,0.03519999999999775,-2.097,0.0189606623986744,1.1760348018386286,0.030447858837708612,0.03982607881920857
0.10200000000000009,0.014899999999996702,-1.0969999999999862,0.01890595726051017,1.1804616761051157,0.030341186868681584,0.04029462224735101
0.10300000000000009,-0.01480000000000221,-0.09699999999998613,0.018821386996141724,1.1804616761051157,0.030176279568854724,0.04029462224735101
0.10400000000000009,-0.03469999999999799,0.903,0.018643866768098597,1.1804616761051157,0.029830125022811193,0.04029462224735101
0.1050000000000001,-0.016599999999999646,0.903,0.018546075979391917,1.1848720109658155,0.0296394384377096,0.04076141513336814
0.1060000000000001,-0.013399999999998358,-0.097,0.018561209064170355,1.1848720109658155,0.029668947109197145,0.04076141513336814
0.1070000000000001,0.0014000000000045074,-1.097,0.018562817040657584,1.1848720109658155,0.02967208257368545,0.04076141513336814
0.1080000000000001,0.042000000000001925,-2.097,0.018636072582493463,1.1848720109658155,0.029814926795489916,0.04076141513336814
0.1090000000000001,0.059299999999997056,0.903,0.01874231846917303,1.172696645864567,0.030022100350177012,0.03947276608665557
0.1100000000000001,0.03279999999999734,-1.097,0.01878210367654596,1.1596488734115722,0.03009967928610581,0.0380917808436299
0.11099999999999999,0.0088,0.903,0.018834608947928287,1.1418939015382188,0.0302020616375741,0.03621258236467349
0.11199999999999999,-0.013,0.903,0.019025589948951475,1.1373169165860935,0.03057446394034751,0.03572815111794487
0.11299999999999999,-0.025,0.903,0.019093036966603895,1.1331026795353436,0.030705981863881224,0.03528211335949501
0.11399999999999999,-0.0142,-1.097,0.01918645944292572,1.0980206449968424,0.03088815048341222,0.03156900660755533
0.11499999999999999,-0.044,-0.097,0.01931339177565268,1.1164735393522927,0.031135661454402372,0.033522073683777964
0.11599999999999999,-0.0161,0.903,0.01935707067671108,1.0988070764735676,0.03122083287590301,0.0316522430579089
0.11699999999999999,0.002,0.903,0.019315208211835858,1.0944445645740424,0.03113920340367393,0.031190511787113677
0.118,0.0052,-1.0969999999999585,0.01929331142668524,1.0940498515566426,0.031096505893608857,0.031148735088890055
0.119,0.0258,1.9029999999999863,0.019448968527016327,1.0796524148258464,0.031400028559715784,0.029624900447057234
0.12,0.0177,0.903,0.019505112500508504,1.0840744546487595,0.03150950617740194,0.030092932194354702
0.121,-0.0382,0.903,0.019516027425552814,1.0844727983940208,0.0315307896726152,0.030135093171321396
0.122,-0.0264,-0.097,0.01951567108138158,1.0796524148258466,0.03153009482135128,0.02962490044705726
0.123,-0.0109,-1.097,0.019531414136528622,1.0796524148258466,0.031560792901045256,0.02962490044705726
0.124,-0.0207,-0.097,0.01953148534843782,1.084074454648759,0.03156093176029738,0.030092932194354653
0.125,-0.0299,-1.097,0.01954160257230726,1.0888752622955853,0.03158065978269995,0.030601052989590483
0.126,-0.0053,1.903,0.01946884784040848,1.0888752622955853,0.031438792112347354,0.030601052989590483
0.127,-0.0017,1.903,0.019299879041434993,1.0884785296939608,0.031109312376156516,0.03055906253717844
0.128,0.0145,1.903,0.019221516169216617,1.0840744546487586,0.03095650914489416,0.030092932194354608
0.129,-0.0004,-1.097,0.01912644426249164,1.0884785296939608,0.030771124228050308,0.03055906253717844
0.13,-0.0139,0.903,0.020075213103327095,1.093259997997733,0.032621170563726806,0.031065136442995907
0.131,0.0028,-0.097,0.020514023112285274,1.0888752622955855,0.0334768256128707,0.030601052989590507
0.132,0.0049,-0.097,0.020591280286457604,1.0888752622955855,0.03362747279459769,0.030601052989590507
0.133,0.003,0.903,0.020809380055171477,1.0888752622955855,0.03405275518220823,0.030601052989590507
0.134,0.0011,-0.097,0.021102722167143553,1.1023690050169241,0.034624755943611474,0.032029240033661525
0.135,0.0089,-1.097,0.02117640672021362,1.1019771304285084,0.034768436713400665,0.03198776375672088
0.136,0.0044,-1.097,0.020737371386118912,1.1153123698633371,0.03391234229280482,0.03339917470353623
0.137,0.0166,-0.097,0.020379808858730763,1.0968399405271585,0.033215115302311346,0.03144404003146872
0.138,-0.0081,0.903,0.020362318383186057,1.082878544213683,0.03318100985027919,0.029966356208394582
0.139,-0.0117,-0.097,0.02086044685023948,1.0972336498532003,0.03415233258507395,0.03148571049830619
0.14,0.0377,0.903,0.021433886383088064,1.0928648571472375,0.03527050769877643,0.031023314462622097
0.14100000000000001,0.0168,1.9029999999999723,0.021474614140182605,1.1114033575718607,0.03534992455410522,0.03298544214429805
0.14200000000000002,0.0107,0.9029999999999723,0.021496154517225145,1.0972336498532003,0.03539192708823307,0.03148571049830619
0.14300000000000002,0.0049,-0.09699999999994449,0.021499671290210628,1.092469573376256,0.035398784599457264,0.030981477355445406
0.14400000000000002,-0.0002,1.902999999999889,0.02149999096832129,1.092469573376256,0.03539940795394761,0.030981477355445406
0.14500000000000002,-0.0049,-2.097,0.02150303909688452,1.0920741465295958,0.03540535163468032,0.030939625105040124
0.14600000000000002,0.0256,-1.097,0.02213621825580175,1.0920741465295958,0.036640015688097216,0.030939625105040124
0.14700000000000002,0.0136,1.903,0.02332294986064552,1.092469573376256,0.038954076144635204,0.030981477355445406
0.14800000000000002,-0.0046,-1.097,0.023706006868890673,1.0792522919154393,0.0397010159512114,0.02958255116202338
0.14900000000000002,-0.0014,0.903,0.023701684549629107,1.0792522919154393,0.039692587669666615,0.02958255116202338
0.15000000000000002,0.0073,-1.097,0.023817120389658653,1.0840744546487595,0.03991768112094853,0.030092932194354702
0.15100000000000002,0.0048,0.903,0.023977160921407153,1.0707535496433505,0.0402297512338965,0.02868303841344388
0.15200000000000002,0.0027,-0.097,0.024121579655553456,1.0523198141764643,0.04051135971260154,0.026731999127211845
0.15300000000000002,-0.0037,-0.097,0.02428803909029415,1.0670860940712417,0.04083594632846218,0.028294872384125057
0.15400000000000003,-0.0018,0.903,0.02475778221295691,1.0670860940712414,0.04175191922447995,0.028294872384125033
0.15500000000000003,0.0109,-0.097,0.0249619934363617,1.0670860940712412,0.04215011972317188,0.02829487238412501
0.15600000000000003,0.0031,-0.097,0.02490786366202021,1.0621868096257556,0.042044569681516535,0.027776328736542625
0.15700000000000003,0.0198,-0.097,0.02492336369410563,1.0666812574174462,0.042074793879791496,0.028252024193237187
0.15800000000000003,0.0221,0.903,0.02494368987113476,1.066681257417446,0.04211442879159776,0.028252024193237166
0.15900000000000003,0.0124,0.903,0.02463555134236371,1.0481759070691412,0.041513575842494106,0.02629340513852155
0.16000000000000003,-0.015,-0.097,0.02391244790370239,1.0477637638922543,0.040103564457811144,0.026249783620186144
0.16100000000000003,-0.0269,-0.097,0.023689347272674927,1.0431878155648389,0.03966853066754035,0.02576546209053237
0.16200000000000003,-0.016,-0.097,0.024311397982959657,1.0431878155648389,0.04088149486665323,0.02576546209053237
0.16300000000000003,-0.0191,0.903,0.024284162155073775,1.043187815564839,0.0408283865209628,0.025765462090532393
0.16400000000000003,-0.0277,1.903,0.024457397778566144,1.043187815564839,0.04116618632704463,0.025765462090532393
0.16500000000000004,-0.0197,-0.097,0.024432333936239444,1.0385917061869008,0.04111731323208331,0.025279006701374535
0.16600000000000004,0.0025,-0.097,0.024072630314408542,1.0436017658942007,0.04041591122681527,0.025809274879133166
0.16700000000000004,0.0112,-1.097,0.024036296872995196,1.0436017658942007,0.040345063042035,0.025809274879133166
0.16800000000000004,0.0247,-1.097,0.024073713571096823,1.0385917061869006,0.04041802351695434,0.025279006701374514
0.16900000000000004,0.027,-1.097,0.024087160239068355,1.0527301736641452,0.04044424376970408,0.026775431858650455
0.17000000000000004,0.0068,0.903,0.023985153492996777,1.0381757582055486,0.04024533630282541,0.02523498247990815
0.17100000000000004,-0.0011,-0.097,0.024029035299253047,1.0381757582055486,0.040330903378147764,0.02523498247990815
0.17200000000000004,-0.0079,-0.09700000000002776,0.02376501007236235,1.0331393861954876,0.039816068907925106,0.024701929389862466
0.17300000000000004,-0.0014,-1.0969999999999445,0.023698314321062997,1.0381757582055486,0.03968601591188878,0.02523498247990815
0.17400000000000004,0.0085,0.9029999999999445,0.023733714314898006,1.0381757582055484,0.03975504392594093,0.02523498247990813
0.17500000000000004,-0.0006,-1.097,0.023648501922354327,1.0427737009094489,0.03958888451197784,0.025721631909551325
0.17600000000000005,0.0075,-1.097,0.023509081895172347,1.0431878155648397,0.03931702323312217,0.025765462090532463
0.17700000000000005,0.0032,-0.097,0.02374995037493062,1.0234143790803354,0.03978670333767152,0.023672627923828512
0.17800000000000005,-0.0171,-1.097,0.02377940377577711,1.0080085567377683,0.03984413582698185,0.022042065052778653
0.17900000000000005,-0.0616,0.903,0.02373735134909569,0.9875309732975496,0.03976213593982308,0.019874703486224173
0.18000000000000005,-0.0427,-0.097,0.023963412403358295,0.9826745833892736,0.040202942390327324,0.019360699826069243
0.18100000000000005,0.0219,-1.097,0.024096049755457094,0.9826745833892736,0.04046157783097706,0.019360699826069243
0.18200000000000005,0.0303,-1.097,0.024096926814924813,0.9875309732975496,0.040463288048033716,0.019874703486224173
0.18300000000000005,0.038,-2.097,0.024100684098701888,0.9923635974806457,0.04047061454189048,0.020386191765621092
0.18400000000000005,0.0449,-1.097,0.02409981831781387,0.9923635974806457,0.04046892631743534,0.020386191765621092
0.18500000000000005,0.0131,-2.097,0.02410386318821338,1.012743470400714,0.040476813589169845,0.022543211583275356
0.18600000000000005,-0.0162,-0.097,0.024114259947459808,1.0131698594381076,0.04049708668997048,0.022588340893320392
0.18700000000000006,-0.0318,0.903,0.024110323748924883,1.0131698594381073,0.04048941132231231,0.022588340893320367
0.18800000000000006,-0.0459,1.903,0.024054174977609526,1.0131698594381071,0.04037992434913849,0.022588340893320343
0.18900000000000006,-0.0502,-0.097,0.024043463121531633,1.012743470400713,0.04035903682708649,0.022543211583275238
0.19000000000000006,-0.0143,1.903,0.024016020001592343,1.012743470400713,0.04030552427345065,0.022543211583275238
0.19100000000000006,0.0097,-1.097,0.023719728059157567,1.0075799835358,0.03972777150712956,0.02199670456924732
0.19200000000000006,0.0053,-0.097,0.023703979856724847,0.9919282647299524,0.03969706339051552,0.020340115846786744
0.19300000000000006,0.0013,-0.097,0.023680042960123788,0.9919282647299528,0.03965038777688,0.02034011584678678
0.19400000000000006,0.0049,-1.097,0.023696765520657005,0.9971728014679561,0.0396829958374592,0.020895201235329574
0.19500000000000006,0.0542,-0.097,0.02369694006293972,0.9971728014679583,0.03968333618517789,0.02089520123532981
0.19600000000000006,0.0752,0.903,0.02369850291795067,1.02299226002636,0.039686383665303464,0.02362795055177591
0.19700000000000006,0.0433,0.903,0.023581233206690384,1.0234143790803374,0.039457714267379415,0.023672627923828723
0.19800000000000006,0.0023,-0.097,0.02355022639058099,1.0032512965722193,0.039397252704925854,0.021538553353021107
0.19900000000000007,-0.0347,0.903,0.023580198040989743,0.9984713704914708,0.03945569575198467,0.021032642677153046
0.20000000000000007,-0.0395,0.903,0.023629079297817223,1.0369269131534824,0.03955101147714835,0.025102803857546197
0.20100000000000007,-0.0439,-0.097,0.023682370037859488,1.0369269131534824,0.03965492544870529,0.025102803857546197
0.20200000000000007,-0.032,1.903,0.023798499024708705,1.0369269131534824,0.03988137049763526,0.025102803857546197
0.20300000000000007,-0.0502,-0.097,0.023936022498435655,1.0415303690266227,0.04014953360300665,0.02559003680482736
0.20400000000000007,-0.0471,0.9029999999999723,0.02399100867701812,1.0832773277203318,0.040256753585178245,0.030008563730010093
0.20500000000000007,-0.0026,-0.09700000000002776,0.024038781565969426,1.082878544213685,0.04034990805478669,0.029966356208394794
0.20600000000000007,0.0161,-1.097,0.024026078748065095,1.0872874633237861,0.04032513826819044,0.03043299925039129
0.20700000000000007,0.0102,-1.0969999999999722,0.02454384504054636,1.087287463323786,0.04133475366755187,0.030432999250391266
0.20800000000000007,0.0153,-0.09700000000002776,0.024860986410662887,1.087287463323786,0.04195316165527505,0.030432999250391266
0.20900000000000007,0.0011,-1.097,0.024773221721393762,1.082479613795935,0.04178202540501502,0.029924133137606918
0.21000000000000008,-0.0033,-0.097,0.024882384739935155,1.077650314650592,0.041994887204171556,0.029412996782501005
0.21100000000000008,-0.0553,0.903,0.024934651460398173,1.077650314650592,0.04209680439464894,0.029412996782501005
0.21200000000000008,-0.0061,0.903,0.02482673666210622,1.082479613795935,0.04188637655537726,0.029924133137606918
0.21300000000000008,0.0384,0.903,0.02479098928018664,1.1011929628899513,0.04181667115393078,0.03190476692314577
0.21400000000000008,0.009,-0.097,0.024906184975026283,1.096446089828895,0.042041296335483036,0.031402354601697734
0.21500000000000008,0.014,0.903,0.02482055860762018,1.077650314650592,0.04187432969362172,0.029412996782501005
0.21600000000000008,0.0093,0.903,0.024751436034765144,1.077650314650592,0.041739544530872925,0.029412996782501005
0.21700000000000008,0.0136,-0.097,0.02476783461536192,1.0964460898288948,0.04177152084864137,0.031402354601697706
0.21800000000000008,0.0096,-2.097,0.024748927434909,1.096446089828895,0.04173465290103457,0.031402354601697734
0.21900000000000008,0.0132,0.903,0.024638252289175343,1.092074146529598,0.04151884253817029,0.03093962510504036
0.22000000000000008,0.022899999999999036,0.903,0.02449681049229405,1.092074146529598,0.041243038921136115,0.03093962510504036
0.22100000000000009,0.014200000000000601,-0.097,0.02450772752620135,1.0916785764517853,0.04126432652851461,0.03089775769495103
0.2220000000000001,0.01959999999999971,0.903,0.024535656982593995,1.096446089828895,0.04131878741111607,0.031402354601697734
0.2230000000000001,0.01699999999999755,-1.097,0.024573270835855622,1.1011929628899515,0.041392132327603914,0.03190476692314579
0.2240000000000001,-0.005099999999997713,-1.097,0.024732529696640172,1.0968399405271618,0.04170267822575865,0.03144404003146908
0.2250000000000001,0.015500000000002076,0.903,0.02537711510014615,1.092074146529599,0.04295958382010416,0.030939625105040478
0.2260000000000001,0.03419999999999754,-0.097,0.02556639509333714,1.092469573376259,0.04332866925245405,0.030981477355445736
0.2270000000000001,0.011999999999998335,-1.097,0.025611061558736565,1.0880816524370687,0.04341576636935248,0.030517056774353023
0.2280000000000001,-0.0030000000000033086,-0.097,0.02564488692420296,1.0924695733762588,0.043481723945888104,0.03098147735544571
0.2290000000000001,-0.03279999999999956,-0.097,0.025805136108346977,1.1059194614146315,0.04379420091937274,0.03240502278959965
0.2300000000000001,-0.02879999999999718,0.903,0.025447400808700348,1.1059194614146315,0.04309663703260913,0.03240502278959965
0.2310000000000001,-0.003399999999998901,-1.097,0.0258107908010559,1.1106258455271538,0.04380522725484588,0.03290314973278619
0.2320000000000001,0.006499999999999045,-1.097,0.0262393069713009,1.1110146695644747,0.04464080989249006,0.03294430313729323
0.2330000000000001,-0.002100000000000266,0.903,0.026158968744028822,1.1114033575718634,0.044484154829020045,0.032985442144298334
0.2340000000000001,-0.004500000000000754,1.903,0.025883150666843834,1.0936549960826605,0.04394632495830032,0.031106943312963424
0.2350000000000001,-0.011299999999998755,0.9029999999999445,0.025766663651491266,1.1070904826793881,0.04371918177375272,0.032528964488592646
0.2360000000000001,-0.00010000000000019985,-1.0969999999999722,0.025826222377416514,1.0940498515566421,0.04383531796827459,0.031148735088890007
0.2370000000000001,-0.001900000000000211,-0.09700000000002776,0.025911579959644025,1.098807076473567,0.04400176049402529,0.031652243057908834
0.2380000000000001,-0.0037999999999998447,-1.0969999999999722,0.025899699278865766,1.0988070764735665,0.043978593828981984,0.031652243057908785
0.2390000000000001,-0.0023999999999995115,-0.097,0.025493977515921494,1.0800523895042466,0.04318745901454362,0.029667234043113156
0.24,0.002,-0.097,0.02501339371511186,1.0848709958751361,0.042250347400622536,0.030177238667589923
0.241,0.0144,-1.097,0.02507740208038318,1.0707535496433496,0.04237516014375454,0.028683038413443787
0.242,-0.0004,0.903,0.025204269380825598,1.0707535496433496,0.04262254430541607,0.028683038413443787
0.243,-0.0101,0.903,0.025278494752671386,1.0707535496433496,0.04276727964166152,0.028683038413443787
0.244,-0.0009,1.903,0.025412147184669772,1.0896682941649656,0.043027894431513954,0.03068498803005878
0.245,-0.0056,2.903,0.025421913775721585,1.0900645937479756,0.04304693873947368,0.030726932651481763
0.246,-0.0099,0.903,0.024903018636157112,1.0900645937479756,0.04203512215124522,0.030726932651481763
0.247,-0.0061,-0.097,0.023744871334191127,1.0896682941649656,0.03977679949144004,0.03068498803005878
0.248,0.0128,-0.097,0.023498069407231172,1.084870995875136,0.03929554949570019,0.030177238667589902
0.249,0.0153,-3.097,0.023811263992523427,1.0896682941649656,0.03990626147309126,0.03068498803005878
0.25,0.0175,-1.097,0.02360966631216021,1.0892718503999967,0.03951315723759758,0.030643028148317753
0.251,0.024,0.903,0.023287831706689806,1.0888752622955853,0.03888559770263212,0.030601052989590483
0.252,0.0258,-1.097,0.023260328438876567,1.093654996082657,0.03883196786399597,0.03110694331296305
0.253,0.0167,-3.097,0.023062776421952518,1.0796524148258455,0.038446752446619895,0.02962490044705714
0.254,0.0153,-1.097,0.02258760697334869,1.0844727983940199,0.037520198517592425,0.030135093171321303
0.255,-0.0075,-1.097,0.022358624489945942,1.08447279839402,0.03707369544316564,0.030135093171321323
0.256,-0.0502,-0.097,0.02270055922224002,1.0892718503999972,0.037740449104641444,0.030643028148317798
0.257,-0.0442,-0.097,0.022797535613618768,1.1035437938413062,0.03792954766036488,0.03215358049376594
0.258,-0.0071,-0.097,0.02278486218372366,1.0992000812149443,0.0379048351787479,0.03169383895101906
0.259,0.0264,-0.097,0.022736019161382792,1.1399721748335658,0.03780959400870114,0.03600918548372582
0.26,0.0221,-0.097,0.022735772836807847,1.1357677900926961,0.03780911368951521,0.03556419050055452
0.261,-0.0137,0.903,0.022735115974644834,1.140350992733958,0.03780783284492438,0.036049279831793284
0.262,-0.0089,1.903,0.02205780088731037,1.139972174833566,0.03648710619214125,0.03600918548372584
0.263,-0.0306,-0.097,0.022062204810580608,1.139972174833566,0.036495693596952664,0.03600918548372584
0.264,-0.0185,-0.097,0.021771615576508436,1.139972174833566,0.03592906079395202,0.03600918548372584
0.265,0.0069,-0.097,0.021842729144887725,1.1577566180460053,0.03606772828695394,0.037891503229554535
0.266,-0.0093,1.903,0.02179995390000214,1.1577566180460053,0.03598431894460185,0.037891503229554535
0.267,0.0056,-1.097,0.021824968455661255,1.1532425907032948,0.03603309593330962,0.037413735459664685
0.268,-0.0078,-0.097,0.021839020845127927,1.1577566180460053,0.03606049730919948,0.037891503229554535
0.269,-0.0056,-1.097,0.021850741551694648,1.1407296848350519,0.036083352033450554,0.0360893608651762
0.27,0.01,-1.097,0.02182559866369812,1.1361480098326098,0.03603432480384071,0.03560443322028461
0.271,0.0118,0.903,0.0217368514812464,1.1361480098326098,0.03586127274665907,0.03560443322028461
0.272,-0.0157,0.903,0.021707175581035087,1.1532425907032946,0.035803406395994025,0.03741373545966466
0.273,0.0281,-0.097,0.021618878173058267,1.1528680088273304,0.03563123137395873,0.03737408945534668
0.274,0.0575,-0.097,0.021704246502861527,1.1528680088273304,0.03579769485688285,0.03737408945534668
0.275,0.0311,0.903,0.021768942382893442,1.1528680088273304,0.035923848215461754,0.03737408945534668
0.276,0.0169,-0.097,0.021767403330913718,1.1528680088273304,0.03592084714991981,0.03737408945534668
0.277,-0.0135,-1.097,0.02160736084004095,1.1528680088273302,0.03560877321678876,0.03737408945534666
0.278,-0.0334,-2.097,0.02158884919254239,1.1528680088273302,0.03557267653638778,0.03737408945534666
0.279,-0.0443,0.903,0.02158701869700827,1.1697182646017545,0.03556910717216585,0.03915753215788607
0.28,-0.0607,0.903,0.021359361850778583,1.17416895383936,0.03512518901630816,0.03962859617901066
0.281,-0.052,0.903,0.021237146309793013,1.1697182646017545,0.03488687552620242,0.03915753215788607
0.28200000000000003,-0.0222,0.9029999999999445,0.02123612749957007,1.183020101010448,0.034884888903077185,0.04056540770535786
0.28300000000000003,-0.0023,-0.09700000000011103,0.021238037120131618,1.1954516492846936,0.03488861255669055,0.041881171355938246
0.28400000000000003,0.0376,-2.0969999999998334,0.02151792134599486,1.1910804893709817,0.03543437119060183,0.04141852477335195
0.28500000000000003,0.0219,0.903,0.02173191164033949,1.1778696834999987,0.03585164033233926,0.040020283960827886
0.28600000000000003,0.0266,0.903,0.021709165129274545,1.1775029359087963,0.03580728590412251,0.03998146714261694
0.28700000000000003,0.0309,0.9029999999999445,0.02171033598916607,1.1775029359087965,0.03580956901562308,0.03998146714261696
0.28800000000000003,-0.005,-0.09699999999994449,0.021715837612663897,1.1815588222583584,0.03582029687466983,0.040410744953546955
0.28900000000000003,-0.0098,0.903,0.021753499564703828,1.1815588222583586,0.03589373558109336,0.040410744953546976
0.29000000000000004,-0.0229,0.903,0.021960211631067122,1.1980056023333139,0.03629681258410578,0.04215148350954386
0.29100000000000004,-0.027,-1.097,0.02213661314501217,1.214229630666067,0.036640785700038266,0.04386864586738525
0.29200000000000004,0.0201,-0.097,0.02220085731513823,1.214229630666067,0.036766058249488386,0.04386864586738525
0.29300000000000004,0.0261,1.903,0.022201576744417147,1.2138738685517947,0.03676746109646645,0.04383099175963563
0.29400000000000004,0.0086,0.903,0.022208411792592513,1.213873868551795,0.03678078905928178,0.04383099175963566
0.29500000000000004,-0.0179,-0.097,0.02225576490453507,1.2138738685517938,0.0368731249871302,0.04383099175963554
0.29600000000000004,-0.0038,-1.097,0.022497044572061822,1.180095734048024,0.037343606884899995,0.04025589068742639
0.29700000000000004,0.0266,-0.097,0.022689785017302497,1.1800957340480236,0.03771944000578978,0.04025589068742635
0.29800000000000004,0.0386,0.903,0.02276808825992267,1.1800957340480236,0.03787212696266061,0.04025589068742635
0.29900000000000004,-0.0158,-1.097,0.02277501632417674,1.184142739664887,0.03788563630164279,0.04068422855547734
0.30000000000000004,0.0074,-1.097,0.022725639810119193,1.1506179567389723,0.037789354852496335,0.0371359423891516
0.30100000000000005,0.0425,0.903,0.022661562930066045,1.1633957919611382,0.03766440850936018,0.038488357289334404
0.30200000000000005,0.0106,0.903,0.022535492812294382,1.1633957919611377,0.03741857880945521,0.038488357289334356
0.30300000000000005,-0.0188,0.903,0.02253778766440198,1.1592763615161656,0.037423053643102624,0.03805235392748301
0.30400000000000005,-0.0345,0.903,0.02286995728966159,1.1203648616508772,0.03807076589036977,0.03393393392195744
0.30500000000000005,-0.0393,0.903,0.02325961708246431,1.1203648616508772,0.03883058075865776,0.03393393392195744
0.30600000000000005,-0.0264,1.903,0.023461972280939346,1.1160866170863557,0.0392251621122298,0.03348112156406696
0.30700000000000005,-0.0067,-0.097,0.02293766467206516,1.1160866170863557,0.03820279151065012,0.03348112156406696
0.30800000000000005,-0.0032,2.903,0.022624604548014463,1.1160866170863557,0.037592341725182436,0.03348112156406696
0.30900000000000005,0.0,-0.097,0.022690857480879487,1.1342456365681197,0.03772153124996365,0.035403084720803044
0.31000000000000005,0.0029,0.903,0.022744573135119708,1.1384556427268226,0.03782627378051311,0.03584867467871816
0.31100000000000005,0.0054,-1.097,0.02301353980415363,1.1384556427268226,0.038350743787377115,0.03584867467871816
0.31200000000000006,0.0076,0.903,0.023047180695534592,1.1380761939439685,0.038416341649732545,0.03580851355761543
0.31300000000000006,0.0141,0.903,0.02317679718456977,1.1373169165860864,0.03866908657585346,0.03572815111794412
0.31400000000000006,0.0198,1.903,0.024462924350262535,1.1415155956602636,0.04117696283368744,0.03617254220941419
0.31500000000000006,0.0029,0.903,0.02480888782910583,1.1585309783950766,0.04185157232628875,0.03797346206342477
0.31600000000000006,0.014,-0.097,0.024917774618168305,1.162653049832054,0.042063895493364124,0.03840974494969299
0.31700000000000006,0.0157,0.903,0.02491198109905677,1.161909832910743,0.04205259845414693,0.03833108235771454
0.31800000000000006,-0.0119,-0.097,0.025178245437908326,1.1577851153957486,0.042571799067838964,0.03789451940872248
0.31900000000000006,0.008,-0.097,0.02595335609900302,1.162281500777339,0.04408322163631129,0.038370419941269523
0.32000000000000006,0.0117,0.903,0.027695487773491467,1.1581581069381244,0.047480281259196074,0.03793399709103569
0.32100000000000006,0.0085,-2.097,0.02947109332807026,1.1540199800193134,0.05094261308173224,0.037496014881487454
0.32200000000000006,0.0,-1.097,0.02985978179870718,1.1540199800193134,0.05170053392595846,0.037496014881487454
0.32300000000000006,-0.0256,-1.097,0.029953591612861985,1.167130681586708,0.05188345783266556,0.03888366058541984
0.32400000000000007,-0.0175,-1.097,0.029837459138918727,1.1715912006832119,0.05165700598409666,0.03935576500559559
0.32500000000000007,-0.0152,0.903,0.029281495465991368,1.1715912006832119,0.05057290782277551,0.03935576500559559
0.32600000000000007,-0.0217,-0.097,0.029139640268768235,1.171222487097894,0.050296298098126205,0.03931674010521037
0.32700000000000007,-0.0079,-1.097,0.029136790209483877,1.171222487097894,0.05029074064144283,0.03931674010521037
0.32800000000000007,0.0012,-2.097,0.02910713333150591,1.1671306815867077,0.05023291138307212,0.03888366058541982
0.32900000000000007,-0.01,0.903,0.02895410650259381,1.1543941880996844,0.049934517599566616,0.03753562132302183
0.33000000000000007,-0.0176,-0.097,0.028730087322817215,1.1540199800193134,0.04949769269045388,0.037496014881487454
0.33100000000000007,-0.0027,1.903,0.02817273791501089,1.1540199800193136,0.04841089242338821,0.037496014881487474
0.3320000000000001,0.0071,-2.097,0.027806555824316962,1.1536456505570607,0.04769685776508079,0.037456395592810936
0.3330000000000001,0.0347,-0.097,0.027744124188642513,1.1491154743679801,0.04757511955674325,0.03697691861787406
0.3340000000000001,0.0308,-1.097,0.027848128571364223,1.1532711995947316,0.0477779223037002,0.037416763444482457
0.3350000000000001,0.0055,-1.097,0.027650132584019105,1.1540199800193167,0.04739184116875912,0.03749601488148781
0.3360000000000001,0.0023,-1.097,0.027591653991492073,1.1494912790737073,0.04727781117413483,0.03701669404733825
0.3370000000000001,0.0053,-1.097,0.027582038692390596,1.1619098329107462,0.04725906187704213,0.038331082357714895
0.3380000000000001,0.0134,-1.097,0.027428060405735828,1.1615380461182174,0.046958812803992306,0.038291732186957105
0.3390000000000001,0.0302,-2.097,0.02763535514715517,1.1656494837483733,0.047363025990873706,0.03872688958377103
0.3400000000000001,0.028,-2.097,0.02777769759399603,1.165278890106697,0.04764058582510822,0.038687665696923085
0.3410000000000001,0.0222,-1.097,0.02799450798325937,1.1649081785676254,0.04806335399468684,0.038648429331733423
0.3420000000000001,-0.0018,-1.097,0.028120976936291658,1.1649081785676254,0.04830996140111072,0.038648429331733423
0.3430000000000001,-0.0115,0.903,0.02845135467080077,1.1815867455498938,0.048954179561331364,0.04041370037399792
0.3440000000000001,-0.0145,1.9029999999999445,0.028407714005481227,1.1641664013467474,0.04886908269738945,0.03856991911864261
0.3450000000000001,-0.03329999999999976,0.903,0.02859458152485714,1.1641664013467476,0.049233463940321014,0.03856991911864263
0.3460000000000001,-0.031099999999998743,0.9029999999999445,0.028557703751378668,1.1641664013467476,0.04916155433836605,0.03856991911864263
0.3470000000000001,-0.019799999999999346,-0.09700000000005551,0.02917951307824586,1.1645373490185662,0.05037404785327442,0.038609180476285226
0.3480000000000001,-0.013899999999998134,-1.096999999999889,0.029349586124493853,1.1645373490185662,0.05070568081007702,0.038609180476285226
0.3490000000000001,0.002899999999999267,0.9029999999998335,0.029118944228416356,1.1767971347719026,0.05025594197346439,0.03990676466308855
0.3500000000000001,-0.003699999999999356,-2.0969999999998334,0.029259787859160995,1.1771641022567385,0.05053057919988621,0.03994560475499345
0.3510000000000001,0.002100000000002653,0.9029999999999445,0.02937176720999964,1.1771641022567385,0.0507489326899819,0.03994560475499345
0.3520000000000001,0.02600000000000181,-0.097,0.029138015815547293,1.1771641022567385,0.05029313050492592,0.03994560475499345
0.3530000000000001,0.04230000000000031,-0.097,0.029162032392368795,1.1767971347719028,0.050339961490548285,0.039906764663088574
0.3540000000000001,0.045099999999998516,-1.097,0.029112212298951615,1.1767971347719028,0.0502428150863848,0.039906764663088574
0.3550000000000001,0.03169999999999754,-0.097,0.02906019550842045,1.1889305091364804,0.05014138524533828,0.041190969381246556
0.3560000000000001,0.00959999999999638,-0.097,0.028908397181350243,1.2009413036046768,0.04984538697192242,0.042462200158557256
0.3570000000000001,-0.02299999999999952,-0.097,0.028872242944005828,1.1878401718463096,0.049774888225084024,0.04107556732981817
0.3580000000000001,-0.018700000000001323,1.903,0.028926451309193617,1.1918608812418465,0.049880591514507376,0.041501121987652254
0.3590000000000001,-0.0306000000000012,-1.097,0.029057359008308168,1.1705128989538354,0.05013585422828437,0.03924163680622955
0.3600000000000001,-0.04139999999999746,-0.097,0.02907111087871722,1.1749605781619175,0.050162669608769014,0.03971238224375163
0.3610000000000001,-0.018499999999995048,-1.097,0.029079531388436455,1.170512898953835,0.050179089133188554,0.0392416368062295
0.3620000000000001,0.02610000000000644,-2.097,0.02907934881517659,1.1705128989538345,0.05017873312551222,0.039241636806229455
0.3630000000000001,0.08409999999999569,-1.097,0.029071462996348597,1.1660482550049258,0.050163356218515885,0.0387690958088279
0.3640000000000001,0.04529999999999767,-2.097,0.029037866290491703,1.161566450696109,0.05009784451546859,0.038294738547088224
0.3650000000000001,0.024299999999996456,-1.097,0.028970566105275253,1.1483922264476887,0.04996661290699754,0.03690036955874771
0.3660000000000001,-0.007600000000003253,-2.097,0.0289887585876892,1.1483922264476878,0.050002087233280375,0.03690036955874761
0.367,-0.0369,-0.097,0.028958116916214503,1.1525505594758954,0.04994233768250376,0.037340490396862235
0.368,-0.0634,0.903,0.028916398845910466,1.1480160619655646,0.049860989771636964,0.03686055605030133
0.369,-0.0968,-0.097,0.02889205341110516,1.1480160619655644,0.04981351753128351,0.03686055605030131
0.37,-0.1012,-0.097,0.028900020877481586,1.165677788141078,0.04982905364644656,0.03872988534023283
0.371,-0.0494,0.903,0.02888853674814848,1.1653072035008292,0.04980666023460935,0.038690662406102166
0.372,-0.0284,1.903,0.028876169221183703,1.1660482550049245,0.049782544246649185,0.03876909580882776
0.373,-0.0096,0.903,0.028900102130262218,1.1619382283999895,0.049829212084838086,0.0383340877558972
0.374,-0.0038,-0.097,0.028791119509454524,1.162309887186657,0.04961670205120318,0.03837342437842628
0.375,0.0117,-1.097,0.02874860544821559,1.1581865944091807,0.049533802002398285,0.03793701222463659
0.376,0.0164,-0.097,0.028724361395385277,1.1712506568136527,0.049486527451242955,0.03931972160737123
0.377,0.0033,-0.097,0.028650912963769298,1.1712506568136527,0.04934330710512294,0.03931972160737123
0.378,0.0152,-1.097,0.028699976508525175,1.1712506568136525,0.04943897828158252,0.039319721607371204
0.379,0.026,-1.097,0.028722537340735724,1.1589321990255697,0.04948297064638677,0.03801592753191026
0.38,0.0228,0.903,0.02889451422553683,1.1585594566977084,0.04981831598220869,0.0379764762266333
0.381,0.0257,-1.097,0.028902207803159843,1.1626814271701482,0.0498333180295748,0.03841274842674516
0.382,0.0122,-0.097,0.028946504992657666,1.149144186007388,0.04991969507905615,0.03697995747760804
0.383,0.0242,-1.097,0.0289549658558022,1.1319877152465638,0.0499361932904049,0.03516410476953435
0.384,0.0177,1.903,0.028749764594642575,1.149144186007388,0.049536062273296176,0.03697995747760804
0.385,-0.0124,-0.097,0.02867284166193541,1.1449734817242971,0.04938606684378873,0.036538527257336945
0.386,-0.0255,-2.097,0.028679828772231748,1.1453506454734343,0.0493996913192609,0.03657844652889376
0.387,0.0103,-1.097,0.028707307350588435,1.1453506454734343,0.04945327301483347,0.03657844652889376
0.388,0.0342,-1.097,0.028751375528855184,1.1411660767406684,0.049539203505184044,0.03613554888569873
0.389,0.0298,-1.097,0.028750453184055298,1.1415444984485899,0.04953740498425479,0.03617560130048162
0.39,0.0417,-1.097,0.028593923897280077,1.1285192756685722,0.04923218160321548,0.03479700273040941
0.391,0.038,-1.097,0.028464232972775984,1.115729132185473,0.04897929153208075,0.03344328511539328
0.392,0.0477,-2.097,0.028392304717066975,1.116116178380146,0.04883903544421336,0.03348425035180727
0.393,0.0208,-0.097,0.02839323099485065,1.1118215851741584,0.0488408416342417,0.03302970764241889
0.394,-0.0337,0.903,0.028369838848131643,1.1071202841795926,0.04879522825250057,0.032532118699945635
0.395,-0.0105,-0.097,0.02834735054680787,1.093290176496902,0.04875137731888117,0.03106833055617953
0.396,-0.06,0.903,0.02821093410753301,1.0928950465575706,0.048485372868962415,0.03102650973065087
0.397,-0.0412,-0.097,0.028127396071770637,1.1067300919408274,0.04832247835735967,0.032490820484053294
0.398,0.0118,-2.097,0.02812051906245235,1.1067300919408274,0.048309068572655406,0.032490820484053294
0.399,0.0328,0.903,0.028304927521472574,1.1067300919408283,0.04866865478501215,0.032490820484053384
0.4,0.0267,-1.097,0.028425790950156276,1.1020070702087537,0.048904331731523885,0.03199093260372883
0.401,0.0209,0.903,0.028452773354418433,1.0841048888482334,0.04895694591527911,0.030096153371035102
0.402,0.0159,-1.097,0.02845451145101303,1.0792828620928645,0.0489603351067212,0.029585786730704014
0.403,-0.008,0.903,0.028375309931654852,1.083706409868507,0.04880589656029974,0.030053978080759262
0.404,-0.0298,-2.097,0.028073809340131248,1.083706409868507,0.04821798721869302,0.030053978080759262
0.405,-0.0258,-2.097,0.027719351903791357,1.0792828620928645,0.04752681498260182,0.029585786730704014
0.406,-0.0221,-1.097,0.027579656590840336,1.0792828620928645,0.04725441691184662,0.029585786730704014
0.40700000000000003,-0.0189,-1.0969999999998334,0.027632395540444124,1.0792828620928645,0.04735725492281671,0.029585786730704014
0.40800000000000014,-0.027699999999995825,1.9029999999999445,0.02782172439462657,1.0792828620928645,0.04772643563137542,0.029585786730704014
0.40900000000000003,-0.0089,0.9029999999999445,0.0284071890383826,1.0650913495048622,0.04886805904081962,0.028083747242289566
0.41000000000000014,0.007599999999999489,-0.09700000000005551,0.028407386014981655,1.078882602127225,0.04886844313420424,0.029543422939649767
0.41100000000000003,0.0053,-1.0969999999999445,0.02822870869383355,1.083307784314105,0.048520032321126255,0.03001178727691859
0.41200000000000014,0.0033999999999996,-0.097,0.028211246661439506,1.078882602127225,0.04848598233165187,0.029543422939649767
0.41300000000000003,0.0016,-0.09699999999994449,0.028099963680198077,1.078882602127225,0.04826898672344074,0.029543422939649767
0.41400000000000015,0.00020000000000233148,0.903,0.027109063446678364,1.078882602127225,0.046336786521303124,0.029543422939649767
0.41500000000000004,0.0107,0.902999999999889,0.027249784860898133,1.0605901642045175,0.046611185432316314,0.027607338683028292
0.41600000000000015,0.004199999999998645,-1.0969999999999445,0.028107212802729487,1.0560697941067352,0.04828312210816132,0.02712889959156337
0.41700000000000004,-0.0019,-0.097,0.028292775366030195,1.03737516707274,0.04864495875951141,0.025150247361780603
0.41800000000000015,0.0014000000000020205,-0.097,0.028192380641141046,1.0423910738664601,0.04844919464405114,0.02568113439920206
0.41900000000000004,0.0105,1.903,0.027795236283367292,1.0423910738664601,0.047674785291413724,0.02568113439920206
0.42000000000000015,-0.008299999999998224,-1.097,0.02621836156367538,1.0423910738664601,0.04459996751554952,0.02568113439920206
0.42100000000000004,-0.0003,1.903,0.02418518805335183,1.0469705044838633,0.04063539254146373,0.026165824496831885
0.42200000000000015,0.011799999999998579,-0.097,0.023675522374559884,1.0465578866095473,0.03964157288710111,0.026122152736192908
0.42300000000000004,0.0054,0.903,0.02353498998362909,1.031497779528784,0.03936754256096136,0.024528180607092283
0.42400000000000015,-0.007900000000000379,-0.097,0.023606687685050937,1.0310789697875995,0.03950734908082463,0.02448385349498982
0.42500000000000004,-0.0096,1.903,0.023614722736340663,1.0310789697875997,0.03952301698280004,0.024483853494989844
0.42600000000000016,0.007200000000002531,-0.097,0.02360488356833332,1.0314977795287832,0.03950383115382397,0.02452818060709219
0.42700000000000005,0.0186,-1.097,0.023576480907248083,1.0314977795287832,0.039448447548458165,0.02452818060709219
0.42800000000000016,-0.011400000000004797,0.903,0.02371023168640287,1.050297025578124,0.03970925410978168,0.02651790578567544
0.42900000000000005,-0.033,-1.097,0.023717518576839753,1.0502970255781245,0.03972346313981196,0.026517905785675484
0.43000000000000016,0.018899999999992208,-1.097,0.023580034676674178,1.0642800046608845,0.03945537720067861,0.027997873943948818
0.43100000000000005,-0.0162,-1.097,0.023543208544854505,1.0642800046608845,0.03938356829707873,0.027997873943948818
0.43199999999999994,-0.0099,-0.097,0.023403612249970264,1.0646857543686428,0.03911136330603245,0.02804081877309838
0.43300000000000005,-0.0041,-2.097,0.023372098041614792,1.069169697446691,0.03904991235699153,0.028515402403649862
0.43399999999999994,0.0225,-0.097,0.023247410070483775,1.0646857543686425,0.03880677776596645,0.028040818773098355
0.43500000000000005,0.0084,0.903,0.023183260515436607,1.0638741002047278,0.03868168971064437,0.02795491273612196
0.43599999999999994,0.0128,-1.097,0.023150771375856312,1.0638741002047278,0.03861833770007783,0.02795491273612196
0.43700000000000006,0.0168,-0.097,0.023036495292842442,1.0646857543686425,0.03839550571030769,0.028040818773098355
0.43799999999999994,0.0132,0.903,0.023024104223295427,1.0601828470470565,0.03837134381562492,0.02756422795392022
0.43900000000000006,0.0035,-1.097,0.022774232666887245,1.0556607328067473,0.037884108213625506,0.02708560426120631
0.43999999999999995,0.0065,0.903,0.022579649283987337,1.0560697941067305,0.03750468146706359,0.027128899591562873
0.44100000000000006,0.0091,0.903,0.022194715313845655,1.0515299917938188,0.03675408168944976,0.026648403781035
0.44199999999999995,-0.0029,-0.097,0.021932455024085896,1.0515299917938188,0.03624268874821841,0.026648403781035
0.44300000000000006,-0.0006,-0.097,0.021553169819643062,1.0327531897198197,0.035503103748738565,0.02466105408829453
0.44399999999999995,0.0092,0.903,0.02146878745838341,1.0373751670727351,0.03533856284949626,0.025150247361780086
0.44500000000000006,-0.0184,-1.097,0.021210881020963992,1.0511191637523098,0.034835659677555,0.026604921457535808
0.44599999999999995,-0.0223,1.903,0.021277552105811056,1.0511191637523098,0.034965664575384775,0.026604921457535808
0.44700000000000006,-0.0188,-0.097,0.02041354177458363,1.05111916375231,0.03328089260725565,0.026604921457535832
0.44799999999999995,-0.0351,-1.097,0.020009181158510726,1.0560697941067305,0.03249241195331804,0.027128899591562873
0.44900000000000007,-0.0263,-0.097,0.0199747066105961,1.0373751670727354,0.03242518850720718,0.02515024736178011
0.44999999999999996,-0.0129,-0.097,0.019723263026166525,1.05111916375231,0.03193488753822334,0.026604921457535832
0.45100000000000007,0.0038,-0.097,0.01986314499807079,1.05111916375231,0.03220764958352913,0.026604921457535832
0.45199999999999996,0.015,-1.097,0.019830322954972966,1.0654967902460486,0.032143648429666334,0.028126659370203883
0.45300000000000007,0.0092,-0.097,0.019818168845706915,1.0800829370360694,0.032119948594318375,0.02967046721496759
0.45399999999999996,0.0073,-0.097,0.019801953625002613,1.0800829370360694,0.03208832981811598,0.02967046721496759
0.45500000000000007,0.0152,-0.097,0.01959532136649808,1.0618111781814201,0.03168540843597801,0.02773657164518373
0.45599999999999996,0.0196,-0.097,0.019426757675882717,1.04820738356627,0.0313567186384964,0.026296736632705216
0.4570000000000001,0.0398,-0.097,0.019391126337685975,1.0436333803496904,0.03128723951583878,0.025812620974924986
0.45799999999999996,0.0604,0.903,0.019408663275923867,1.043633380349692,0.03132143556753187,0.025812620974925152
0.4590000000000001,0.0307,-2.097,0.01922628788744836,1.0285304525041041,0.030965813729372026,0.02421411666651722
0.45999999999999996,0.0266,-1.097,0.019248488922901628,1.0281104339971192,0.031009104510562067,0.024169661617808064
0.4610000000000001,0.0157,-0.097,0.019287165868700884,1.0281104339971192,0.031084522398219582,0.024169661617808064
0.46199999999999997,-0.0072,-2.097,0.019464806507174876,1.0234466171281347,0.03143091173788913,0.02367604002106083
0.4630000000000001,-0.0399,-1.097,0.019469562803131474,1.0234466171281347,0.031440186249790426,0.02367604002106083
0.46399999999999997,-0.053,-0.097,0.019520357989673772,1.0234466171281347,0.03153923403117606,0.02367604002106083
0.4650000000000001,-0.073,-0.097,0.01952049911203894,1.0183374020891827,0.03153950921191907,0.02313527717455532
0.46599999999999997,-0.0332,-0.097,0.019523762123185715,1.018337402089184,0.031545871901707705,0.023135277174555463
0.4670000000000001,-0.0282,0.903,0.01970301063225199,1.0187614498636581,0.03189539649937633,0.023180158683716992
0.46799999999999997,-0.0424,0.903,0.020208111681814335,1.0238685488604382,0.03288031538126786,0.023720697566858365
0.4690000000000001,-0.0293,-0.09700000000005551,0.020991859197072565,1.0289502995591462,0.0344085793337626,0.02425855356863439
0.47,-0.0013,-1.097,0.02121071840709694,1.028950299559146,0.0348353425895817,0.024258553568634367
0.4710000000000001,0.0023,-1.097,0.02121401492632574,1.0242903067881355,0.034841770618261866,0.023765336717056402
0.472,0.0121,-1.097,0.021347532387899538,1.0041448129356538,0.035102122223312375,0.021633123741702415
0.4730000000000001,0.0208,-1.0969999999999445,0.021320846377247366,1.0041448129356538,0.03505008599056953,0.021633123741702415
0.474,0.0073,-0.09699999999994449,0.02131510468617675,1.0037145899662046,0.03503889001314217,0.02158758864564211
0.4750000000000001,0.0095,0.9029999999999445,0.02130030864308244,1.0037145899662046,0.03501003855414502,0.02158758864564211
0.476,0.0116,-0.09700000000011103,0.021305160274669718,0.9880016382877087,0.03501949896521015,0.019924518993672678
0.4770000000000001,0.0254,-2.0969999999999445,0.02148780621555022,1.0076127281970206,0.03537564836547358,0.022000170286793866
0.478,0.0163,-1.0970000000000555,0.021574102831349317,1.0230245113761807,0.03554392195432775,0.023631364056903362
0.4790000000000001,0.0049,-2.0969999999998334,0.021639730092968573,1.036958731109702,0.03567189145506755,0.025106171491995732
0.48,0.0186,0.903,0.021436180321476914,1.0511191637523154,0.03527498075072324,0.026604921457536398
0.4810000000000001,-0.0017,0.903,0.021373125044443053,1.0465578866095477,0.035152026476509474,0.026122152736192953
0.482,0.0007,-1.097,0.021326187943507196,1.0465578866095477,0.03506050174692708,0.026122152736192953
0.4830000000000001,-0.0015,-0.097,0.021354638785067374,1.0511191637523152,0.03511597930153245,0.026604921457536373
0.484,-0.0037,-2.097,0.021810273315018572,1.032334889288316,0.03600444122846676,0.024616780881880258
0.4850000000000001,0.0021,-0.097,0.021758057906059947,1.032334889288316,0.03590262409256178,0.024616780881880258
0.486,0.0112,1.903,0.02174248431424972,1.02726988178601,0.03587225645692519,0.02408069699156889
0.4870000000000001,-0.0069,-0.097,0.02180967672251192,1.022602231389077,0.036003277906345166,0.02358666965157739
0.488,-0.0047,-0.097,0.021754727377459177,1.02726988178601,0.03589612974750266,0.02408069699156889
0.4890000000000001,0.0018,0.903,0.021904506642651728,1.02726988178601,0.03618819096284127,0.02408069699156889
0.49,0.0035,-0.097,0.02215587705694791,1.02726988178601,0.036678349254145,0.02408069699156889
0.4910000000000001,-0.0168,-1.097,0.022240760869435494,1.026849347660157,0.03684386795532055,0.02403618736940282
0.492,-0.0249,-0.097,0.02222237368648478,1.026428641238901,0.036808013973847635,0.02399165951137236
0.4930000000000001,-0.0082,-1.097,0.02224995553200024,1.026428641238901,0.03686179703462158,0.02399165951137236
0.494,-0.0061,-2.097,0.022350246107370048,1.046145105991559,0.037057358064326584,0.02607846375065131
0.4950000000000001,0.0199,-0.097,0.022340241082537512,1.0605901642045181,0.03703784882378967,0.02760733868302836
0.496,0.0017,0.903,0.02252881378612963,1.0752428736146995,0.03740555508086068,0.02915819156145663
0.4970000000000001,-0.0081,0.903,0.02330907278776617,1.0560697941067356,0.03892701662631486,0.027128899591563414
0.498,0.0007,-0.097,0.023532557841095644,1.0609973249928202,0.03936280001863895,0.02765043286191671
0.4990000000000001,0.0087,-2.097,0.023272385739597442,1.0756444879669815,0.03885547892807893,0.029200698701728034
0.5,0.0356,-1.097,0.023122841000729814,1.0800829370360747,0.0385638750259966,0.029670467214968153
0.5010000000000001,0.0175,1.903,0.02309052870847728,1.0800829370360747,0.03850086785785807,0.029670467214968153
0.502,0.0143,1.903,0.023821002052232653,1.0849014077296377,0.039925250146523865,0.030180457479263033
0.5030000000000001,-0.0006,0.903,0.02514381737663899,1.0804827523431486,0.04250466626809431,0.029712783943052885
0.504,-0.0087,-0.097,0.025558497934285697,1.0984439680186118,0.04331327023265435,0.03161381140839031
0.5050000000000001,0.0032,0.903,0.02554909950630552,1.0984439680186118,0.043294943822155305,0.03161381140839031
0.506,0.0188,-0.097,0.025549585821556656,1.0984439680186115,0.04329589210977778,0.031613811408390285
0.5070000000000001,0.0207,-1.097,0.025814312784021916,1.103182244460882,0.043812094925241615,0.03211531385777198
0.508,0.0081,-1.097,0.025773845728480155,1.103182244460882,0.04373318642340388,0.03211531385777198
0.5090000000000001,0.0129,-1.097,0.025551903424725457,1.0984439680186115,0.04330041130672592,0.031613811408390285
0.51,0.0144,-0.097,0.025936539967758084,1.0852994479535603,0.04405043111806182,0.03022258633132172
0.5110000000000001,0.0268,-0.097,0.025839470910001824,1.0856973422473024,0.04386115186806936,0.030264699738029387
0.512,0.0055,-0.097,0.02579233696761428,1.0904910052724566,0.043769243308632196,0.030772064341575662
0.5130000000000001,0.0142,-0.097,0.02582847634766952,1.0723965963274436,0.043839713084585154,0.028856939608648588
0.514,0.0008,-0.097,0.02551878709149963,1.067926202240568,0.0432358363035233,0.028383790012675415
0.5150000000000001,-0.0112,0.903,0.025002167528916038,1.0727992762158423,0.04222845696351994,0.028899559525998098
0.516,-0.0268,0.903,0.023934778951382067,1.0772494481000934,0.04014710875559313,0.029370568790086544
0.5170000000000001,-0.0449,0.903,0.02370292033386902,1.0772494481000934,0.03969499738002633,0.029370568790086544
0.518,-0.0568,0.903,0.02354815708032873,1.0723965963274402,0.039393217665319995,0.028856939608648238
0.5190000000000001,-0.0321,1.903,0.023262491643345533,1.071993765177822,0.0388361859920888,0.02881430368170684
0.52,-0.0091,-0.097,0.02309684207759625,1.0719937651778222,0.0385131785756026,0.02881430368170686
0.5210000000000001,-0.0238,-0.097,0.023120577122185328,1.0675216841813568,0.03855946058907016,0.028340975542058264
0.522,-0.0049,-0.097,0.023156326525349016,1.0820805363045842,0.03862916993182994,0.029881894500447627
0.5230000000000001,0.0021,-1.097,0.023150387449725276,1.0820805363045833,0.03861758906553027,0.029881894500447533
0.524,0.0001,-0.097,0.023061245522113628,1.0776503146505794,0.03844376727729801,0.029412996782499663
0.5250000000000001,0.0107,-1.097,0.023058045108190973,1.0776503146505791,0.03843752664860594,0.029412996782499642
0.526,0.0289,-2.097,0.023038729080673732,1.0727992762158338,0.038399861472021284,0.028899559525997206
0.5270000000000001,0.0268,1.903,0.02306225851703668,1.0776503146505787,0.038445742560912724,0.029412996782499593
0.528,0.0204,-2.097,0.022929644342254408,1.059336598018329,0.03818715231473783,0.027474660372571933
0.5290000000000001,0.0147,-2.097,0.02289807904465842,1.0593365980183285,0.03812560174452668,0.027474660372571885
0.53,0.0093,-0.097,0.02290960368648916,1.0593365980183316,0.03814807415347528,0.027474660372572214
0.5310000000000001,0.008,-1.097,0.0228727692570339,1.0589287986765206,0.03807624906994868,0.027431498608739696
0.532,-0.0148,-1.097,0.022895553771501386,1.0585208422284116,0.03812067760268129,0.027388320216668156
0.5330000000000001,-0.0444999999999938,-0.097,0.02293098322187489,1.0589287986765206,0.038189763055341,0.027431498608739696
0.534,-0.0166,-0.097,0.022978559257775484,1.0638430872472573,0.038282533672477206,0.02795163030329569
0.5350000000000001,0.0014999999999949375,-0.097,0.023073659216740677,1.0502656117076317,0.03846797328962527,0.02651458091993819
0.536,-0.0213,-0.097,0.023084794465039395,1.0502656117076317,0.03848968640289926,0.02651458091993819
0.5370000000000001,-0.0063999999999921845,-1.097,0.023063762517246005,1.0356765622134785,0.0384486752774569,0.024970465850965438
0.538,0.0288,0.903,0.023056515508609106,1.0402855511353852,0.03843454401471275,0.02545828441994739
0.5390000000000001,0.033499999999997115,-1.097,0.02305782725801891,1.04487420978976,0.03843710185291788,0.025943951219380215
0.54,0.0205,-1.097,0.023101711161480964,1.0398702806920193,0.03852267301767459,0.02541433190956915
0.5410000000000001,0.0006000000000024202,-1.097,0.023099184581593896,1.04487420978976,0.0385177463277785,0.025943951219380215
0.542,0.0115,-0.097,0.023155834413528153,1.0402855511353852,0.03862821034121972,0.02545828441994739
0.5430000000000001,0.02119999999999669,1.903,0.023258707494728657,1.04487420978976,0.038828807113292424,0.025943951219380215
0.544,0.0063,1.903,0.023522137698088464,1.0402855511353852,0.03934248132080873,0.02545828441994739
0.5450000000000002,-0.03440000000000653,1.903,0.02368212878555154,1.0402855511353852,0.03965445502015717,0.02545828441994739
0.546,-0.0638,-0.097,0.023627008031879625,1.0402855511353852,0.03954697262406514,0.02545828441994739
0.5470000000000002,-0.037399999999992606,0.903,0.02364495536636423,1.0352594429821809,0.03958196892555536,0.024926317663596334
0.548,-0.0041,1.903,0.02372265996301991,1.0302088141083334,0.03973348855617632,0.024391755617246283
0.5490000000000002,0.0002000000000009104,-1.097,0.024477958643406978,1.0723965963274356,0.04120627886699738,0.02885693960864774
0.55,0.0043,-0.097,0.024870216971344897,1.0589287986765206,0.04197116073390304,0.027431498608739696
0.5510000000000002,0.05870000000000515,0.903,0.0251063174182386,1.0593365980183318,0.042431543440235024,0.02747466037257224
0.552,0.0819,-0.097,0.025309253922891236,1.0593365980183318,0.04282725830843938,0.02747466037257224
0.5530000000000002,0.0467999999999901,-2.097,0.02528314833920459,1.0593365980183318,0.04277635387591433,0.02747466037257224
0.554,0.0022,-0.097,0.025301894960703866,1.0593365980183318,0.04281290874251441,0.02747466037257224
0.5550000000000002,-0.015200000000005884,-0.097,0.025295250349466076,1.064249003531753,0.04279995212110846,0.02799459276304211
0.556,-0.0417,0.903,0.025383991001817978,1.0593365980183316,0.042972991444959585,0.027474660372572214
0.5570000000000002,-0.037000000000002885,-0.097,0.02531608338911411,1.0593365980183316,0.04284057538675861,0.027474660372572214
0.558,-0.05,-0.097,0.025231706399263774,1.073201805013286,0.042676044961464966,0.02894216345177665
0.5590000000000002,-0.05399999999999116,0.903,0.025232027783652213,1.0687347790266077,0.042676671643101814,0.028469370337853274
0.56,-0.0142,0.903,0.025221772824988435,1.069138838100836,0.04265667504553046,0.028512136229183006
0.5609999999999999,0.0014,0.903,0.025213677847352896,1.069138838100836,0.04264089029052224,0.028512136229183006
0.562,0.0155,-0.097,0.025116465009974887,1.069138838100836,0.04245133067828463,0.028512136229183006
0.563,0.0023,-0.09699999999988898,0.025116038264117117,1.0736041828897318,0.0424504985476576,0.02898475140397258
0.5640000000000001,0.0143,0.902999999999778,0.025078621232269324,1.0736041828897318,0.04237753742195184,0.02898475140397258
0.565,0.0106,-1.096999999999889,0.025079351671129044,1.07845160073858,0.04237896173699856,0.029497805455164457
0.5660000000000001,0.0007,-0.097,0.025056675401652455,1.0736041828897318,0.04233474427596239,0.02898475140397258
0.567,-0.0081,-0.09700000000011103,0.024968684908801206,1.0687347790266077,0.042163167721308174,0.028469370337853274
0.5680000000000001,-0.0215,-1.096999999999889,0.024563943803330473,1.0687347790266077,0.04137394513426112,0.028469370337853274
0.569,-0.0096,-0.097,0.024062582011696046,1.0683305671310257,0.040396317596825645,0.02842658827180597
0.5700000000000001,0.0106,-0.09699999999977796,0.023847457715914074,1.0683305671310257,0.03997683721551804,0.02842658827180597
0.571,0.0131,1.902999999999667,0.023900549366242828,1.0683305671310257,0.040080362973235,0.02842658827180597
0.5720000000000001,0.0109,-1.096999999999889,0.023791472113577707,1.0872874633237763,0.03986766841275484,0.030432999250390256
0.573,0.0044,-0.097,0.02378805938546368,1.0916785764517758,0.039861013783228365,0.03089775769495002
0.5740000000000001,0.0062,-0.097,0.023793898935544403,1.0872874633237763,0.03987240058026876,0.030432999250390256
0.575,0.0007,-0.09699999999988898,0.023866805664304738,1.0916785764517758,0.04001456463602595,0.03089775769495002
0.5760000000000001,0.0156,0.902999999999889,0.023844240835807815,1.0872874633237763,0.03997056447868612,0.030432999250390256
0.577,0.0058,-0.097,0.023672433196896343,1.0736041828897318,0.03963554916291171,0.02898475140397258
0.5780000000000001,-0.0109,-1.097,0.023648574837013915,1.0544013060897524,0.03958902669149827,0.026952305668124
0.579,-0.0087,-2.097,0.02358671647307899,1.0776503146505823,0.03946840633108679,0.02941299678249997
0.5800000000000001,0.0133,-1.097,0.023541349318479284,1.064249003531753,0.03937994290931869,0.02799459276304211
0.581,0.0104,-1.097,0.023748768383229226,1.064249003531753,0.0397843985197624,0.02799459276304211
0.5820000000000001,0.0128,0.903,0.02402764172961622,1.0597442404352124,0.04032818599506228,0.027517805527361803
0.583,0.0149,0.903,0.02410515968782404,1.0601517261081825,0.040479341691116985,0.027560934092267682
0.5840000000000001,0.0213,0.903,0.02384847679436017,1.0646547650543259,0.039978824361663466,0.028037538842679812
0.585,0.0075,-0.097,0.02403692189190226,1.0828785442136755,0.040346281794052315,0.029966356208393784
0.5860000000000001,-0.0052,0.903,0.024086666653111762,1.0876846303665442,0.040443281304611396,0.03047503568435279
0.587,-0.0038,-1.097,0.024011706065887505,1.087684630366544,0.04029711233937401,0.03047503568435277
0.5880000000000001,-0.0053,-1.097,0.02427660951505192,1.1019771304285018,0.04081365929406019,0.031987763756720175
0.589,-0.0143,-0.097,0.024137743223645258,1.138076193943968,0.040542877769089734,0.035808513557615385
0.5900000000000001,-0.0005,0.903,0.02392264261937301,1.1384556427268222,0.040123443584905036,0.035848674678718113
0.591,0.0234,-0.097,0.023859185524938566,1.1388349650810232,0.03999970578916572,0.03588882241852493
0.5920000000000001,0.0332,-1.097,0.024131291590659916,1.1524933052052515,0.040530297444515466,0.037334430565335884
0.593,0.0361,-0.097,0.024537965577636687,1.1524933052052515,0.04132328904272058,0.037334430565335884
0.5940000000000001,0.0282,-2.097,0.024521386530552185,1.1346263663904395,0.041290960825363994,0.03544338142800709
0.595,0.0116,-0.097,0.024521386530552185,1.1207503069178888,0.041290960825363994,0.03397472971508264
0.5960000000000001,0.0094,-0.097,0.024330713071763876,1.1067002799334207,0.04091915821279986,0.03248766516061077
0.597,-0.0208,-0.097,0.023553846746994456,1.1067002799334207,0.03940431219805873,0.03248766516061077
0.5980000000000001,-0.0603,-3.097,0.02331113682856705,1.1019771304285018,0.03893104139078437,0.031987763756720175
0.599,-0.0448,0.903,0.023307500417785648,1.1019771304285018,0.038923950592529205,0.031987763756720175
0.6000000000000001,-0.0494,0.903,0.023309106509923648,1.1023690050169175,0.03892708238264159,0.03202924003366082
0.601,-0.0364,1.903,0.023309835294912058,1.1023690050169175,0.03892850347273146,0.03202924003366082
0.6020000000000001,-0.0084,1.903,0.02259136330018764,1.1023690050169175,0.037527523145473196,0.03202924003366082
0.603,0.0098,0.903,0.02110368063189392,1.1023690050169175,0.034626624896430085,0.03202924003366082
0.6040000000000001,-0.0065,0.903,0.02067570660247248,1.1031523365750964,0.03379209940316174,0.03211214838649564
0.605,-0.0214,-0.097,0.02067833479451988,1.1215208000414651,0.03379722423110452,0.03405627923913703
0.6060000000000001,0.0028,-0.097,0.02063515379457588,1.1215208000414651,0.033713023689013674,0.03405627923913703
0.607,-0.0005,-2.097,0.020235016793155886,1.1215208000414651,0.0329327788481378,0.03405627923913703
0.6080000000000001,0.0082,-0.097,0.019894482641483992,1.1261619859251708,0.032268756240778,0.03454750555678066
0.609,0.0107,0.903,0.01925487292178205,1.1307841227043303,0.03102155295240306,0.03503671570404993
0.6100000000000001,0.0129,-0.097,0.01849189979608959,1.126161985925171,0.02953379790116842,0.03454750555678068
0.611,0.0151,-0.097,0.01843706755447379,1.126161985925171,0.029426878087498203,0.03454750555678068
0.6120000000000001,0.0053,-1.097,0.018442920813000554,1.1257783935164025,0.02943829161524398,0.03450690587145092
0.613,0.0036,-0.097,0.018426506579688015,1.1437835540620984,0.029406284775552596,0.03641258449218799
0.6140000000000001,0.0021,0.903,0.01849069963050795,1.1483347648487359,0.02953145764520622,0.03689428778345002
0.615,0.0036,-0.097,0.018568333664527217,1.1479585815375277,0.02968283968262079,0.03685447228212039
0.6160000000000001,-0.0167,-0.097,0.01854272979942671,1.143783554062101,0.029632913573362563,0.036412584492188274
0.617,0.0039,0.903,0.018544638246638587,1.1479585815375286,0.029636634939009497,0.03685447228212048
0.6180000000000001,0.0282,-1.097,0.01855029349154632,1.1479585815375286,0.029647662351239532,0.03685447228212048
0.619,-0.0015,1.903,0.01843982003078329,1.1479585815375295,0.029432245262821902,0.036854472282120576
0.6200000000000001,0.0184,-0.097,0.018422934382936247,1.1524933052052553,0.029399319191074604,0.037334430565336287
0.621,-0.0069,1.903,0.018401353665339057,1.1524933052052553,0.029357237995114593,0.037334430565336287
0.6220000000000001,0.0029,-1.097,0.01842682829246657,1.1392141611328708,0.02940691209753187,0.03592895679040347
0.623,0.0057,-0.097,0.018615182843415005,1.135006968499731,0.02977419296911203,0.03548366461797608
0.6240000000000001,-0.0186,-1.097,0.01890670057505815,1.1521184797182953,0.030342636290602455,0.03729475877706235
0.625,-0.0024,-0.097,0.01911727724029797,1.1689795396301181,0.03075324904593163,0.03907934499696188
0.6260000000000001,0.0041,-1.097,0.01935204011077234,1.1730648960976395,0.03121102355283001,0.03951174194551931
0.627,0.0246,-0.097,0.01950704798415224,1.1726966458645711,0.03151328026258343,0.03947276608665602
0.6280000000000001,0.0111,-3.097,0.01953830965645142,1.1771360740540118,0.03157423878039615,0.03994263823066958
0.629,-0.001,0.903,0.019656457829256947,1.2113533717740659,0.031804621129349835,0.04356422064083532
0.6300000000000001,0.0327,-0.097,0.02129735381366292,1.1994468442412227,0.03500427680154012,0.042304025547935664
0.631,0.0374,-0.097,0.022063446282660746,1.2124225637178063,0.03649811439828366,0.043677384654201346
0.6320000000000001,0.0244,0.903,0.02236500896031725,1.2084702671680982,0.03708614480438757,0.04325907085919372
0.633,-0.0274,-1.097,0.02233821599639168,1.2084702671680982,0.037033900018725384,0.04325907085919372
0.6340000000000001,-0.0343,-2.097,0.022315089110730105,1.204146366938861,0.03698880388125513,0.04280142627423459
0.635,-0.0155,0.903,0.02226801655756408,1.2037876248647452,0.03689701502737682,0.04276345676547813
0.6360000000000001,-0.0097,-0.097,0.022347538974584774,1.2081128090516968,0.03705207930634674,0.04322123724540804
0.637,-0.0363,1.903,0.02239761037053207,1.2081128090516968,0.03714971573643115,0.04322123724540804
0.6380000000000001,-0.0124,2.903,0.02242666389121596,1.2084702671680982,0.03720636848172199,0.04325907085919372
0.639,0.0093,0.903,0.02247479416781499,1.204505002167534,0.03730021983731534,0.04283938447439565
0.6400000000000001,-0.0107,0.903,0.022571693881658292,1.2206426475476126,0.03748916887612024,0.04454740400089765
0.641,-0.0361,1.903,0.02257216755366249,1.2206426475476106,0.03749009251011617,0.04454740400089744
0.6420000000000001,-0.0459,-0.097,0.022469575313238038,1.2245556579407737,0.037290043361896924,0.044961559721977934
0.643,-0.0191,-0.097,0.02222365589735269,1.2206426475476098,0.03681051421354317,0.044547404000897343
0.6440000000000001,0.0063,-1.097,0.02193221754376311,1.2372680793775401,0.03624222567483103,0.04630705118196031
0.645,0.016,-1.097,0.02175483052864264,1.2256133326210237,0.03589633088655864,0.045073504740226
0.6460000000000001,0.0189,-0.097,0.021724966898084865,1.2295105235341148,0.03583809847218597,0.045485986116615834
0.647,0.0163,-0.097,0.021748365225971063,1.2295105235341148,0.03588372390685844,0.045485986116615834
0.6480000000000001,-0.0004,1.903,0.02168128635677807,1.2295105235341148,0.035752923852292416,0.045485986116615834
0.649,-0.0027,0.903,0.020826798466239527,1.1972567736079998,0.03408672011252928,0.04207222696035602
0.6500000000000001,-0.0046,-0.097,0.020373373326282748,1.1928922282976617,0.03320256637288709,0.041610280471956744
0.651,0.012,0.903,0.019774278987572013,1.1885116552712824,0.03203436581828166,0.04114663759902806
0.6520000000000001,0.0142,-0.097,0.019435710567179618,1.1711943167045895,0.03137417627730646,0.039313758531337596
0.653,0.02,1.903,0.019698467957997377,1.1577566180459935,0.03188653853788223,0.037891503229553286
0.6540000000000001,-0.0039,1.903,0.020487774242253533,1.1577566180459926,0.033425641779962455,0.037891503229553196
0.655,-0.0073,-0.097,0.02065143028377634,1.1532425907032822,0.033744761935367205,0.037413735459663346
0.6560000000000001,-0.0103,0.903,0.020593503825727753,1.1532425907032822,0.03363180857218851,0.037413735459663346
0.657,-0.0023,0.903,0.02059405066264742,1.153242590703282,0.0336328748736899,0.03741373545966332
0.6580000000000001,-0.00019999999999853452,0.903,0.020603739073951167,1.136148009832597,0.033651766735500244,0.03560443322028324
0.659,0.0064,-0.097,0.02069481898866557,1.136148009832597,0.033829367490519485,0.03560443322028324
0.6600000000000001,0.0005999999999988009,0.903,0.020868998621388996,1.136148009832597,0.03416900806196332,0.03560443322028324
0.661,-0.0048,-1.097,0.021133755720979957,1.1539913896910687,0.0346852696431418,0.03749298886141074
0.6620000000000001,0.01340000000000049,1.903,0.021281873585555514,1.1585024993923843,0.03497409121991802,0.03797044782612137
0.663,0.0156,0.903,0.02150062595035262,1.1543656070395019,0.035400646133501704,0.0375325962838832
0.6640000000000001,0.022199999999995983,-1.097,0.021500433444760256,1.1543656070395019,0.035400270758330826,0.0375325962838832
0.665,0.0041,-0.097,0.021499548430692284,1.1543656070395019,0.035398545030247225,0.0375325962838832
0.6660000000000001,-0.0027000000000014656,-1.097,0.021500821159158644,1.1719316455963764,0.03540102677978848,0.03939179793020683
0.667,-0.0093,-0.097,0.02146934019867668,1.1760067467208486,0.03533964066224698,0.039823109446176876
0.6680000000000001,-0.007399999999999579,-1.097,0.021467775525261745,1.1756394179757672,0.03533658963633505,0.039784231118238214
0.669,-0.0055,0.903,0.021309979532010276,1.1715630391556733,0.0350288962482994,0.03935278437008159
0.6700000000000002,0.005700000000002354,-0.097,0.02138412891343369,1.1581296187663312,0.03517348340745848,0.03793098188326833
0.671,0.0163,0.903,0.02130637064622234,1.1622531136747154,0.03502185912224668,0.03836741543073282
0.6720000000000002,0.028600000000001066,-0.097,0.021298930449967796,1.1445385415144471,0.035007351154420385,0.036492492885296414
0.673,0.0334,-2.097,0.021337626829534828,1.1449158485437134,0.035082806936841425,0.036532427321721
0.6740000000000002,0.029000000000000244,-2.097,0.021331020679554495,1.1494625761040886,0.03506992531274289,0.03701365610522076
0.675,0.0301,-1.097,0.021256637429595143,1.1452930312724008,0.03492488212297936,0.03657234860208651
0.6760000000000002,0.029099999999996316,-1.097,0.021265607634079458,1.149838267365633,0.034942373521539484,0.03705341952767434
0.677,0.0125,0.903,0.021275819932436643,1.1502138359161544,0.034962286933891765,0.03709316996230853
0.6780000000000002,-0.024100000000012944,2.903,0.021133603679432716,1.1678423247885426,0.034684973170602616,0.03895898139313423
0.679,-0.0824,0.903,0.021111920185654425,1.133454684935424,0.03464269156682032,0.03531936985402137
0.6800000000000002,-0.059099999999995316,1.903,0.021146544575195582,1.146800521633705,0.03471020719574765,0.03673190242251558
0.681,-0.038,-0.097,0.02089333509734456,1.1468005216337047,0.03421646283305931,0.03673190242251556
0.6820000000000002,0.006599999999996137,0.903,0.020795941295487317,1.1509646053645874,0.03402655035017789,0.03717263191897091
0.683,-0.0108,-0.097,0.02096007289083485,1.1509646053645874,0.03434659780902367,0.03717263191897091
0.6840000000000002,0.015600000000001044,-1.097,0.02102248038657444,1.1468005216337047,0.0344682889458343,0.03673190242251556
0.685,0.0203,0.903,0.020785029339678535,1.1296084559058022,0.03400527264480834,0.03491228231855585
0.6860000000000002,0.015899999999993805,0.903,0.020746995277813512,1.1249814887528655,0.03393110834497498,0.0344225609211917
0.687,-0.012,0.903,0.02073351036437925,1.1249814887528653,0.03390481351570549,0.034422560921191676
0.688,-0.0156,-0.09700000000022205,0.020462157429823748,1.1066704671229193,0.033375690424134095,0.03248450975216815
0.6890000000000001,-0.0253,-2.096999999999667,0.020592182189043646,1.0646237748379614,0.0336292314543498,0.02803425881678791
0.69,0.0016,0.902999999999778,0.020911093307992307,1.078821438222057,0.03425109035361333,0.02953694930970662
0.6910000000000001,-0.0091,-1.096999999999889,0.020973784470934686,1.078821438222057,0.03437333462565194,0.02953694930970662
0.692,0.0007,-0.09699999999977796,0.02073270525587007,1.0646237748379617,0.03390324359900595,0.028034258816787935
0.6930000000000001,0.0037,1.902999999999889,0.020218143294491026,1.0646237748379617,0.032899876466618315,0.028034258816787935
0.694,-0.0042,0.902999999999778,0.020142672302619867,1.0691079778642354,0.03275271224077996,0.02850886996043903
0.6950000000000001,-0.0019,-1.096999999999889,0.02023764458005422,1.0691079778642352,0.032937902886062485,0.02850886996043901
0.696,0.0138,-0.097,0.02060633409413882,1.0691079778642352,0.03365682688016619,0.02850886996043901
0.6970000000000001,0.012,-0.09699999999988898,0.020697495061476973,1.0691079778642352,0.0338345856832822,0.02850886996043901
0.698,0.003,0.902999999999889,0.020721370924666836,1.0880513294727907,0.03388114228516915,0.030513847370882544
0.6990000000000001,-0.0119,-0.097,0.020789794884653347,1.0691079778642352,0.034014565191779415,0.02850886996043901
0.7,0.0063,-0.097,0.020874264848699055,1.068703907122268,0.03417927691156975,0.028466102834187726
0.7010000000000001,-0.0006,-0.09700000000011103,0.020881663207430724,1.0735734510110044,0.03419370329855932,0.02898149872071451
0.702,0.0332,-1.096999999999778,0.021002048243781865,1.0876542963336073,0.03442844740669804,0.030471825109367818
0.7030000000000001,0.0572,0.902999999999889,0.021150451495429965,1.0924393722080101,0.03471782547235234,0.030978280842951043
0.704,0.0268,-0.097,0.021386353576904233,1.0924393722080101,0.0351778213771774,0.030978280842951043
0.7050000000000001,0.0149,-0.097,0.02158581584492672,1.0784210069972462,0.03556676167767862,0.02949456739246347
0.706,-0.0031,-0.097,0.021878938116225134,1.083246870270222,0.036138333762026666,0.030005340092466342
0.7070000000000001,-0.0063,-0.097,0.021955540978629857,1.097203579818945,0.036287705072291655,0.031482527865123906
0.708,-0.021,-0.097,0.021983565147466622,1.097203579818945,0.03634235063887791,0.031482527865123906
0.7090000000000001,-0.0289,0.903,0.02201882955902057,1.0968098596990066,0.03641111427504214,0.03144085625585297
0.71,-0.0357,1.903,0.022065279354443485,1.101163000974732,0.03650168878604675,0.03190159573335688
0.7110000000000001,-0.0292,0.903,0.022141454392602664,1.096415998195211,0.03665022586288869,0.031399169682417
0.712,-0.031,-0.097,0.02214149438239277,1.0968098596990064,0.03665030384074954,0.031440856255852946
0.7130000000000001,-0.0034,-0.097,0.02210263789233918,1.0828480755469245,0.03657453585180758,0.02996313138367299
0.714,0.0007,0.903,0.02206600092633125,1.082449133900122,0.0365030958109926,0.02992090712439446
0.7150000000000001,0.0043,1.903,0.021980803344216017,1.0828480755469245,0.03633696527653914,0.02996313138367299
0.716,-0.012,-1.097,0.0219850833526331,1.0828480755469245,0.03634531105429646,0.02996313138367299
0.7170000000000001,0.0029,-1.097,0.022019116714801466,1.0832468702702218,0.036411674212802905,0.030005340092466318
0.718,0.0109,-0.097,0.022025499887883753,1.0832468702702218,0.03642412104438358,0.030005340092466318
0.7190000000000001,0.0179,-1.097,0.02201940572982138,1.0836455182322233,0.03641223777597607,0.030047533267942798
0.72,0.0023,-1.097,0.022096523624067558,1.078821438222057,0.036562613369613396,0.02953694930970662
0.7210000000000001,0.0041,-0.097,0.022097809891928777,1.0975971587071738,0.036565121520219665,0.031524184526333196
0.722,0.0132,0.903,0.02205812571680109,1.0928346669029054,0.036487739591535465,0.031020119106322307
0.7230000000000001,0.002,0.903,0.021907250929579694,1.1113736709223128,0.036193542169327624,0.032982300088817834
0.724,-0.0055,-0.097,0.02165198670410135,1.0936248276506393,0.035695791163340054,0.031103750265293672
0.7250000000000001,-0.0066,0.903,0.021459776748526747,1.0755831399238478,0.035320992467718665,0.029194205582495504
0.726,-0.0077,0.903,0.021296674666479238,1.0755831399238478,0.03500295250240161,0.029194205582495504
0.7270000000000001,-0.0001,1.903,0.021102414057268943,1.0711260451066065,0.034624155146536384,0.02872246359040062
0.728,-0.0055,-1.097,0.02108866056389914,1.0662453239702594,0.03459733660136879,0.028205884696271315
0.7290000000000001,-0.0121,1.903,0.021056611182840492,1.027205644659012,0.03453484209539825,0.02407389808970591
0.73,0.0015,-0.097,0.019475130660341584,1.0267850842239499,0.03145104326088288,0.02402938568295497
0.7310000000000001,0.0315,-1.097,0.018555548879011625,1.0066895161618752,0.029657910063753137,0.021902456887720374
0.732,0.0358,0.903,0.018164875244319777,1.0118575470724658,0.028896118260313814,0.022449444846679458
0.7330000000000001,0.0319,-0.097,0.018153327660767833,1.0066895161618754,0.028873601116288113,0.021902456887720398
0.734,0.0137,-0.097,0.018153436776182988,1.0066895161618752,0.02887381388526332,0.021902456887720374
0.7350000000000001,-0.0091,-0.097,0.01813300284348419,1.0212697333872938,0.02883396885590972,0.02344563714327353
0.736,-0.0062,-0.097,0.01803369070767607,1.016149573003737,0.028640315728791593,0.022903715833939724
0.7370000000000001,-0.0142,-0.097,0.017985653243508086,1.0110034822385137,0.028546645352263512,0.022359050035111117
0.738,-0.0262,-0.097,0.017989069773447667,1.0058310630921696,0.02855330739513782,0.021811597622250784
0.7390000000000001,-0.0375,1.903,0.017922368682749254,1.0251011170838566,0.028423243987571057,0.023851153438440686
0.74,-0.0194,0.903,0.017868038180017136,1.0105761791492323,0.028317302536746736,0.02231382398118331
0.7410000000000001,-0.0173,0.903,0.017924165446648804,1.0101486953064447,0.028426747576986485,0.02226857879617964
0.742,-0.0018,-0.097,0.01791137221569864,1.0101486953064458,0.028401801489992343,0.022268578796179758
0.7430000000000001,0.0079,-1.097,0.018085446158933365,1.0148736241582188,0.028741235972826518,0.022768668527369633
0.744,0.0206,-1.097,0.01810097157629472,1.0140220996324172,0.028771509670974037,0.02267854258376946
0.7450000000000001,0.042,-1.097,0.01811015884053988,1.0140220996324196,0.02878942432396441,0.02267854258376972
0.746,0.0271,-0.097,0.018121291211754053,1.014447951241214,0.028811131827083968,0.02272361501200084
0.7470000000000001,0.0191,1.903,0.01813654950134308,1.0144479512412137,0.02884088464097066,0.02272361501200082
0.748,0.0169,-0.097,0.01811320097526432,1.0343928040217842,0.028795356317045707,0.024834591997805452
0.7490000000000001,0.019,-1.097,0.018121253647953712,1.02933792283913,0.028811058579767884,0.024299579884156007
0.75,-0.0072,0.903,0.018099820027923527,1.048999707640249,0.028769264215861276,0.026380596759619675
0.7510000000000001,-0.0254,1.903,0.018101247417474205,1.0489997076402489,0.02877204754589295,0.02638059675961965
0.752,-0.0287,0.903,0.018149497452234764,1.053960293486716,0.028866132423223487,0.026905628589796986
0.7530000000000001,-0.0374,1.903,0.01785171272821641,1.0494113654158153,0.028285468816052872,0.026424166902744236
0.754,-0.0295,0.903,0.016914622579556067,1.0444291743563137,0.02645819527890655,0.02589684836190572
0.7550000000000001,-0.0364,0.903,0.01672153286418336,1.0860647123421243,0.026081681100734833,0.030303582442453125
0.756,-0.021,1.903,0.016684536209032833,1.1039351122961112,0.026009539686148272,0.032194997909141335
0.7570000000000001,-0.0113,0.903,0.016721579835463844,1.1086499202983353,0.026081772692112627,0.032694016442628746
0.758,0.0125,-1.097,0.01670957321755428,1.1086499202983353,0.02605836045668561,0.032694016442628746
0.7590000000000001,0.0157,-1.097,0.016636082624560736,1.108649920298335,0.0259150578982303,0.032694016442628725
0.76,0.0184,-0.097,0.016390536004235137,1.1039351122961112,0.02543625568043075,0.032194997909141335
0.7610000000000001,0.0049,0.903,0.016007139372731467,1.089668294164971,0.02468865362743806,0.030684988030059344
0.762,0.0026,0.903,0.015754444683795447,1.0896682941649711,0.024195913074429032,0.030684988030059368
0.7630000000000001,0.009,-1.097,0.015457040778826387,1.094049851556647,0.02361599204316983,0.031148735088890524
0.764,0.0108,0.903,0.015481415714130501,1.1125686068398954,0.023663521807850994,0.033108772931173716
0.7650000000000001,-0.0059,-0.097,0.015515110137273122,1.1078704758717912,0.023729224054156686,0.032611519506489356
0.766,-0.0125,0.903,0.015560692698231007,1.094049851556643,0.02381810750631204,0.0311487350888901
0.7670000000000001,-0.0107,-0.097,0.015545852843511131,1.0944445645740406,0.023789170617087997,0.03119051178711349
0.768,-0.0053,0.903,0.01570153999735605,1.0944445645740397,0.024092751885871094,0.031190511787113392
0.7690000000000001,0.0193,-0.097,0.015673109270001012,1.0944445645740397,0.02403731355284417,0.031190511787113392
0.77,-0.0061,1.903,0.015571710251228024,1.0948391352889304,0.023839591120310474,0.031232273423941224
0.7710000000000001,-0.0094,-0.097,0.015578616420668207,1.0952335638551092,0.02385305776562644,0.031274020015651265
0.772,-0.0123,1.903,0.015579946069750123,1.0952335638551092,0.023855650507194102,0.031274020015651265
0.7730000000000001,0.001,-0.097,0.015525141467848537,1.0904607493062217,0.02374878458942539,0.030768862029224315
0.774,0.0032,-0.097,0.015553196395487528,1.0856669526886273,0.023803490133960853,0.030261483286161947
0.7750000000000001,0.0144,-1.097,0.015545268689363482,1.090064593747973,0.02378803154907289,0.03072693265148148
0.776,0.0046,-0.097,0.015556896432608484,1.0896682941649611,0.0238107050000303,0.03068498803005831
0.7770000000000001,0.0099,-0.097,0.015563906620202175,1.08966829416496,0.023824374474945488,0.030684988030058192
0.778,0.0212,-1.097,0.015644306409541536,1.0707535496433436,0.02398114958101397,0.028683038413443152
0.7790000000000001,0.0197,-1.097,0.015636721282600633,1.0707535496433436,0.0239663590064307,0.028683038413443152
0.78,-0.0006,-0.097,0.01574481172135765,1.0560385519582078,0.024177129334815427,0.02712559290099744
0.7810000000000001,-0.0035,0.903,0.015947058017338117,1.0560385519582078,0.024571498334595532,0.02712559290099744
0.782,-0.001,-0.097,0.01588702852031142,1.0514986147586047,0.02445444416267632,0.026645082813969045
0.7830000000000001,0.010900000000000467,-0.097,0.015508232452006658,1.0650603719918559,0.023715812951391177,0.02808046856092986
0.784,0.013,-2.097,0.015328410717527257,1.0695427445269095,0.023365170596130372,0.028554885964126663
0.7850000000000001,0.007200000000000377,-0.097,0.01527866980892,1.0740064100147995,0.023268178597930848,0.0290273234005386
0.786,0.0089,-0.097,0.015300345917108962,1.0788520206080878,0.023310445800225777,0.029540186170554508
0.7870000000000001,-0.012499999999996715,-0.097,0.015559140110945436,1.0788520206080878,0.023815080047678426,0.029540186170554508
0.788,0.0023,-2.097,0.01572289919030329,1.0832773277203198,0.024134401121116058,0.030008563730008823
0.7890000000000001,0.021199999999998467,-1.097,0.015502510524870313,1.1011929628899397,0.023704655512533594,0.03190476692314454
0.79,0.0143,-1.097,0.015142089471586028,1.0824796137959232,0.023001854555935883,0.029924133137605672
0.7910000000000001,-0.006100000000004197,-1.097,0.015262175443899649,1.0820805363045847,0.023236015505877426,0.029881894500447672
0.792,-0.025,-1.097,0.01573583946129088,1.081681311576873,0.024159633927984137,0.029839640279690313
0.7930000000000001,-0.008299999999996558,-2.097,0.015993630348919593,1.08609509077124,0.024662311784276646,0.0303067977163603
0.794,0.0072,0.903,0.016059906601229704,1.081681311576873,0.024791546780675477,0.029839640279690313
0.7950000000000002,-0.006600000000001998,0.903,0.015979446248845595,1.0952636879753606,0.02463465358004677,0.03127720837333271
0.796,-0.0156,-0.097,0.01544462398176925,1.0908870059793838,0.023591779981276897,0.030813977329747735
0.7970000000000002,-0.007599999999996936,1.903,0.01597087202908957,1.0956579637058004,0.02461793432962646,0.03131893878880264
0.798,0.0062,-0.097,0.0171199150424883,1.0816813115768733,0.0268585041343864,0.029839640279690337
0.7990000000000002,0.008099999999999689,1.903,0.017514736471368825,1.081681311576873,0.027628383905210004,0.029839640279690313
0.8,0.0067,-0.097,0.017514538946410453,1.096052097605992,0.027627998742555292,0.031360654192861194
0.8010000000000002,-0.013199999999998224,0.903,0.01752299775409937,1.0912828629870526,0.0276444929458802,0.030855875108691096
0.802,-0.0052,-0.097,0.017450699711362476,1.076848432323411,0.027503515793927995,0.029328125003469804
0.8030000000000002,-0.0029999999999975133,-0.097,0.017466058001844746,1.0764472671537768,0.027533463603980398,0.0292856654049999
0.804,0.0082,-3.097,0.01797001182067676,1.061811178181415,0.028516145449918092,0.027736571645183193
0.8050000000000002,0.009900000000000379,-2.097,0.018715386250989445,1.0568874417333796,0.029969584026476596,0.027215439980772232
0.806,0.0116,0.903,0.018869221124865162,1.0519406593893266,0.030269553452604056,0.026691869122818682
0.8070000000000002,0.0003000000000030642,-0.097,0.018757836609091645,1.0373751670727303,0.030052359857716978,0.02515024736177957
0.808,0.0141,-0.097,0.019211856937600573,1.0373751670727303,0.030937674181847764,0.02515024736177957
0.8090000000000002,0.005199999999997535,-0.097,0.02014720487480524,1.0377914359319644,0.03276155050380233,0.025194305545182483
0.81,-0.0059,-1.097,0.021200981586147995,1.0527615139933444,0.03481635633166257,0.02677874894072646
0.8110000000000002,-0.007199999999999711,0.903,0.02234861816563715,1.0577044572860772,0.0370541836687225,0.027301913470838265
0.812,-0.0059,-1.097,0.023986127653630677,1.0719937651778166,0.04024723586174169,0.028814303681706274
0.8130000000000002,-0.009300000000000199,1.902999999999778,0.024646786683084457,1.0860950907712401,0.04153548413040984,0.030306797716360325
0.8140000000000001,-0.0102,-0.09699999999988898,0.02471935749879432,1.1004082365418835,0.04167699317444933,0.03182171094478631
0.815,-0.0126,0.903,0.024726838197690757,1.1004082365418837,0.041691580120168874,0.03182171094478633
0.8160000000000001,-0.0099,0.902999999999778,0.02495323285256383,1.1047471988794277,0.04213303707326175,0.03228094971368571
0.817,-0.0222,-1.096999999999889,0.02534193184740023,1.1176630228204347,0.04289097843909012,0.03364796943512134
0.8180000000000001,0.0054,-0.09699999999988898,0.02540168509644748,1.1219352561368392,0.043007493942853164,0.03410014555836168
0.819,0.0015,0.903,0.02550603654196813,1.1219352561368392,0.04321097344291561,0.03410014555836168
0.8200000000000001,0.0052,0.902999999999889,0.025638250557748616,1.1265747345738373,0.04346878340135014,0.03459119115866716
0.821,-0.0045,-0.097,0.025945149115156534,1.112598261605815,0.044067218475437264,0.033111911612068695
0.8220000000000001,-0.0016,-0.097,0.026142964533145685,1.116889868389451,0.04445294751020288,0.033566138236453914
0.823,-0.0095,-0.09700000000011103,0.02635616356051661,1.098443968018602,0.044868673725463125,0.03161381140838928
0.8240000000000001,0.0025,-1.097,0.02636185117590844,1.1168898683894508,0.04487976425833215,0.033566138236453893
0.825,0.009,-1.096999999999778,0.02647768621663819,1.135036037025062,0.04510563612871978,0.035486741250762496
0.8260000000000001,-0.009,0.902999999999889,0.026470373692177994,1.1354165018089668,0.04509137711377341,0.035527009906117755
0.827,-0.0158,-0.09700000000011103,0.026482925551590316,1.1396221825512327,0.04511585253972779,0.03597214205897143
0.8280000000000001,-0.0026,-1.097,0.026464607113544963,1.1396221825512325,0.045080132606987074,0.03597214205897141
0.829,0.0221,-1.096999999999889,0.026382023804936205,1.1400011167526933,0.0449190997600977,0.03601224871642427
0.8300000000000001,0.0254,-0.097,0.02631542283385248,1.1400011167526933,0.04478923158019684,0.03601224871642427
0.831,0.0283,-0.09700000000022205,0.02632799053257071,1.1441899460229983,0.04481373789191453,0.03645559729785339
0.8320000000000001,0.0095,-2.096999999999889,0.026335842339706567,1.1438123995417946,0.04482904847800771,0.036415637517670456
0.833,0.0215,-1.097,0.02637752252394696,1.1438123995417946,0.044910322513162945,0.036415637517670456
0.8340000000000001,0.0059,-1.097,0.026362356428303955,1.1438123995417946,0.04488074947233021,0.036415637517670456
0.835,-0.0122,0.903,0.026368527746712056,1.1308132997815485,0.04489278319910938,0.035039803826043034
0.8360000000000001,-0.0289,-0.097,0.026359775434704216,1.1308132997815485,0.044875716678728556,0.035039803826043034
0.837,-0.0267,-1.097,0.0263482972767948,1.135036037025062,0.04485333491083456,0.035486741250762496
0.8380000000000001,-0.0006,-2.097,0.02633578941363677,1.135036037025062,0.044828945275122795,0.035486741250762496
0.839,0.0175,-0.097,0.02634654486635679,1.1176630228204345,0.04484991780819597,0.03364796943512132
0.8400000000000001,0.0273,-1.097,0.026269384132706432,1.1176630228204345,0.04469945868010924,0.03364796943512132
0.841,0.0421,-1.097,0.02623553435948285,1.1180493995413012,0.044633453509808095,0.03368886381396551
0.8420000000000001,0.0287,-1.097,0.026242968264347796,1.1137622607324873,0.04464794920977548,0.033235110083119614
0.843,0.0166,-0.097,0.026200126277116355,1.1137622607324873,0.04456440972357057,0.033235110083119614
0.8440000000000001,-0.0128,-2.097,0.026300825177534393,1.1004082365418835,0.04476076696435115,0.03182171094478631
0.845,-0.0089,-0.097,0.0263084519341522,1.1141499902017207,0.04477563871448308,0.033276147637784706
0.8460000000000001,-0.0488,0.903,0.026303488006801795,1.1137622607324873,0.04476595933294154,0.033235110083119614
0.847,-0.0645,0.903,0.026257199934314256,1.1319585684407776,0.04467570017264313,0.035161019851490505
0.8480000000000001,-0.0406,-0.097,0.02635233627925152,1.1184356427838027,0.04486121074040784,0.03372974406536739
0.849,-0.0189,1.903,0.02679586475795483,1.1365571319928318,0.04572606654244986,0.03564773499213086
0.8500000000000001,0.0091,-0.097,0.0269100379544825,1.1184356427838027,0.04594869790930892,0.03372974406536739
0.851,0.0199,-1.097,0.02695762899789211,1.1227049360504038,0.04604149779025088,0.03418160901170708
0.8520000000000001,0.0297,-1.097,0.02699736236237397,1.1223201620738121,0.04611897563543289,0.0341408842684233
0.853,0.0565,-1.097,0.027019647501956897,1.1269580559251815,0.04616243041498608,0.03463176215509204
0.8540000000000001,0.0601,-0.097,0.027069247267530468,1.1269580559251815,0.04625914719214014,0.03463176215509204
0.855,0.0437,-0.097,0.027087015107293517,1.0868901511498272,0.04629379348893206,0.03039094745564331
0.8560000000000001,0.0049,0.903,0.02711905957701637,1.0687347790266057,0.046356278418071654,0.028469370337853062
0.857,-0.043,0.903,0.027166366878225715,1.0820805363045847,0.04644852501754475,0.029881894500447672
0.8580000000000001,-0.0619,0.903,0.02718885545674959,1.1000156634406006,0.04649237649168889,0.031780160736761646
0.859,-0.0678,1.903,0.02716596872833437,1.1043561681800795,0.04644774864745772,0.032239562754546494
0.8600000000000001,-0.073,0.903,0.02719530151984493,1.1043561681800795,0.04650494595528824,0.032239562754546494
0.861,-0.0872,1.903,0.027337160003863166,1.1184356427838027,0.04678156208900471,0.03372974406536739
0.8620000000000001,-0.0567,1.903,0.027502170647462847,1.1137622607324873,0.04710332364292589,0.033235110083119614
0.863,-0.0209,1.903,0.027501784056947448,1.1137622607324873,0.0471025698129774,0.033235110083119614
0.8640000000000001,0.0124,0.903,0.02756878181955142,1.0996229501879817,0.047233211714217384,0.031738595695022825
0.865,0.0341,-1.097,0.027674616430608645,1.1043561681800835,0.0474395833043739,0.03223956275454692
0.8660000000000001,0.046,-2.097,0.02767750933475834,1.1043561681800835,0.04744522430615562,0.03223956275454692
0.867,0.0205,-1.097,0.027697323001328867,1.0996229501879837,0.04748385985114553,0.031738595695023034
0.8680000000000001,0.0237,0.903,0.02761044092532046,1.11298639657583,0.04731444464752884,0.03315299208521642
0.869,0.0324,0.903,0.027611631337594037,1.11298639657583,0.04731676588508416,0.03315299208521642
0.8700000000000001,0.0403,-1.097,0.027738512457331964,1.11298639657583,0.047564176993601374,0.03315299208521642
0.871,0.0335,-1.097,0.028019843677870138,1.112986396575831,0.04811275718644343,0.03315299208521654
0.8720000000000001,0.0357,-0.097,0.028072278672994232,1.1129863965758309,0.048215002503126804,0.03315299208521652
0.873,0.0056,1.903,0.028073255091455637,1.112986396575831,0.04821690646468083,0.03315299208521654
0.8740000000000001,-0.0249,1.903,0.028104689641130373,1.1176630228204427,0.048278202083736135,0.03364796943512219
0.875,-0.0129,0.903,0.028147104210293816,1.1180493995413094,0.04836090812854156,0.03368886381396638
0.8760000000000001,-0.0093,-1.097,0.028134081781509897,1.1180493995413114,0.04833551511855181,0.033688863813966595
0.877,0.0005,-0.097,0.028127157945612026,1.1315769410128356,0.04832201402462844,0.0351206281410878
0.8780000000000001,0.0034,0.903,0.028101182118425813,1.1361770491649805,0.04827136261004394,0.03560750676326796
0.879,0.006,-1.097,0.028132068263234257,1.1361770491649805,0.04833158887018937,0.03560750676326796
0.8800000000000001,0.0082,-1.097,0.028112059807827987,1.1319585684407893,0.04829257349783131,0.035161019851491754
0.881,-0.0073,-1.097,0.027997777145966473,1.1365571319928436,0.0480697286796751,0.035647734992132106
0.8820000000000001,0.0149,-0.097,0.027855073855445563,1.1411371643676649,0.04779146522038537,0.036132488780182444
0.883,0.0062,-0.097,0.027851202992305413,1.1418939015382232,0.04778391725310385,0.036212582364673965
0.8840000000000001,0.0142,-1.097,0.027807507966740953,1.1376966186059718,0.04769871438971552,0.03576833904182905
0.885,0.0023,-0.097,0.02780590421795972,1.1334837932695547,0.04769558716901816,0.03532245070019865
0.8860000000000001,-0.0042,-1.097,0.027780956322513217,1.1331026795353478,0.04764694016400795,0.03528211335949546
0.887,0.0096,-0.097,0.027630133294413405,1.1376966186059718,0.04735284366920108,0.03576833904182905
0.8880000000000001,0.0079,-0.097,0.02750043824740736,1.1334837932695547,0.04709994555941742,0.03532245070019865
0.889,0.0065,-1.097,0.027502415058561953,1.1207503069178986,0.04710380023094062,0.033974729715083675
0.8900000000000001,0.0051,0.903,0.027499904745799036,1.1250108163210186,0.04709890526102957,0.03442566497124922
0.891,0.0088,-0.097,0.02748732296342238,1.1207503069178975,0.047074371486963265,0.03397472971508356
0.8920000000000001,0.0201,-1.097,0.02733611242425909,1.12113561966923,0.046779519367190464,0.034015511482657815
0.893,0.0245,-1.097,0.027451972184614738,1.1342456365681273,0.04700543943947022,0.03540308472080384
0.8940000000000001,0.0096,1.903,0.027650108519136088,1.1726966458645616,0.04739179424357911,0.03947276608665501
0.895,-0.0042,-1.097,0.027820998104904782,1.1600212656840683,0.047725019406916314,0.03813119509880538
0.8960000000000001,0.0012,1.903,0.027855889698985413,1.1600212656840683,0.04779305606979612,0.03813119509880538
0.897,-0.0236,0.903,0.027497502591153185,1.1600212656840672,0.04709422119341583,0.03813119509880526
0.8980000000000001,-0.0489,1.903,0.026847309767495806,1.1555160852285824,0.04582638144244838,0.03765436368956619
0.899,-0.026,-0.097,0.026560878103539798,1.1555160852285824,0.04526785566934552,0.03765436368956619
0.9000000000000001,-0.0173,-1.097,0.02649390954449033,1.142272082126108,0.04513727071340841,0.036252609259145745
0.901,-0.0197,-1.097,0.026479282434397233,1.1600212656840663,0.045108748664343806,0.038131195098805165
0.9020000000000001,0.0122,0.903,0.026437385907942885,1.1603935384488375,0.04502705277393472,0.03817059670520055
0.903,0.0167,-0.097,0.026272615953696274,1.15626341189674,0.044705760550831045,0.037733461259987756
0.9040000000000001,0.0128,-0.097,0.025658857007506,1.156636894157213,0.04350896482934832,0.03777299088024309
0.905,0.0165,-0.097,0.02494683017926381,1.161137725914942,0.042120552217343836,0.03824936202030988
0.9060000000000001,0.0198,-2.097,0.024565343977548514,1.1786028363182723,0.041376675395911694,0.04009788136119382
0.907,0.0111,-2.097,0.024561241357977354,1.1914430575544717,0.04136867551651261,0.041456899240165664
0.9080000000000001,0.00859999999999507,-1.097,0.024193887725613056,1.1914430575544717,0.040652356417273876,0.041456899240165664
0.909,-0.0136,-0.097,0.023654556457731006,1.1914430575544728,0.03960069051835763,0.04145689924016578
0.9100000000000001,-0.028400000000000557,1.903,0.022877925747823415,1.191443057554469,0.03808630393945904,0.04145689924016538
0.911,-0.0309,-0.097,0.02168932686876709,1.1870571366945506,0.03576860240232696,0.04099269034884343
0.9120000000000001,0.005800000000003464,-1.097,0.019860792910687576,1.1870571366945504,0.03220306314428576,0.040992690348843404
0.913,0.0214,-1.097,0.0190331708457035,1.1741689538393476,0.030589246266298335,0.039628596179009344
0.9140000000000001,0.026299999999997114,0.903,0.018920603286747467,1.1566368941572092,0.030369745803172598,0.03777299088024269
0.915,0.0133,0.903,0.018908047105694333,1.1562634118967363,0.03034526195025961,0.03773346125998736
0.9160000000000001,-0.014399999999995958,-0.097,0.01867411810508934,1.1521184797182789,0.02988911344310939,0.03729475877706061
0.917,0.0038,-2.097,0.018160622491488844,1.1350069684997142,0.02888782562942969,0.03548366461797429
0.9180000000000001,-0.005900000000004574,-0.097,0.018046303454351886,1.1353874430243909,0.02866490988151468,0.03552393430429957
0.919,-0.0265,0.903,0.01790330648354145,1.135387443024391,0.028386073762036165,0.0355239343042996
0.9200000000000002,-0.03989999999999507,0.903,0.017616294603948684,1.1307841227043243,0.027826416600794806,0.035036715704049294
0.921,-0.0177,-0.097,0.01723975322856884,1.1265454477194716,0.02709218191499015,0.03458809141778501
0.9220000000000002,0.0029000000000029974,-0.097,0.016923525804485754,1.1265454477194716,0.026475556071069967,0.03458809141778501
0.923,0.0164,0.903,0.01654420601146263,1.1311660176095908,0.025735903625787246,0.03507713572443666
0.9240000000000002,-0.015599999999997113,0.903,0.016553920621491382,1.1129567521517572,0.02575484657365049,0.033149854498909635
0.925,-0.0026,-1.097,0.016476515008061143,1.0944445645740286,0.025603909943647647,0.03119051178711222
0.9260000000000002,-0.006500000000000821,1.903,0.016520075325568997,1.0896682941649527,0.025688850133837017,0.030684988030057418
0.927,-0.0102,0.903,0.016493654025582175,1.0852690472530921,0.02563733007213117,0.030219368700199218
0.9280000000000002,-0.01340000000000131,-1.097,0.01650826489302466,1.0852690472530921,0.025665820448932772,0.030219368700199218
0.929,-0.0193,-0.097,0.016510294433951415,1.0804522161152514,0.025669777940571455,0.029709551967613736
0.9300000000000002,0.0013999999999994228,0.903,0.01652720422589136,1.0804522161152514,0.02570275109195362,0.029709551967613736
0.931,-0.0012,0.903,0.01657469519949115,1.0808518948232044,0.025795355842346383,0.02975185423795322
0.9320000000000002,-0.008200000000001444,1.903,0.016639045877413883,1.0812514257921073,0.025920836076061077,0.02979414087148966
0.933,-0.0147,-0.097,0.016639941885927146,1.0812514257921073,0.025922583242699936,0.02979414087148966
0.9340000000000002,-0.004999999999999623,-0.097,0.016667976288485514,1.081251425792107,0.025977248764472678,0.029794140871489638
0.935,-0.0033,-1.097,0.01662438841528282,1.0768177930340588,0.02589225484221489,0.029324882119935104
0.9360000000000002,0.0013999999999996448,0.903,0.016629900600467516,1.081251425792107,0.025903003295962106,0.029794140871489638
0.937,-0.0002,-0.097,0.01666673733079079,1.081251425792107,0.025974832866053035,0.029794140871489638
0.9380000000000002,0.0034000000000030416,0.902999999999778,0.01663943233522521,1.081251425792107,0.025921589647244034,0.029794140871489638
0.9390000000000001,0.0171,-1.096999999999889,0.01665311276750556,1.1215208000414592,0.02594826572736113,0.0340562792391364
0.9400000000000002,0.026000000000001043,-0.09699999999988898,0.01665304205778243,1.1172469818902673,0.02594812784734385,0.03360393537588818
0.9410000000000001,0.0307,0.902999999999667,0.016652157668279034,1.1125686068398815,0.02594640333712634,0.03310877293117223
0.9420000000000002,0.038199999999999734,-2.097000000000111,0.016629430714460696,1.1125686068398815,0.02590208704444995,0.03310877293117223
0.9430000000000001,0.037,-3.096999999999778,0.016696847974206733,1.1082602666083952,0.02603354694172554,0.0326527752271158
0.944,0.0334,-1.096999999999889,0.01688019864394298,1.1222907641938167,0.026391070523961526,0.03413777277651185
0.9450000000000001,0.0166,-0.09699999999988898,0.017151260832096282,1.1086499202983169,0.026919626676260845,0.032694016442626796
0.946,-0.02,0.902999999999889,0.017600547353045615,1.104326292087054,0.027795710339610525,0.03223640064823784
0.9470000000000001,-0.0251,-0.097,0.01764694622981491,1.090064593747963,0.027886185562079842,0.03072693265148042
0.948,-0.011,-0.09699999999988898,0.017488952880765993,1.0852690472530924,0.027578107341243854,0.03021936870019924
0.9490000000000001,0.0019,0.903000000000111,0.016851505248327205,1.0707535496433362,0.026335120002472713,0.02868303841344238
0.95,-0.0021,1.902999999999889,0.01673830141123643,1.0752121885732733,0.026114378832463495,0.029154943835490846
0.9510000000000001,-0.0131,0.902999999999889,0.016648946472269617,1.0752121885732733,0.025940141683966307,0.029154943835490846
0.952,-0.0033,-0.09699999999988898,0.016599944935024848,1.0752121885732733,0.025844591418695818,0.029154943835490846
0.9530000000000001,-0.0005,0.903,0.016695139650288574,1.074810412687733,0.026030215805342354,0.029112419598427877
0.954,0.002,0.903000000000111,0.01665338384177672,1.0792522919154233,0.025948794307074616,0.029582551162021686
0.9550000000000001,0.0042,1.903,0.016606726581318693,1.0792522919154233,0.025857815250819916,0.029582551162021686
0.956,0.0019,1.902999999999889,0.01666998372251048,1.0792522919154233,0.02598116314888557,0.029582551162021686
0.9570000000000001,-0.0078,0.903,0.016556692515922764,1.0800523895042318,0.02576025161322909,0.02966723404311158
0.958,-0.0354,0.903000000000111,0.016574305242192625,1.0666812574174305,0.025794595447358525,0.02825202419323552
0.9590000000000001,-0.0314,1.902999999999778,0.016632656084658907,1.0670860940712255,0.025908376336487775,0.02829487238412334
0.96,-0.0061,-0.097,0.01668335395238041,1.086064712342104,0.026007234351599424,0.030303582442450985
0.9610000000000001,0.0037,1.903,0.01648245465329564,1.086064712342104,0.02561549192065653,0.030303582442450985
0.962,0.0008,0.903,0.016295262353984662,1.104717333361472,0.02525047737496152,0.032277788726649735
0.9630000000000001,0.0034,-0.097,0.016326053842046943,1.1051082362664006,0.025310519059730054,0.03231916215993937
0.964,0.0103,-1.097,0.016523910147386866,1.1051082362664006,0.025696327822549762,0.03231916215993937
0.9650000000000001,0.0168,-0.097,0.016572469218346108,1.104717333361472,0.025791015303235673,0.032277788726649735
0.966,0.0149,-0.097,0.016715902055346073,1.0999856694575638,0.026070701337479595,0.03177698615289282
0.9670000000000001,0.0022,0.903,0.01672780604087819,1.0999856694575638,0.026093913445493437,0.03177698615289282
0.968,0.0068,0.903,0.016827353182755796,1.0864623263736672,0.026288024821342966,0.030345666186016165
0.9690000000000001,0.0053,-0.097,0.016850609653395045,1.0908567609966051,0.02633337364229394,0.030810776179892967
0.97,0.0176,-0.097,0.016689890313974207,1.0904607493062037,0.026019979892235662,0.03076886202922241
0.9710000000000001,0.0063,-1.097,0.01623994693356328,1.0856669526886091,0.02514261538956277,0.03026148328616002
0.972,-0.0014,0.903,0.01614561736472826,1.0856669526886091,0.024958677990211096,0.03026148328616002
0.9730000000000001,-0.0079,-0.097,0.016431306832123547,1.0856669526886091,0.025515756521405912,0.03026148328616002
0.974,-0.0191,-0.097,0.016455590371947593,1.0808518948231962,0.025563108069997214,0.02975185423795235
0.9750000000000001,-0.0176,-0.097,0.016398899810573686,1.076015290284305,0.02545256463641977,0.029239944674950526
0.976,0.0002,-0.097,0.01639819475741073,1.076015290284305,0.025451189822066216,0.029239944674950526
0.9770000000000001,0.007,-0.097,0.016421089120598902,1.0568562237556554,0.025495832553678936,0.027212135848460793
0.978,-0.0042,-0.097,0.01644429672139556,1.0568562237556554,0.025541086081161866,0.027212135848460793
0.9790000000000001,0.0096,-1.097,0.016428591608405922,1.094839135288911,0.02551046198655914,0.03123227342393918
0.98,0.015,0.903,0.016319601625064028,1.094839135288911,0.025297937596393084,0.03123227342393918
0.9810000000000001,0.0164,0.903,0.016401644660542992,1.0948391352889113,0.02545791694080534,0.0312322734239392
0.982,0.015,-0.097,0.016549946585830234,1.1086499202983093,0.025747097425706002,0.032694016442626
0.9830000000000001,0.0115,-0.097,0.016538368818344754,1.090064593747955,0.02572452142469298,0.030726932651479577
0.984,-0.0074,-0.097,0.016475538258522875,1.0944445645740206,0.025602005336512197,0.031190511787111373
0.9850000000000001,-0.0048,-1.097,0.01649207836843042,1.0944445645740204,0.025634257628544883,0.03119051178711135
0.986,0.0119,-1.097,0.016593934593916396,1.0900645937479547,0.025832871588674772,0.030726932651479553
0.9870000000000001,0.0007,-0.097,0.01803125338684188,1.0896682941649447,0.02863556308907148,0.03068498803005657
0.988,0.0104,-3.097,0.0191219864163566,1.0896682941649447,0.0307624316766593,0.03068498803005657
0.9890000000000001,-0.0064,-0.097,0.019381020337184664,1.0892718503999779,0.031267533378378225,0.030643028148315755
0.99,0.0048,-0.097,0.019307238684677364,1.089271850399979,0.031123663270100757,0.030643028148315873
0.9910000000000001,-0.001,-0.097,0.01913389207806441,1.094049851556624,0.030785647053122284,0.03114873508888808
0.992,-0.025,-0.097,0.019229342963660117,1.0940498515566273,0.03097177095763196,0.03114873508888843
0.9930000000000001,-0.0348,1.903,0.019275919727057465,1.0948391352889153,0.03106259304910691,0.031232273423939624
0.994,-0.0318,0.903,0.020114821833383246,1.0584896724244879,0.03269840537872838,0.027385021183105016
0.9950000000000001,-0.0397,-0.097,0.021100536330945205,1.0964159981952144,0.03462049368490831,0.031399169682417356
0.996,-0.0128,-1.097,0.021453417372922865,1.1372879063589123,0.03530859203989391,0.03572508065547487
0.9970000000000001,-0.0019,-0.097,0.02140636340206817,1.1505892818758208,0.035216839420486534,0.037132907421842
0.998,0.0144,-1.097,0.021260686542108075,1.1551136780355402,0.034932777666598504,0.037611772634481455
0.9990000000000001,0.0173,-1.097,0.021272738664266246,1.1551136780355402,0.03495627863277296,0.037611772634481455
1.0,-0.0015,-1.097,0.021333214032021455,1.1885116552712829,0.03507420222775073,0.04114663759902811
1.0010000000000001,0.0151,-1.097,0.021469635316234456,1.175271974422882,0.03534021612502871,0.03974534063896234
1.002,0.0216,-1.097,0.021464418876938625,1.1708254781335194,0.0353300443592738,0.0392747204023741
1.0030000000000001,0.0118,-1.096999999999778,0.02148537930955395,1.1749044159544673,0.035370916034106664,0.039706437996947515
1.004,0.0028,-0.097,0.021579507543756805,1.1749044159544675,0.03555446084215215,0.03970643799694754
1.0050000000000001,-0.0219,-0.09699999999955591,0.021590430391803733,1.1877846186268715,0.035575759786778724,0.04106968753872563
1.006,-0.0037,1.903,0.021615154204445704,1.1749044159544664,0.03562396984281509,0.039706437996947425
1.0070000000000001,-0.0134,0.903,0.021664562324867714,1.1573834971152634,0.03572031292260987,0.03785201185268735
1.008,-0.0163,0.903,0.021665737507499595,1.1528680088273247,0.035722604463213105,0.03737408945534607
1.0090000000000001,-0.0188,1.903,0.021440287540382023,1.1483347648487359,0.035282989598567065,0.03689428778345002
1.01,-0.0119,1.903,0.02142611095122322,1.1304020987797472,0.035255346040203,0.03499628202816904
1.0110000000000001,-0.0185,1.902999999999778,0.02205518000894985,1.1346263663904432,0.03648199562548009,0.03544338142800749
1.012,0.0116,0.903,0.022741267340941358,1.1164735393522889,0.03781982766619851,0.03352207368377756
1.0130000000000001,0.0333,-1.097,0.022956337397652907,1.1117919096919848,0.038239202284343195,0.033026566768901276
1.014,0.0292,-1.097,0.023003225050146292,1.1160866170863595,0.03833063059222004,0.03348112156406736
1.0150000000000001,0.0256,-0.097,0.022980351108562395,1.1117919096919848,0.03828602768159694,0.033026566768901276
1.016,0.0158,-0.097,0.022934035521101875,1.116473539352289,0.038195714868635475,0.03352207368377759
1.0170000000000001,0.0187,-1.097,0.022888744130219275,1.1346263663904435,0.038107399181891106,0.035443381428007514
1.018,0.0107,-1.097,0.022968458829447407,1.1346263663904435,0.03826283840044374,0.035443381428007514
1.0190000000000001,0.0129,-1.096999999999778,0.02326019453809943,1.130019945704988,0.038831706764946954,0.03495583468294436
1.02,0.0107,-0.097,0.023277675650792116,1.1346263663904435,0.03886579395993974,0.035443381428007514
1.0210000000000001,-0.003,-0.097,0.02325438875655373,1.1346263663904435,0.038820385814666895,0.035443381428007514
1.022,-0.0306,-0.097,0.02344442996451287,1.1346263663904432,0.039190955573368866,0.03544338142800749
1.0230000000000001,-0.0186,-0.097,0.023681289118824493,1.1342456365681233,0.03965281771685978,0.03540308472080342
1.024,-0.0076,-0.097,0.02380431178312718,1.1342456365681233,0.03989270505242819,0.03540308472080342
1.0250000000000001,0.0022,-1.097,0.02374369684510495,1.1521184797182886,0.03977450930321225,0.03729475877706164
1.026,0.0109,-0.097,0.023727717120875062,1.1697182646017519,0.03974334973200354,0.03915753215788579
1.0270000000000001,0.0135,0.903,0.02373418039782267,1.1697182646017519,0.03975595276165495,0.03915753215788579
1.028,0.0114,2.903,0.023726924910891335,1.1741689538393574,0.03974180496670939,0.03962859617901038
1.0290000000000001,-0.0041,-0.097,0.023726957611896173,1.178602836318277,0.0397418687318454,0.04009788136119431
1.03,-0.0164,0.903,0.023715906750820605,1.1789692417582573,0.039720320168951065,0.04013666196588374
1.0310000000000001,-0.0221,1.903,0.023680062538934555,1.174536742462646,0.03965042595446927,0.039667523180775946
1.032,-0.0054,-0.097,0.023626292781096774,1.1700874521921372,0.039545577924921416,0.03919660722729453
1.0330000000000001,-0.003100000000001288,-1.097,0.023580366779605635,1.1745367424626458,0.039456024782876686,0.03966752318077592
1.034,-0.0089,-0.097,0.02356698354175964,1.1789692417582573,0.03942992821533483,0.04013666196588374
1.0350000000000001,0.018700000000011527,-0.097,0.023575441742405407,1.183020101010445,0.039446421234959436,0.040565407705357555
1.036,0.0706,-1.097,0.023645002893800875,1.183385138756321,0.039582061601406655,0.04060404355235888
1.0370000000000001,0.06369999999999293,-0.097,0.023774351933086493,1.179335533360457,0.0398342850154291,0.04017543052190387
1.038,0.0318,-1.097,0.02414342908467287,1.1958128921415927,0.04055396488104635,0.041919405549270726
1.0390000000000001,0.0023999999999988674,-1.097,0.024454856912582788,1.158129618766341,0.04116123178005738,0.03793098188326936
1.04,-0.0027,0.903,0.024501048733929914,1.1626246718013284,0.04125130325599902,0.03840674139933224
1.0410000000000001,-0.03610000000000096,0.903,0.02449642653036703,1.1671024124293563,0.041242290216788394,0.03888066855829214
1.042,-0.0404,1.903,0.024542338048133213,1.171563039155683,0.04133181511637708,0.039352784370082626
1.0430000000000001,-0.0683000000000008,0.903,0.02442469702484086,1.1760067467208584,0.04110242168069511,0.03982310944617791
1.044,-0.0719,2.903,0.024489733353637695,1.1629961112212288,0.04122923889538197,0.038446054803931255
1.0450000000000002,-0.04209999999999378,2.903,0.024530542025031014,1.1626246718013287,0.041308813529081535,0.03840674139933227
1.046,-0.0141,1.903,0.024314011955346822,1.1667322802870719,0.040886591967051446,0.03884149351685839
1.0470000000000002,-0.0031999999999963585,0.903,0.02428132555249206,1.1671024124293563,0.04082285530409922,0.03888066855829214
1.048,0.0132,-0.097,0.024287378951318647,1.1671024124293563,0.04083465909426971,0.03888066855829214
1.0490000000000002,0.016200000000001796,-3.097,0.024260353165464814,1.1629961112212284,0.040781960318829705,0.03844605480393121
1.05,0.0243,-1.097,0.02442230541860922,1.1629961112212284,0.04109775818190088,0.03844605480393121
1.0510000000000002,0.012299999999999511,-0.097,0.02557286320249937,1.1629961112212284,0.04334128170465453,0.03844605480393121
1.052,0.0101,-1.097,0.02618927749345322,1.1763739607656785,0.044543255200362515,0.03986197563416174
1.0530000000000002,-0.020099999999997113,0.903,0.026188456185364316,1.1723001361361376,0.04454165369538581,0.039430799223296356
1.054,-0.0071,1.903,0.026163181094263493,1.1723001361361394,0.04449236867709433,0.03943079922329654
1.0550000000000002,-0.0111000000000008,0.903,0.026368293980740014,1.1763739607656802,0.04489232736849883,0.039861975634161925
1.056,-0.0147,-0.097,0.026535244280059316,1.17637396076568,0.045217871142916845,0.039861975634161904
1.0570000000000002,0.008200000000001933,-0.097,0.026741267455436674,1.1588752600400876,0.045619604846919695,0.03800990107038306
1.058,0.0169,-0.097,0.027291148558869573,1.1932542459876412,0.04669184233689457,0.0416485966741573
1.0590000000000002,0.03050000000000493,-0.097,0.027757565690629416,1.1932542459876412,0.047601329736111024,0.0416485966741573
1.06,0.0527,-1.097,0.027721930005314876,1.180067775475504,0.04753184213681609,0.04025293153281166
1.0610000000000002,0.055599999999994626,-0.097,0.027747465849118753,1.1626246718013304,0.04758163560833881,0.03840674139933246
1.062,0.0314,-0.097,0.02771083923265453,1.1490867620111767,0.04751021574855695,0.036973879682210456
1.0630000000000002,0.015099999999996715,-1.097,0.027695974575715536,1.1445385415144627,0.04748123049638861,0.03649249288529806
1.064,0.0003,-0.097,0.027501968133389638,1.1581296187663468,0.04710292875177544,0.037930981883269974
1.0650000000000002,0.008299999999997358,0.903,0.027353442484211628,1.1581296187663468,0.04681331201776278,0.037930981883269974
1.066,-0.0036,1.903,0.027238249715257234,1.1626246718013342,0.046588692541523605,0.03840674139933285
1.0670000000000002,-0.019200000000004016,0.903,0.027196964124855907,1.1667322802870774,0.04650818794235174,0.03884149351685898
1.068,-0.0373,-0.097,0.027166242071338564,1.1793355333604627,0.04644828165107411,0.04017543052190448
1.0690000000000002,-0.010400000000000822,0.903,0.027229224405184212,1.1752719744228923,0.046571093690138225,0.03974534063896344
1.07,-0.0141,-0.097,0.027214599105614717,1.171194316704604,0.0465425751714937,0.03931375853133912
1.0710000000000002,-0.030400000000000666,-1.097,0.027195116514326167,1.175271974422894,0.04650458520484267,0.039745340638963636
1.072,-0.0334,-1.097,0.027195116514326163,1.1925301007095968,0.04650458520484267,0.04157195263806695
