time_sec,bts_raw,diy_raw,bts_rms,diy_rms,bts_norm_rms,diy_norm_rms
0.0,0.011,-0.372,0.022315896048750953,1.2319919999629212,0.059277746341227504,0.02902126690442794
0.0010000000000000009,-0.0112,-0.372,0.02234855740754446,1.2336598325674464,0.05938044646872092,0.029128726560753312
0.0020000000000000018,-0.0026,1.628,0.022166963897752478,1.3180783803173886,0.058809445221481904,0.03456787441293142
0.0030000000000000027,0.0325,1.628,0.022061004208344986,1.367449895212568,0.05847626638222689,0.03774891668809989
0.0040000000000000036,0.0564,2.628,0.022070803159185966,1.377264297565134,0.05850707812851806,0.03838126570261379
0.0050000000000000044,0.0433,0.628,0.022078603128339737,1.4176274193924203,0.058531604292037506,0.040981890722181696
0.006000000000000005,0.0154,1.628,0.021993069329273925,1.4831225910779684,0.05826265246659167,0.045201791820891714
0.007000000000000006,-0.0028,1.628,0.02198083903187149,1.4893334229975144,0.058224195612715704,0.045601960196158045
0.008000000000000007,-0.0326,1.628,0.022475173137941295,1.5518051310683654,0.059778576005726336,0.04962705735587197
0.009000000000000008,-0.0526,-0.372,0.02251612330842469,1.587737295548523,0.05990733940948154,0.05194219260121257
0.010000000000000009,-0.0563,-0.372,0.022391893775663134,1.5935404432794933,0.059516713014121786,0.05231609359048659
0.01100000000000001,-0.0661,-3.372,0.02231582863575572,1.6109025836921527,0.05927753436831943,0.05343474880609702
0.01200000000000001,-0.0574,-2.372,0.022594076902138386,1.6688296060708734,0.06015245609502978,0.05716702859237784
0.013000000000000012,-0.0169,-3.3719999999999963,0.02290378608305989,1.6743517189617994,0.06112630328147456,0.057522822304431905
0.014000000000000012,0.0125,-1.372,0.023179761744915442,1.6747359607994976,0.061994079047842224,0.057547579282867786
0.015000000000000013,0.0176,1.628,0.023215704999638275,1.6827591235306778,0.06210709874386593,0.058064517438049496
0.016000000000000014,0.0224,-0.372,0.023379371287987866,1.6907442140242426,0.0626217297727262,0.05857900257153191
0.017000000000000015,0.0267,2.628,0.023392665502291424,1.6911247313137898,0.06266353199879193,0.05860351957464701
0.018000000000000016,0.0148,3.6279999999999863,0.023393986066191086,1.6965742782303412,0.06266768436984654,0.05895463780869084
0.019000000000000017,-0.0033,-0.372,0.023323970410348557,1.6977857862729635,0.062447527675600495,0.05903269614472671
0.020000000000000018,-0.0001,-1.372,0.023293911940574872,1.6981647257186767,0.06235301205248967,0.059057111486226804
0.02100000000000002,-0.0087,-0.372,0.02341196155543531,1.6993750999096373,0.06272420636113325,0.05913509676738322
0.02200000000000002,-0.0493,-0.372,0.023384874314236054,1.7072824779817803,0.06263903344649133,0.059644574833564314
0.02300000000000002,-0.0319,-2.372,0.023372615342583405,1.727592725143095,0.06260048642952168,0.06095317869099973
0.02400000000000002,-0.0054,-2.372,0.023277644068918912,1.7476669557759228,0.06230185948092411,0.06224657583346299
0.025000000000000022,-0.0101,1.628,0.023277741245972573,1.7553568063905982,0.0623021650437105,0.06274203844883842
0.026000000000000023,0.0117,0.6279999999999931,0.02326100554374583,1.763013115995601,0.06224954142926614,0.06323533999279551
0.027000000000000024,0.0477,-1.372,0.023147706988688725,1.7633780385320676,0.061893286316833475,0.06325885221473415
0.028000000000000025,0.0618,-0.372,0.023164228614492955,1.7686049676139861,0.06194523679100757,0.06359562702130411
0.029000000000000026,0.0223,3.628,0.023168423718726162,1.7842644202156577,0.06195842784476386,0.06460457683452481
0.030000000000000027,0.0488,3.628,0.022919265231202485,1.7846249972619461,0.061174975796840024,0.06462780907340049
0.031000000000000028,0.025,0.628,0.022912946702609762,1.7849855014696576,0.061155107863722295,0.06465103661923417
0.03200000000000003,0.0033,0.628,0.022903735119963856,1.7853459328829158,0.06112614303350406,0.0646742594748688
0.03300000000000003,-0.0006,3.628,0.02287416195109587,1.7857062915457995,0.0610331533868599,0.06469747764314436
0.03400000000000003,0.0031,0.628,0.02286312147929935,1.7860665775023439,0.06099843781154478,0.06472069112689811
0.03500000000000003,-0.0066,-1.372,0.02286363276474923,1.7864267907965385,0.061000045493613986,0.06474389992896432
0.03600000000000003,0.0022,-2.371999999999986,0.022738847462990864,1.7915864767203635,0.060607671542459315,0.06507634221041195
0.03700000000000003,-0.0003,-0.372,0.022752724301263995,1.7927337778055579,0.060651305766891504,0.06515026364592184
0.038000000000000034,-0.0169,-1.372,0.02278874837395562,1.8120865217833069,0.06076457958631991,0.06639717488339214
0.039000000000000035,-0.0104,-0.372,0.022775782051827342,1.8195041335098532,0.060723808381909404,0.06687509695106669
0.040000000000000036,0.0118,0.628,0.022757724605858714,1.8268916282281662,0.060667028686523544,0.06735107855820252
0.041000000000000036,-0.0088,-0.372,0.02273379877892321,1.828016771205303,0.060591796498781554,0.06742357233084612
0.04200000000000004,-0.0008,0.628,0.02271534942328791,1.843171534498759,0.060533784485628774,0.06840000464832725
0.04300000000000004,0.0062,0.628,0.022723009122324365,1.8442867456293803,0.060557869584861125,0.0684718585049443
0.04400000000000004,-0.0002,0.628,0.02298267173245875,1.863104066993561,0.06137435071581076,0.06968427207766889
0.04500000000000004,-0.0099,-1.372,0.02301735602466707,1.8779757065059697,0.0614834117397055,0.07064246252595625
0.04600000000000004,-0.0153,1.628,0.023092202425480747,1.8927304995707246,0.06171875819159642,0.07159312447343745
0.04700000000000004,-0.0137,-0.372,0.02298411444234063,1.8930704169707815,0.06137888716176029,0.07161502559642186
0.04800000000000004,0.0063,-0.372,0.023026839641452673,1.8934102733466438,0.061513231951997885,0.07163692278757346
0.049000000000000044,-0.0016,-1.372,0.02301810038063359,1.90051050842802,0.061485752286929686,0.07209439604934079
0.050000000000000044,0.0151,0.628,0.02300577746268572,1.9824680733187408,0.06144700419771704,0.07737498100284607
0.051000000000000045,0.0087,4.627999999999993,0.02299297054282187,2.0904443800587575,0.06140673421657109,0.08433197223930676
0.052000000000000046,0.0029,3.6279999999999863,0.02320539935640179,2.30178453710364,0.062074693757870704,0.09794877082099572
0.05300000000000005,0.0083,1.628,0.023321205239420776,2.2968209813427776,0.06243883289322418,0.09762896534725278
0.05400000000000005,-0.0163,-3.372,0.023095636444086128,2.3320450276223865,0.06172955609350911,0.09989847602675732
0.05500000000000005,0.0164,-4.372,0.022500454277045525,2.431086107427731,0.059858069826715175,0.10627976415429452
0.05600000000000005,0.0035,-1.372,0.022156651380158387,2.469018527099995,0.058777018619809045,0.10872377728277735
0.05700000000000005,0.0474,-4.372,0.02235586240128548,2.474823377033391,0.05940341623532752,0.10909778794618004
0.05800000000000005,0.0181,-3.372,0.022364979403996836,2.5268503523398125,0.05943208366912088,0.1124499234488124
0.05900000000000005,-0.0084,-1.372000000000007,0.02216358270547166,2.5251725482391856,0.05879881342626129,0.11234182132180907
0.06000000000000005,-0.0225,-2.372,0.021533648896900588,2.525172548239186,0.0568180543628777,0.1123418213218091
0.061000000000000054,-0.0356,-4.372,0.020786691538889113,2.5251725482391856,0.054469327343131854,0.11234182132180907
0.062000000000000055,-0.0396,-1.372,0.019718141833308712,2.5064212072608263,0.05110938779836388,0.11113365891287955
0.06300000000000006,-0.0359,-0.372,0.018876101380350934,2.498994338352898,0.04846168222003476,0.11065514039833907
0.06400000000000006,-0.013,1.628,0.018959054632851195,2.476580103259107,0.048722519794540814,0.10921097508256351
0.06500000000000006,-0.0277,1.628,0.019036418712417305,2.476580103259107,0.04896578281629941,0.10921097508256351
0.06600000000000006,-0.0087,-0.372,0.018996558575026475,2.4713959897258175,0.04884044690428717,0.10887695891263885
0.06700000000000006,0.0033,-1.372,0.01886914262952178,2.471967550949217,0.04843980117699956,0.10891378501405262
0.06800000000000006,0.0056,0.628,0.01894817436692999,2.4632901043183795,0.048688307969358205,0.10835469087582701
0.06900000000000006,0.0038,-0.372,0.01895966133743809,2.450504581330106,0.04872442751181672,0.10753091041816462
0.07000000000000006,0.0241,0.628,0.019375360297156332,2.4557327975465637,0.050031548150362565,0.1078677681557403
0.07100000000000006,-0.0056,1.6280000000000137,0.01956329422070316,2.452809499894337,0.05062248614625617,0.10767941798187228
0.07200000000000006,-0.0017,2.628,0.019564643387186418,2.4580328135722564,0.0506267284550565,0.10801595984535782
0.07300000000000006,0.002,2.628,0.01893942331674427,2.463245051233023,0.04866079123389546,0.1083517880730783
0.07400000000000007,-0.0013,1.628,0.018690224586744006,2.452188217133834,0.047877212647835156,0.10763938828600031
0.07500000000000007,-0.0042,1.628,0.018685570932934662,2.4410813018160713,0.04786257973428886,0.1069237617299278
0.07600000000000007,0.003800000000000766,-0.372,0.01871285714468657,2.4410813018160717,0.047948378290419064,0.10692376172992783
0.07700000000000007,0.010699999999997557,-1.372,0.019041796373770063,2.4440186276397347,0.04898269229364346,0.10711301574898828
0.07800000000000007,-0.011299999999999744,-2.372,0.01856711338905513,2.4440186276397347,0.047490102736748786,0.10711301574898828
0.07900000000000007,-0.008999999999998912,-0.372,0.017983695428962717,2.4440186276397347,0.0456556077525612,0.10711301574898828
0.08000000000000007,0.0007999999999998113,-0.372,0.017868722824837615,2.417591931553164,0.045294088773006516,0.10541032468060833
0.08100000000000007,-0.0008999999999998445,-0.372,0.017317630942875993,2.417591931553164,0.04356123966235358,0.10541032468060833
0.08200000000000007,0.0005000000000004663,-0.372,0.017317630942875993,2.460904810666806,0.04356123966235358,0.1082010046873344
0.08300000000000007,0.0047000000000001225,-0.372,0.01731440506333993,2.46553805934446,0.043551096231343046,0.10849952823773137
0.08400000000000007,0.0057999999999995885,-0.372,0.017317953797062958,2.4771504683349184,0.04356225484259678,0.1092477241153264
0.08500000000000008,0.0021000000000013543,-1.372,0.017470506200009603,2.4875285200441124,0.04404193945495779,0.10991638946397775
0.08600000000000008,0.014299999999999834,0.6280000000000278,0.01746582872088723,2.4949895196412823,0.04402723162527892,0.11039710704341606
0.08700000000000008,0.012800000000000844,2.6279999999999863,0.01747056224776124,2.5064212072608267,0.04404211569108058,0.11113365891287957
0.08800000000000008,0.020399999999999592,1.628,0.01747141939748452,2.511533025471267,0.044044810906133276,0.11146301704306678
0.08900000000000008,0.0166999999999979,1.628,0.017428982646004784,2.508111555123869,0.04391137310843082,0.11124256924353268
0.09000000000000008,-0.0022000000000039193,0.628,0.017405556898294375,2.5217255754115917,0.043837713365990294,0.11211973037910228
0.09100000000000008,-0.03749999999999517,-2.372,0.017365853595712747,2.5245690736953286,0.043712870604155976,0.11230293902216579
0.09199999999999997,0.006,0.628,0.017455910501021334,2.5279682697664287,0.04399604485037543,0.1125219516740302
0.09299999999999997,-0.0351,2.628,0.017591991276445562,2.530804754049557,0.04442393620277836,0.11270470839998115
0.09399999999999997,0.0127,-2.372,0.01759234948407622,2.533638062804907,0.04442506254812027,0.1128872605243895
0.09499999999999997,0.0187,-2.372,0.017607683630091363,2.533638062804907,0.044473279119902065,0.1128872605243895
0.09599999999999997,0.0012,-0.372,0.017655970898262114,2.5308047540495564,0.04462511323766788,0.11270470839998112
0.09699999999999998,-0.0144,-0.372,0.01775771967681455,2.525731940110391,0.044945051320945416,0.11237786334309335
0.09799999999999998,-0.0003,1.628,0.01770578466602999,2.5308047540495564,0.04478174726912481,0.11270470839998112
0.09899999999999998,0.004,5.628,0.017756606969906556,2.5308047540495564,0.04494155253383015,0.11270470839998112
0.09999999999999998,0.0079,6.628,0.017766585072346464,2.532478826734567,0.04497292760304265,0.11281257010918791
0.10099999999999998,0.0332,9.628,0.01772347973664189,2.532478826734567,0.04483738751420269,0.11281257010918791
0.10199999999999998,0.0233,0.6279999999999306,0.017735704287133305,2.490411064103036,0.04487582629753547,0.11010211385446769
0.10299999999999998,-0.0036,-4.372000000000042,0.017733254193212665,2.467391353969153,0.04486812224089743,0.10861893734563516
0.10399999999999998,-0.0218,-7.371999999999958,0.017740933002556282,2.4656730904365,0.044892267430433876,0.10850822838827674
0.10499999999999998,-0.0186,-4.372,0.01775533231389476,2.4464657485296444,0.04493754451518801,0.10727068551099128
0.10599999999999998,-0.0336,-2.372,0.017688303269320135,2.407591410181716,0.044726778898634904,0.10476598388361552
0.10699999999999998,0.0069,-5.372,0.017686170576357664,2.4040220118155746,0.04472007287514902,0.10453600497525672
0.10799999999999998,0.0127,-1.372,0.01703804652758219,2.3644499514571824,0.042682116559197396,0.10198634861606215
0.10899999999999999,-0.003,-0.372,0.01694545082378237,2.3444134538881807,0.042390959334364646,0.10069538264208658
0.10999999999999999,0.0016,-0.372,0.016925334202738094,2.3413511724211604,0.04232770478457554,0.10049807764089838
0.11099999999999999,0.0058,-1.372,0.016778950245700155,2.3413511724211604,0.041867416186485255,0.10049807764089838
0.11199999999999999,-0.0063,-1.372,0.016406778103832606,2.31248268802687,0.04069716094202514,0.09863806039262783
0.11299999999999999,-0.0245,-0.372,0.01592308672286231,2.320506571313893,0.03917624545264902,0.09915504497374165
0.11399999999999999,-0.0213,-1.372,0.015521878545434986,2.3242042321185856,0.037914689519422555,0.09939328792342494
0.11499999999999999,-0.0127,-0.372,0.015471400399313813,2.3186794609803028,0.0377559664217385,0.0990373229385785
0.11599999999999999,-0.0047,0.628,0.015239612258374348,2.3278960195173934,0.03702713355913643,0.0996311524453355
0.11699999999999999,0.0318,1.628,0.015219677752954233,2.3278960195173934,0.036964451652327,0.0996311524453355
0.118,0.0162,2.6279999999999863,0.015316881517138817,2.3480734673043964,0.03727009842708952,0.10093119994340667
0.119,0.04,1.6279999999999861,0.015306812458523906,2.347471740606449,0.03723843735597401,0.10089243025873461
0.12,0.027,0.628,0.015302324855157015,2.347471740606449,0.037224326570172564,0.10089243025873461
0.121,-0.009,1.628,0.015118317009512359,2.346869859628534,0.03664573370369171,0.10085365063369307
0.122,-0.0043,1.628,0.015173337005114484,2.3413985709841927,0.03681873815824455,0.10050113156446358
0.123,0.0087,-0.372,0.015201234120892656,2.3267296713343746,0.03690645763633578,0.09955600379159
0.124,-0.0034,-0.372,0.015235718111748937,2.312578667557437,0.0370148888341868,0.09864424442293222
0.125,-0.0143,1.628,0.015238262638906716,2.3070260561631497,0.03702288982597549,0.09828648567033346
0.126,-0.0372,-1.372,0.015258875773921678,2.3020738017932176,0.03708770561050729,0.09796740835335044
0.127,-0.0223,-1.372,0.015293972612839811,2.302687391682965,0.037198063843130014,0.09800694239201718
0.128,-0.0412,-0.372,0.015296836649440149,2.2989551232524557,0.037207069497973096,0.09776646964806891
0.129,-0.0094,0.628,0.015405462503507055,2.287721784541941,0.037548631805049255,0.09704269754171772
0.13,0.0211,3.628,0.015398458294205422,2.288339222751029,0.03752660782273989,0.09708247953037216
0.131,0.025,4.628,0.015534722777687266,2.2920887773966707,0.037955076825358106,0.09732406603761555
0.132,-0.0003,1.628,0.015534587914637965,2.306977951391564,0.037954652763014435,0.09828338624524238
0.133,-0.0036,-4.372,0.01564483274131273,2.318727322990089,0.03830130575521141,0.09904040672235195
0.134,0.0232,-2.372,0.015639231456495598,2.3193365071273724,0.038283693117951476,0.09907965689521327
0.135,0.0051,-2.372,0.015679406395172315,2.3230360303664646,0.03841001888872618,0.09931801984288675
0.136,-0.0047,-3.372,0.01568512896624742,2.3230360303664646,0.03842801289757067,0.09931801984288675
0.137,-0.0018,1.628,0.015709976230768693,2.322427816632363,0.038506142446629865,0.09927883219380158
0.138,0.0116,-0.372,0.01566751785123692,2.3082504399743393,0.03837263664184554,0.09836537360141469
0.139,-0.0051,2.628,0.015724682324775544,2.3144585444526027,0.03855238417646672,0.09876536624567415
0.14,0.0015,-1.372,0.01576321096915031,2.312626655828953,0.03867353335199408,0.0986473363418399
0.14100000000000001,0.0197,-1.372,0.015843237088728493,2.3157269224639965,0.03892516687206419,0.09884708875477081
0.14200000000000002,0.0218,-1.372,0.015519180027701501,2.328039034146884,0.037906204320842046,0.09964036698095069
0.14300000000000002,0.0063,-1.3719999999999446,0.015538617188705313,2.331118803211351,0.03796732238166193,0.09983879872064158
0.14400000000000002,-0.0074,0.628,0.015154126542024957,2.316384806103353,0.0367583329246174,0.09888947667163703
0.14500000000000002,-0.0164,0.628,0.01527081796059787,2.310181878034398,0.03712525653121297,0.09848981754715871
0.14600000000000002,-0.0244,-0.372,0.015743991543697235,2.313237446559178,0.03861309993717935,0.09868669002864193
0.14700000000000002,-0.0015,1.628,0.015774915428318513,2.318775184011952,0.038710336764136724,0.0990434904424728
0.14800000000000002,0.0148,-0.372,0.015712680430044274,2.319384355578583,0.038514645510208015,0.09908273980539792
0.14900000000000002,0.0061,1.628,0.01571289160496685,2.3144585444526027,0.038515309527024005,0.09876536624567415
0.15000000000000002,0.0087,0.628,0.0157508226242088,2.2487641738516153,0.038634579534641625,0.09453263061732643
0.15100000000000002,0.0109,0.628,0.01573760457065913,2.1527509912422285,0.03859301678786957,0.08834643208762018
0.15200000000000002,-0.0002,-1.372,0.015400819831803024,1.9258525166993552,0.037534033423551154,0.073727199900305
0.15300000000000002,-0.0099,-1.372,0.01525654437324236,1.9251188226091978,0.037080374771992025,0.07367992746147489
0.15400000000000003,0.0177,-1.372,0.015273637344863434,1.8800422298191264,0.03713412178159515,0.07077561011188165
0.15500000000000003,0.0057,-0.372,0.015121290264990612,1.731231430285223,0.03665508278554153,0.06118762308486848
0.15600000000000003,0.0022,-0.372,0.015033180744516305,1.6758472498588552,0.03637803188134296,0.0576191804376076
0.15700000000000003,-0.0011,-0.372,0.014654085504648858,1.660403658632003,0.03518600770033205,0.056624138728287185
0.15800000000000003,-0.0039,-1.372,0.014683072280678701,1.571962939818757,0.03527715349780817,0.05092583949666501
0.15900000000000003,-0.0013,0.628,0.014645543749946916,1.571962939818756,0.03515914907199227,0.05092583949666495
0.16000000000000003,-0.0033,-2.372,0.014901319968197279,1.5801007417217616,0.03596340986194196,0.05145016393628094
0.16100000000000003,-0.0054,-2.372,0.01490070639304565,1.580994556885848,0.0359614805409147,0.051507753091265984
0.16200000000000003,0.0005,-2.372,0.014987675731653183,1.575553624544622,0.03623494626594716,0.05115718990051688
0.16300000000000003,-0.0049,-1.372,0.014974787193534834,1.5700938375551678,0.036194419644984245,0.05080541189119831
0.16400000000000003,-0.0034,-0.372,0.014778131658193196,1.5782412770406016,0.03557605747947975,0.051330357287193686
0.16500000000000004,0.0072,2.628,0.014792890539710233,1.5727908199972958,0.035622465193961034,0.050979180413027354
0.16600000000000004,0.0037,-0.372,0.0147491698410369,1.5782412770406016,0.035484990162495254,0.051330357287193686
0.16700000000000004,0.0175,-3.372,0.014742148183875283,1.5773459017101263,0.03546291131726802,0.05127266760956415
0.16800000000000004,0.001,-0.372,0.014434019798948636,1.569193813337185,0.0344940347736933,0.0507474226823973
0.16900000000000004,-0.0011,-0.372,0.01439702668423181,1.5527612450610773,0.0343777139059114,0.04968866046926953
0.17000000000000004,0.0048,-0.372,0.013830536149980336,1.5444793991302028,0.03259644539043845,0.049155055169159204
0.17100000000000004,0.014,-0.372,0.013585513682800025,1.543564439673503,0.0318259986133383,0.04909610367216734
0.17200000000000004,0.0093,-0.37199999999997224,0.0135848801727542,1.54081630140829,0.03182400660918177,0.04891903914380091
0.17300000000000004,-0.0105,0.6279999999999722,0.013580626841087727,1.5324699034106632,0.0318106324655284,0.048381274707522195
0.17400000000000004,0.003,-0.37199999999997224,0.013556062873630568,1.533391482881167,0.03173339371359699,0.04844065273677295
0.17500000000000004,-0.009,0.628,0.013564975298576169,1.5417328917807194,0.03176141787462396,0.04897809572186825
0.17600000000000005,-0.0111,0.628,0.013491348685142008,1.5389814829488648,0.03152990691286629,0.04880082046853679
0.17700000000000005,0.0111,-0.372,0.013004223423049317,1.5389814829488648,0.029998193953877938,0.04880082046853679
0.17800000000000005,-0.0215,0.628,0.01281251611464798,1.5510121114763964,0.029395390955426114,0.049575962532218174
0.17900000000000005,-0.0077,0.628,0.012148355055555489,1.5519226800519048,0.02730700798654238,0.049634631121571404
0.18000000000000005,-0.0206,-1.372,0.012115450809288497,1.5565388318424478,0.02720354412552976,0.049932053107214096
0.18100000000000005,-0.0006,2.628,0.011929435818770347,1.5147068463218878,0.02661864000801649,0.047236788141622986
0.18200000000000005,-0.0186,-2.372,0.01167760258706878,1.4422931934004652,0.02582677751489904,0.04257112431235869
0.18300000000000005,-0.0023,0.628,0.011682975971747972,1.4343584701239416,0.025843673544703346,0.04205988437495807
0.18400000000000005,0.0126,-1.372,0.011687646669240936,1.391819767501316,0.02585836005027843,0.0393190851173156
0.18500000000000005,0.0047,-1.372,0.011455211177858133,1.3721563814060889,0.025127491663879446,0.038052158984409265
0.18600000000000005,0.0168,-0.372,0.01156122616645213,1.352207086529089,0.02546084438547476,0.03676681154270589
0.18700000000000006,0.0056,0.628,0.011552189223120542,1.3113983927516293,0.025432428689784556,0.03413747800136911
0.18800000000000006,-0.0245,-2.372,0.011585500803857231,1.3081626197734375,0.025537173370197095,0.03392899481712149
0.18900000000000006,-0.0201,-1.372,0.011531927780310008,1.3081626197734375,0.02536871876353813,0.03392899481712149
0.19000000000000006,-0.0161,-1.372,0.01157666184277952,1.288405099384675,0.025509380208396038,0.03265600354386216
0.19100000000000006,-0.0197,-3.372,0.011778215734514883,1.302751804914281,0.02614314472838689,0.03358037211744073
0.19200000000000006,-0.0099,-1.372,0.011752442856671623,1.3027518049142808,0.026062104687857367,0.033580372117440714
0.19300000000000006,-0.007,-0.372,0.011567818212537405,1.2972328761766143,0.02548157236491004,0.033224783562675234
0.19400000000000006,0.0227,1.628,0.01155318539725677,1.3004958438120844,0.025435561052141033,0.033435018918284105
0.19500000000000006,0.0426,2.628,0.01159572886266234,1.3004958438120844,0.025569334400298013,0.033435018918284105
0.19600000000000006,0.0099,1.628,0.011494810146752741,1.320156481267828,0.025252006359664014,0.03470176795436822
0.19700000000000006,-0.0032,0.628,0.011306117121500144,1.3212261615433107,0.024658681450156192,0.03477068822518529
0.19800000000000006,0.0008,0.628,0.011306254169497635,1.3320423530407735,0.024659112382834282,0.035467583236059384
0.19900000000000007,0.0116,-1.372,0.011213295854527672,1.3416362025975728,0.024366814966203652,0.03608572187504137
0.20000000000000007,-0.0047,-1.372,0.011323958750083692,1.3320423530407735,0.024714782531002368,0.035467583236059384
0.20100000000000007,-0.007600000000000289,0.628,0.01129177653952061,1.3320423530407735,0.024613589033550404,0.035467583236059384
0.20200000000000007,-0.010199999999999768,-0.372,0.011245843221564087,1.3309813655274754,0.02446915665888544,0.03539922304617271
0.20300000000000007,-0.008099999999998756,-1.372,0.011248498294402498,1.3255799731466293,0.02447750524966922,0.03505120744355806
0.20400000000000007,0.0031000000000006326,0.6279999999999722,0.011210314419857871,1.3255799731466291,0.0243574401657663,0.035051207443558045
0.20500000000000007,0.008799999999998991,-0.37199999999997224,0.011083274667104593,1.3255799731466291,0.02395797733609715,0.035051207443558045
0.20600000000000007,-0.0003000000000012545,0.6279999999999722,0.011068746825666111,1.3320423530407735,0.023912296102276808,0.035467583236059384
0.20700000000000007,-0.011599999999999522,-0.37200000000002775,0.011099423406734213,1.333102496137269,0.024008755309827674,0.035535889019563095
0.20800000000000007,-0.007300000000002265,-1.3719999999999168,0.011165215346566528,1.334161796829918,0.024215630983664034,0.03560414052638004
0.20900000000000007,-0.027699999999997036,1.628,0.011178988481309868,1.328773332794751,0.024258939123508058,0.035256957906391925
0.21000000000000008,-0.0009999999999979906,0.628,0.011275207818913132,1.3373346644948256,0.02456149047483615,0.035808570675971665
0.21100000000000008,0.01709999999999817,-0.372,0.011341315441991762,1.3233629282145187,0.024769358780664618,0.034908361641277835
0.21200000000000008,0.000600000000000322,-0.372,0.011332533482806216,1.302666614909026,0.02474174485517855,0.03357488326402569
0.21300000000000008,0.003500000000002076,1.628,0.011454036303959459,1.302666614909026,0.025123797399352815,0.03357488326402569
0.21400000000000008,0.02219999999999815,-0.372,0.011916979929488168,1.2960577705147092,0.026579473804754363,0.03314907065825562
0.21500000000000008,0.005499999999999278,-1.372,0.012310251692090103,1.2960577705147092,0.02781607453573217,0.03314907065825562
0.21600000000000008,-0.0010000000000010881,-0.372,0.012826567935848982,1.2761128495785503,0.029439575394842165,0.03186400503271192
0.21700000000000008,-0.0108000000000002,-0.372,0.012853677271429846,1.297232876176615,0.02952481778288911,0.033224783562675275
0.21800000000000008,-0.012599999999998357,-1.372,0.01301126138917224,1.2603428124361595,0.03002032408087872,0.030847930177860337
0.21900000000000008,0.00219999999999889,-0.372,0.013962011295299462,1.2872219348653675,0.03300985483466445,0.03257977140145399
0.22000000000000008,-0.0077999999999981565,-0.372,0.014258637705338802,1.2971473237163833,0.03394256465612511,0.033219271356024954
0.22099999999999997,0.0088,-1.372,0.01446717707016389,1.3069973409500917,0.0345982942444235,0.03385391506299016
0.22199999999999998,-0.0026,-0.372,0.014468151771349927,1.3080777821535035,0.03460135908739917,0.03392352866814657
0.22299999999999998,0.0031,0.628,0.014439495706384652,1.3091573316743277,0.034511253175272254,0.03399308482155143
0.22399999999999998,-0.006,1.628,0.01441014287640508,1.31462620134037,0.03441895636054837,0.034345448034266333
0.22499999999999998,0.0019,-1.372,0.014431680286188964,1.3157003778078156,0.03448667842761444,0.034414657997970916
0.22599999999999998,0.0094,-1.372,0.014408038636347504,1.3146262013403702,0.034412339804159635,0.03434544803426635
0.22699999999999998,0.0002,-2.372,0.014400021306901734,1.3146262013403702,0.034387130174595756,0.03434544803426635
0.22799999999999998,-0.006,0.628,0.014356776940286045,1.3243462232651426,0.034251152918019216,0.034971716049819676
0.22899999999999998,-0.0028,-1.372,0.01422448770296735,1.3232790651119775,0.03383518364911857,0.034902958281160634
0.22999999999999998,-0.0004,0.628,0.014256622974681743,1.3318757145757432,0.033936229552412704,0.03545684659970022
0.23099999999999998,0.0057,-0.372,0.014114157305155162,1.3264779639717659,0.033488261587689715,0.035109065639393
0.23199999999999998,0.0035,0.628,0.014114602840295715,1.3426061147725257,0.03348966252498772,0.03614821401526182
0.23299999999999998,-0.0049,2.628,0.014223529181798542,1.3222110456544416,0.033832169682465676,0.03483414501804045
0.23399999999999999,-0.0017,-0.372,0.014511392240615633,1.3276261444490207,0.03473732408917815,0.03518304373476692
0.235,-0.0165,-0.37199999999997224,0.014595870052087895,1.330814594210487,0.03500295547528848,0.03538847785006617
0.236,-0.0009,0.6279999999999445,0.014603275196087393,1.3254125221943769,0.035026240153604025,0.0350404184580618
0.237,0.0089,-1.3719999999999724,0.014515587036993925,1.3509976531173917,0.03475051417491779,0.03668888687663522
0.238,0.0034,-0.37200000000002775,0.014598713184956423,1.3562978245586996,0.03501189540059668,0.03703038074118924
0.239,0.0113,-1.3720000000000279,0.014806146692032285,1.3456766062300156,0.03566414773822241,0.03634604799205099
0.24,0.0217,-2.372,0.014672557221386759,1.3646051693463581,0.035244090025565306,0.0375656289510132
0.241,0.0181,-1.372,0.014602051255278466,1.3593373893308598,0.03502239160345901,0.037226222089361
0.242,0.0068,0.628,0.014477043636856908,1.3187493612073933,0.03462931860148413,0.034611106195092986
0.243,0.0025,1.628,0.0145269544089968,1.312221518112672,0.03478625765274861,0.0341905125614145
0.244,-0.0124,0.628,0.014510473980918804,1.312221518112672,0.034734436720390685,0.0341905125614145
0.245,0.0058,-2.372,0.014332760736016232,1.3024110114598582,0.034175636548476496,0.03355841454964235
0.246,0.0127,0.628,0.013691671425675758,1.2758519263742316,0.03215980021040836,0.0318471935626715
0.247,0.0015,-2.372,0.013657834894709685,1.272525769206182,0.03205340488049816,0.03163288685995265
0.248,0.0033,1.628,0.0136602156485042,1.2714151164669893,0.032060890904572446,0.031561326703779514
0.249,-0.017,-0.372,0.013731999124743613,1.2714151164669893,0.03228660631979191,0.031561326703779514
0.25,0.0019,0.628,0.01368504669416029,1.2859513845662092,0.03213896945515566,0.032497908930291586
0.251,0.004,-0.372,0.013685752316137393,1.2792561895026218,0.03214118820751893,0.03206653268868774
0.252,-0.0025,0.628,0.013665322203145031,1.278151385191813,0.03207694791603915,0.03199534935096896
0.253,0.0033,-1.372,0.013630563882965305,1.278151385191813,0.031967654119155704,0.03199534935096896
0.254,-0.0057,-1.372,0.01360755266475376,1.2714151164669893,0.03189529782010992,0.031561326703779514
0.255,-0.001,-1.372,0.013633982697110733,1.2703034926613996,0.03197840421228047,0.03148970398109879
0.256,-0.0086,0.628,0.013628435511497785,1.2703034926613996,0.03196096168414559,0.03148970398109879
0.257,-0.0122,0.628,0.013653958665694839,1.269190895237881,0.03204121649554653,0.031418018527513455
0.258,0.0067,0.628,0.013606289254623984,1.275938906704281,0.03189132516293345,0.03185279776800291
0.259,0.0147,1.628,0.013610217073220979,1.2703034926614005,0.03190367576577373,0.03148970398109885
0.26,0.0126,-1.372,0.013362793346929636,1.2601666927996937,0.031125678487838416,0.030836582662794727
0.261,-0.003,-0.372,0.013363881985172226,1.2590451376851826,0.031129101593625752,0.030764320058725033
0.262,-0.0167,-2.372,0.01328154699136578,1.2658472355761112,0.030870208067041282,0.031202584126514273
0.263,-0.0333,-0.372,0.013317114828388455,1.2658472355761115,0.03098204730251179,0.031202584126514287
0.264,-0.0311,-0.372,0.013317376235580117,1.256799024865418,0.03098286926929159,0.030619601391500852
0.265,-0.0368,-1.372,0.01316199353468894,1.256799024865418,0.03049428508965949,0.030619601391500852
0.266,-0.0092,-2.372,0.013155919493460398,1.256799024865418,0.03047518592074508,0.030619601391500852
0.267,0.0267,-1.372,0.013188068632332208,1.256799024865418,0.030576275427823235,0.030619601391500852
0.268,0.0506,2.628,0.013188095526240057,1.2669627692748908,0.030576359992821964,0.03127445876643016
0.269,0.0289,1.628,0.01316152674140513,1.2612872506113488,0.030492817308417953,0.030908781009922885
0.27,0.0249,1.628,0.013186075512618241,1.2714151164669902,0.030570008277395474,0.03156132670377957
0.271,0.0141,0.628,0.013166159363742993,1.2714151164669902,0.03050738409076572,0.03156132670377957
0.272,-0.0022,0.628,0.013142919138352034,1.2646429667276802,0.03043430770329155,0.03112499221697573
0.273,-0.005,-1.372,0.013143983680017238,1.2646429667276802,0.03043765503998473,0.03112499221697573
0.274,0.0084,0.628,0.013143747703041907,1.2703034926614007,0.03043691303578321,0.03148970398109886
0.275,-0.0035,-0.372,0.013149724867431174,1.260166692799694,0.030455707585903054,0.030836582662794744
0.276,-0.01,0.628,0.013192135728264057,1.260166692799694,0.030589063973253006,0.030836582662794744
0.277,-0.0001,1.628,0.013340030325308097,1.2533337658240664,0.031054102616257344,0.030396332254867063
0.278,0.009,-0.372,0.013542792564160007,1.2314610827715062,0.03169166665370582,0.028987059527277568
0.279,-0.0123,1.628,0.013541094624631633,1.2314610827715062,0.0316863276656024,0.028987059527277568
0.28,-0.0043,0.628,0.013889843728789408,1.2348978512896618,0.032782931688927305,0.0292084929989754
0.281,-0.0013,-3.372,0.013896931934010362,1.285865081514727,0.03280521978736478,0.032492348362506224
0.28200000000000003,-0.0256,-0.3720000000000555,0.014169525734125558,1.2869632639558493,0.033662361653468365,0.032563105048390266
0.28300000000000003,-0.0289,-1.3719999999998336,0.014362824443567887,1.3068275089057624,0.034270168641216424,0.03384297266201589
0.28400000000000003,-0.0202,1.6279999999999444,0.014405953114768949,1.2870494933687555,0.03440578210601358,0.032568660871589133
0.28500000000000003,-0.0067,0.628000000000111,0.014406200075725234,1.2937043570568019,0.03440655864816104,0.0329974385336095
0.28600000000000003,0.0053,2.627999999999778,0.014314086157678532,1.2937043570568019,0.03411691634677599,0.0329974385336095
0.28700000000000003,0.0165,-1.3719999999998336,0.014314787634224533,1.3024962181829056,0.03411912206427731,0.0335639044801968
0.28800000000000003,0.0347,1.6280000000000554,0.014691615967823212,1.3057460331625843,0.03530401820250562,0.03377329240071699
0.28900000000000003,0.0028,2.628,0.014696581099111004,1.306827508905763,0.03531963052345962,0.03384297266201594
0.29000000000000004,0.0071,0.628,0.014798845796701963,1.3002398136289548,0.035641190858627145,0.03341852270912416
0.29100000000000004,-0.0048,0.628,0.014641510278564132,1.2891568223447172,0.035146466255338134,0.03270443759576812
0.29200000000000004,-0.0156,-0.372,0.015141685229049868,1.3089029957372698,0.03671921255498412,0.033976697773886524
0.29300000000000004,0.0006,-0.372,0.015134934279831256,1.3089029957372698,0.03669798492174827,0.033976697773886524
0.29400000000000004,-0.0023,-0.372,0.015321108358394894,1.3198201819179494,0.037283389274498466,0.03468009994496347
0.29500000000000004,-0.0048,-0.372,0.016176279195174125,1.319820181917949,0.039972381931574874,0.03468009994496344
0.29600000000000004,-0.0026,-1.372,0.016867490238815862,1.3056610385206977,0.042145820665574374,0.03376781613470453
0.29700000000000004,0.004,-0.372,0.01688375904939451,1.325245050083906,0.04219697618948129,0.035029628109326284
0.29800000000000004,-0.0141,0.628,0.01695544115748598,1.3252450500839008,0.042422372863469456,0.03502962810932596
0.29900000000000004,0.0026,-2.372,0.016992812068328794,1.3413052887709402,0.04253988167050859,0.03606440085877945
0.30000000000000004,0.0048,-0.372,0.017171319383788262,1.3508333529754633,0.04310117871182578,0.03667830090011819
0.30100000000000005,-0.0011,-0.372,0.017289228240708335,1.3749187675411816,0.043471930422275186,0.03823014151329713
0.30200000000000005,-0.0029,-0.372,0.017438842947090034,1.3759458754798386,0.04394237776396218,0.03829631881778062
0.30300000000000005,-0.0015,-0.372,0.017442553359196034,1.3759458754798386,0.04395404475549025,0.03829631881778062
0.30400000000000005,0.009,-0.372,0.01744105146849447,1.370721679290152,0.04394932222182266,0.0379597200934261
0.30500000000000005,0.0079,-0.372,0.01757970739629959,1.3654774959339495,0.04438531086373227,0.03762183358153291
0.30600000000000005,-0.0084,-0.372,0.017583447322922403,1.3654774959339495,0.044397070660481916,0.03762183358153291
0.30700000000000005,-0.0019,-1.372,0.017633121737386646,1.4047160041268054,0.044553266510473706,0.04014999893438916
0.30800000000000005,0.0079,0.628,0.01786660997591687,1.4693875859298975,0.045287445146974095,0.04431683554360446
0.30900000000000005,0.0098,-0.372,0.01785421774773854,1.486816590217448,0.04524847911920139,0.045439798846847235
0.31000000000000005,0.0019,-0.372,0.01791146791151941,1.478165316573151,0.04542849609756676,0.04488239105300119
0.31100000000000005,-0.0087,-1.372,0.018159051076935037,1.4723444359363815,0.046206994714668485,0.044507347519830584
0.31200000000000006,-0.0098,-0.372,0.018384460427352704,1.4810297120108213,0.046915770157002636,0.04506694611474831
0.31300000000000006,-0.0037,0.628,0.018408817625493085,1.485791433016069,0.04699235874507133,0.04537374722977203
0.31400000000000006,-0.0092,-0.372,0.018111306052313137,1.4867419471236296,0.046056865623382175,0.04543498953853475
0.31500000000000006,0.0038,-1.372,0.01784425665873471,1.4953436017059747,0.04521715754690753,0.045989200340470424
0.31600000000000006,0.0092,-0.372,0.017636266374253192,1.4895898502863176,0.04456315448265381,0.04561848199112265
0.31700000000000006,0.0107,1.628,0.017965712451699742,1.4770590228521783,0.04559906221600545,0.04481111175151248
0.31800000000000006,0.0093,0.628,0.01794961545668681,1.4895898502863176,0.045548446947653,0.04561848199112265
0.31900000000000006,0.0083,1.628,0.01782777331249425,1.484840310441135,0.045165327438701816,0.04531246571701804
0.32000000000000006,-0.0028,-0.372,0.017666924086569297,1.5134806153188214,0.044659554359444804,0.04715778119463831
0.32100000000000006,-0.0042,-0.372,0.018021509844031572,1.5049826255209073,0.045774511110906246,0.046610249589450425
0.32200000000000006,-0.0031,-0.372,0.01805732397206552,1.5125469044075366,0.04588712478195422,0.04709762152791775
0.32300000000000006,0.003,-1.372,0.018086850694588288,1.5125469044075364,0.045979968383064715,0.04709762152791774
0.32400000000000007,-0.0072,-0.372,0.018110825030497133,1.5153463111684649,0.04605535310205252,0.047277989322400286
0.32500000000000007,-0.0108,-1.372,0.018167535747891303,1.5228591128810607,0.04623367384931372,0.047762044549457115
0.32600000000000007,-0.022000000000000155,-0.372,0.0183024514280542,1.528487632521727,0.0466579016850627,0.048124694125059334
0.32700000000000007,-0.023399999999998023,-0.372,0.0182798848514946,1.5331743452542632,0.04658694351383617,0.048426662403031374
0.32800000000000007,-0.005599999999995936,0.628,0.01914651589213497,1.5470775700845956,0.04931197154853052,0.0493224571956432
0.32900000000000007,0.030999999999997047,1.628,0.020162839057190567,1.5553455814335577,0.05250769035758606,0.04985517112367358
0.33000000000000007,0.004400000000002642,3.628,0.02130990835745424,1.5470775700845956,0.05611452631703431,0.0493224571956432
0.33100000000000007,0.0281999999999995,0.628,0.021691903533488186,1.554437017949545,0.05731566903521036,0.04979663172381002
0.3320000000000001,0.023699999999996012,-2.372,0.021725554561799684,1.5265653007116864,0.05742148107198828,0.04800083690156471
0.3330000000000001,-0.012199999999998446,-1.372,0.021621153927173037,1.5274904426051177,0.05709320451269578,0.048060444460291285
0.3340000000000001,0.0017999999999995225,-1.372,0.02176301435011285,1.5274904426051192,0.05753926934466735,0.04806044446029139
0.3350000000000001,-0.0024999999999995447,-0.372,0.022262717132172278,1.5274904426051197,0.059110530961514716,0.04806044446029142
0.3360000000000001,0.0016000000000036194,1.628,0.02246972998878235,1.5274904426051192,0.059761460609023966,0.04806044446029139
0.3370000000000001,0.03419999999999563,1.628,0.02255533014252664,1.5106042872300889,0.06003062107961475,0.046972457303586186
0.3380000000000001,-0.005200000000001732,0.628,0.02255100658601141,1.5049088834580473,0.06001702612148253,0.04660549833521174
0.3390000000000001,-0.020799999999997345,-0.372,0.022377131917101698,1.4973060183536053,0.05947029593864479,0.04611564025893071
0.3400000000000001,0.0031000000000043853,1.628,0.022396540293503266,1.4742621910158569,0.05953132348938091,0.044630909861277504
0.3410000000000001,0.04259999999999469,2.628,0.022489554617834417,1.4742621910158569,0.0598237970214197,0.044630909861277504
0.3420000000000001,-0.005200000000002087,0.628,0.022509270879947006,1.4742621910158569,0.05988579268563741,0.044630909861277504
0.3430000000000001,-0.024000000000003265,-2.372,0.022546612172959463,1.4742621910158569,0.060003208362596656,0.044630909861277504
0.3440000000000001,-0.05339999999999943,0.627999999999889,0.022731597917286028,1.482936235205314,0.06058487612623481,0.045189784777753615
0.3450000000000001,-0.048199999999996294,-1.3720000000000556,0.022753577299535824,1.4838885782288127,0.06065398792815192,0.04525114492488791
0.3460000000000001,-0.014799999999996625,-2.372,0.022808033220469898,1.483888578228813,0.06082521871062055,0.04525114492488793
0.3470000000000001,0.015599999999999566,-2.3719999999997223,0.022807279666386772,1.4780902365927953,0.060822849240908666,0.04487755359577433
0.348,0.0117,2.6279999999999446,0.02293650494016382,1.483888578228813,0.06122918420621675,0.04525114492488793
0.349,0.0299,1.6280000000000554,0.02289684677206695,1.5011492290438269,0.06110448336491208,0.04636326109260231
0.35,0.0202,2.627999999999889,0.022926467464479836,1.4887157024670268,0.061197622444228376,0.04556216001733242
0.351,0.0231,0.628,0.022926258026562302,1.4896643506793434,0.061196963889237795,0.04562328210512027
0.352,0.0043,0.628,0.02301705924871028,1.5077960763508025,0.06148247855965038,0.04679152225341477
0.353,-0.0025,0.628,0.02302490672936488,1.5162782982305425,0.06150715411797068,0.04733803792027445
0.354,-0.0228,0.628,0.02311955203987793,1.5162782982305427,0.061804756110520866,0.04733803792027447
0.355,-0.0038,-1.372,0.02311228282187809,1.5172097127944864,0.06178189883688199,0.0473980496316814
0.356,-0.0158,-3.372,0.023324056728568274,1.522859112881067,0.062447799093952254,0.04776204454945751
0.357,-0.0313,-4.372,0.02336431525460276,1.522859112881067,0.06257438769617724,0.04776204454945751
0.358,-0.0012,-2.372,0.02375511535271593,1.5228591128810653,0.0638032165441871,0.047762044549457414
0.359,0.0205,-0.372,0.02395717638958757,1.5303350327944276,0.06443857572747665,0.04824372345561755
0.36,0.0324,-0.372,0.02393806702955153,1.5312578971260655,0.0643784884015198,0.04830318426939688
0.361,0.0288,1.628,0.024002241696154884,1.539610865555635,0.0645802787337494,0.04884137204333944
0.362,0.0191,2.628,0.024371652963397734,1.5340231589679436,0.06574185270509583,0.048481352082144775
0.363,0.0043,0.628,0.02506964748649067,1.534023158967944,0.06793662136014644,0.0484813520821448
0.364,0.0019,1.628,0.025463272944932152,1.5934553265419438,0.0691743342496246,0.05231060945776261
0.365,-0.0248,-0.372,0.025640423813097637,1.6104188920460587,0.06973136608841575,0.05340358420485605
0.366,-0.0355,-1.372,0.02564250714940616,1.6104188920460591,0.06973791691521537,0.05340358420485609
0.367,-0.0257,-2.372,0.025647512932797205,1.6272056225421587,0.0697536570623328,0.05448516534497959
0.368,-0.0462,-2.372,0.025659208914569118,1.6201767505799471,0.0697904338182152,0.0540322900603947
0.369,-0.0164,-3.372,0.025775173256656205,1.6272056225421587,0.07015507121105391,0.05448516534497959
0.37,0.0434,-0.372,0.025855846697028572,1.6201767505799474,0.07040874016169235,0.054032290060394714
0.371,0.0181,1.628,0.02658626230016752,1.6280735772519102,0.07270545341357526,0.05454108829226027
0.372,0.0105,0.628,0.026819702700278784,1.6289410694862012,0.07343948162731592,0.054596981441913855
0.373,-0.0106,1.628,0.02684283767851306,1.6298080999835123,0.0735122270764333,0.05465284484152115
0.374,-0.0167,1.628,0.026887282377570203,1.6324064284089665,0.07365197864918424,0.0548202570139791
0.375,-0.0225,-1.372,0.026881135566267672,1.6324064284089665,0.07363265066260416,0.0548202570139791
0.376,0.004,-1.372,0.026871396348414508,1.6271374196495931,0.07360202674026432,0.05448077098347375
0.377,0.0569,2.628,0.026782182951678824,1.6437534220794496,0.07332150481596836,0.05555135199128554
0.378,0.0638,1.628,0.026689523439912488,1.6489693380062844,0.07303014695385235,0.055887417212338864
0.379,0.07,-0.372,0.02670083387229757,1.6481123877854527,0.07306571139118324,0.05583220329220762
0.38,0.0407,1.628,0.02657124308326828,1.641173058473374,0.07265822710250366,0.05538509730508318
0.381,0.0121,1.628,0.026761314456349935,1.600670880664348,0.073255886078413,0.05277551280842675
0.382,-0.0142,0.628,0.026618873313095707,1.600670880664348,0.07280799523391374,0.05277551280842675
0.383,-0.0381,-1.372,0.026516602025624163,1.591681189138971,0.07248641417757595,0.05219630050668432
0.384,-0.0511,1.628,0.02662857267908567,1.594341654915251,0.07283849384635886,0.05236771623342378
0.385,-0.0312,0.628,0.02669109265872174,1.5969976885822201,0.07303508119350827,0.05253884639616717
0.386,-0.0204,-1.372,0.026690048458266086,1.605008562956282,0.07303179781755927,0.053054992803646416
0.387,0.0159,-0.372,0.026696397357612835,1.6375907171784483,0.07305176124824432,0.05515428447449789
0.388,0.0206,0.628,0.026619733086265515,1.6297400060018743,0.07281069869811169,0.05464845749722485
0.3890000000000001,-0.009800000000002642,-0.372,0.02730817353748773,1.6627539648158771,0.0749754256024376,0.056775570649028655
0.39,-0.0217,0.628,0.02822338705411835,1.695958266813151,0.07785321600411396,0.05891494774926631
0.3910000000000001,-0.010600000000002155,0.628,0.028601306619346425,1.721088977422951,0.0790415434027553,0.06053413753966515
0.392,-0.0203,-0.372,0.028292394599317823,1.7019096328479795,0.0780702028029425,0.05929839855064408
0.3930000000000001,-0.02899999999999585,1.628,0.030324144944394046,1.721088977422951,0.08445882309254298,0.06053413753966515
0.394,-0.0103,0.628,0.03098155895694822,1.7433014305291221,0.08652599069974902,0.06196530189660139
0.39500000000000013,0.01639999999999596,-0.372,0.03101846845163253,1.7620302913148005,0.08664204863333841,0.06317201589052028
0.396,-0.0018,-0.372,0.030716797979710025,1.7644339183573783,0.08569347830216165,0.06332688331260387
0.39700000000000013,-0.024699999999995403,-1.372,0.030695609723390183,1.7538678647956891,0.08562685411058503,0.06264610486914741
0.398,-0.004,-2.372,0.030713568956054923,1.770092385230213,0.08568332498480719,0.06369146240995066
0.39900000000000013,-0.011999999999996291,-1.372,0.03081091745753491,1.7555413161181703,0.0859894268704175,0.06275392654351879
0.4,0.0047,0.628,0.03072723549884799,1.7531254968937229,0.0857262979577357,0.06259827357037329
0.40100000000000013,0.020399999999996938,-2.372,0.030774288953765,1.7334857089459423,0.08587425248251633,0.06133286788310858
0.402,0.0066,1.628,0.030691922009327133,1.7523194836974938,0.0856152584906101,0.06254634155943556
0.40300000000000014,-0.020999999999993805,-0.372,0.03071208782929252,1.7709529758782097,0.08567866774111152,0.06374691088542693
0.404,0.0069,0.628,0.03094960992276107,1.7701550801720367,0.08642553040031517,0.0636955018902219
0.40500000000000014,0.03229999999999638,-1.372,0.03089969301168381,1.7742035221565855,0.08626857204582285,0.06395634592404906
0.406,0.016,-0.372,0.03122265313659566,1.7693568246529165,0.08728408539949051,0.06364406971200944
0.40700000000000014,0.04289999999999758,-1.3719999999998336,0.031228935769508463,1.7693568246529165,0.08730384046250605,0.06364406971200944
0.40800000000000003,0.032,1.6279999999999444,0.03121815265339905,1.796607396743327,0.0872699341144507,0.06539984370489102
0.40900000000000014,0.002299999999995559,0.6280000000000555,0.03183061644978353,1.7814176960664978,0.08919576060475251,0.06442116034662797
0.41000000000000003,-0.0177,1.6279999999998889,0.031932603183779516,1.7886027724693105,0.08951644691331194,0.06488409999586069
0.41100000000000014,-0.043200000000003645,-0.372,0.03199199156440707,1.847492098020988,0.08970318728442257,0.06867838166888132
0.41200000000000003,-0.0596,-0.37200000000022204,0.03189215942289599,1.859046122925144,0.08938927586004038,0.06942281581773217
0.4129999999999999,-0.0448,-4.371999999999889,0.031886881361483946,1.8758672453230871,0.08937267956399028,0.07050661285286963
0.41400000000000003,-0.0315,-2.3719999999999444,0.03191619546398608,1.9098047614390008,0.08946485460432947,0.0726932314670267
0.4149999999999999,0.005,-1.3720000000000556,0.03191768394060443,1.9038195271354008,0.08946953495885611,0.07230759850869108
0.41600000000000004,-0.0106,-2.3719999999998334,0.031821611416949176,1.9045614263696193,0.08916744524818644,0.07235539961086455
0.4169999999999999,0.0132,0.628,0.0316345791544994,1.9007906503981742,0.08857934242856975,0.07211244579831044
0.41800000000000004,0.0261,1.628,0.03160262236197992,1.8864400246143922,0.08847885773389491,0.0711878246399309
0.41899999999999993,0.022,0.628,0.03143910254870726,1.8719793899221178,0.0879646872801494,0.07025611552831958
0.42000000000000004,0.0619,1.628,0.0314745925741129,1.856645434973032,0.08807628184536476,0.06926813776336481
0.42099999999999993,0.0355,0.628,0.03124221228972419,1.8612648485084502,0.08734558705141696,0.06956576990557978
0.42200000000000004,0.0115,0.628,0.031225735002985103,1.8689582918409684,0.08729377599666113,0.07006146400235426
0.42299999999999993,0.0157,1.628,0.03122816688857193,1.8727931617813736,0.0873014227991532,0.07030854743550596
0.42400000000000004,-0.0043,-0.372,0.03121174222358339,1.865932302359611,0.08724977720782848,0.06986649731994944
0.42499999999999993,-0.008,-0.372,0.031183827011586097,1.8598058829017667,0.08716200082812386,0.06947176770040682
0.42600000000000005,0.0017,-2.372,0.031118205756052984,1.8551828365390395,0.08695566185269615,0.06917390149251099
0.42699999999999994,-0.0071,-1.372,0.031144630991778048,1.8689582918409666,0.08703875316237392,0.07006146400235413
0.42800000000000005,-0.0096,-0.372,0.03063345320806739,1.8574659247824932,0.08543140963785029,0.06932100251292297
0.42899999999999994,-0.0166,0.628,0.02998325754809349,1.8505482409010707,0.08338693936344578,0.0688752911564905
0.43000000000000005,-0.0322,-0.372,0.029208030284073063,1.8513114883279544,0.08094932066685018,0.06892446773809804
0.43099999999999994,-0.0062,0.628,0.029041238862538392,1.8513114883279544,0.08042486299303706,0.06892446773809804
0.43200000000000005,0.0045,1.628,0.029088496554747913,1.8443707211374372,0.0805734597200026,0.06847726910742986
0.43299999999999994,0.0272,1.628,0.02909048605173518,1.8443707211374372,0.08057971547915616,0.06847726910742986
0.43400000000000005,0.0183,1.628,0.02885640222224701,1.8404766303365727,0.07984366407098996,0.06822637003157218
0.43499999999999994,-0.0007,1.628,0.02840492005630826,1.838172440788952,0.07842402699171049,0.06807790943892995
0.43600000000000005,0.006,3.628,0.028287483723634054,1.8374037354819421,0.07805476108289601,0.06802838120217368
0.43699999999999994,-0.0277,-0.372,0.02821946184845737,1.8374037354819424,0.07784087361736976,0.0680283812021737
0.43800000000000006,-0.0612,-3.372,0.028174883194670704,1.838172440788952,0.07770070083838894,0.06807790943892995
0.43899999999999995,-0.0743,-3.372,0.028099580355562478,1.8381724407889517,0.07746391916540575,0.06807790943892994
0.44000000000000006,-0.0465,-3.372,0.02810173801255144,1.8428381608711586,0.07747070368558613,0.06837852514531677
0.44099999999999995,0.0078,0.628,0.028029228541496063,1.8467272720510084,0.07724270545780426,0.06862910338060484
0.44200000000000006,0.1092,2.628,0.028045590215858042,1.8459621291954889,0.07729415298188325,0.06857980467516471
0.44299999999999995,0.0678,3.628,0.02799500718871928,1.852896935139669,0.07713510009712736,0.0690266192184365
0.44400000000000006,0.0554,2.628,0.027910011718577255,1.850608210159818,0.07686784098904384,0.06887915501903737
0.44499999999999995,0.0213,1.628,0.028009788337890012,1.854481026509813,0.07718157782984911,0.06912868336669803
0.44600000000000006,-0.0094,-1.372,0.028026920418917124,1.8591058180673505,0.0772354478147703,0.06942666201875283
0.44699999999999995,-0.0189,-3.372,0.028103811805417933,1.8598655536583524,0.07747722450405943,0.06947561233024435
0.44800000000000006,-0.0272,-1.372,0.028020154596454808,1.8598655536583524,0.07721417341422038,0.06947561233024435
0.44899999999999995,-0.0196,-1.372,0.02804729258231015,1.8521343410608637,0.07729950588997189,0.06897748473251637
0.45000000000000007,-0.0265,-0.372,0.02812231141037553,1.8474920980209841,0.07753539452079801,0.06867838166888109
0.45099999999999996,0.0054,2.628,0.028193302757177612,1.8513714328637414,0.07775861917025603,0.06892833000772676
0.45200000000000007,-0.012,2.628,0.028124907739490994,1.8436046002535396,0.07754355839826738,0.06842790738691669
0.45299999999999996,-0.0384,-0.372,0.028118921088429335,1.8374037354819421,0.07752473401832721,0.06802838120217368
0.45400000000000007,-0.0145,-1.372,0.02805951447497693,1.8420714025927383,0.07733793631606116,0.06832912235701528
0.45499999999999996,-0.045,-0.372,0.028115502747470225,1.8459621291954889,0.07751398541308589,0.06857980467516471
0.45600000000000007,-0.017,-3.372,0.027928914385457353,1.8459621291954889,0.07692727839061751,0.06857980467516471
0.45699999999999996,0.0301,-5.372,0.027948444697867367,1.8467272720510086,0.07698868935600862,0.06862910338060485
0.4580000000000001,0.0621,-0.372,0.027632941556232273,1.8428381608711601,0.07599662368368458,0.06837852514531688
0.45899999999999996,0.0327,1.628,0.027454730454278643,1.8358653592616663,0.07543625805385602,0.06792926251395434
0.4600000000000001,0.0378,4.628,0.02754863686071204,1.8397692103932306,0.07573153664205352,0.068180790454951
0.46099999999999997,0.0139,2.628,0.02771203394550605,1.832784733045564,0.07624532118930674,0.06773077554736603
0.4620000000000001,0.0182,3.628,0.027753704970940957,1.8335553748381632,0.07637635124387378,0.067780428553284
0.46299999999999997,0.0143,3.628,0.027266832099006526,1.863719133308145,0.07484543189857416,0.0697239012434516
0.4640000000000001,-0.0037,0.628,0.02693977930533492,1.8123881337922467,0.07381704958847171,0.06641660796242918
0.46499999999999997,-0.0004,0.628,0.027412495594509582,1.804453514824645,0.07530345508290887,0.06590537474572755
0.4660000000000001,0.0083,0.628,0.027731601866346205,1.8068007061937037,0.07630685041035877,0.06605660597670636
0.46699999999999997,-0.0214,-0.372,0.027717288895943687,1.7924857312238576,0.07626184481538517,0.06513428182595389
0.4680000000000001,-0.0332,-0.372,0.02779333121254042,1.7964838509753134,0.07650095169574349,0.06539188356204745
0.469,-0.0222,-2.3719999999999444,0.027674276090451304,1.7901197702673621,0.07612659567783871,0.0649818412569337
0.4700000000000001,0.0207,-1.3720000000000556,0.027671875831239687,1.7901197702673621,0.07611904832107964,0.0649818412569337
0.471,0.015,-2.3719999999999444,0.026970256500723315,1.7877506781324461,0.07391288184921195,0.06482919894383196
0.4720000000000001,-0.0113,-1.3719999999999446,0.026777248913024677,1.7869602827847082,0.07330599026245446,0.06477827320212465
0.473,0.0029,-0.3719999999999445,0.027392002846414003,1.7861695376802804,0.07523901784208822,0.06472732492534182
0.4740000000000001,-0.0102,0.6279999999999445,0.02740423116828413,1.7837951991744831,0.07527746848411547,0.06457434458478438
0.475,0.0097,-0.37199999999983346,0.027566295206205415,1.7837951991744831,0.0757870614089488,0.06457434458478438
0.4760000000000001,0.0134,2.6279999999999446,0.027987966617224438,1.7837951991744831,0.07711296177781499,0.06457434458478438
0.477,-0.0093,1.6279999999998889,0.029068780951335714,1.7733445089747655,0.08051146612699736,0.06390099908585506
0.4780000000000001,0.0116,-0.3719999999999445,0.029734192130703743,1.799749948655345,0.08260377996454125,0.06560232058868251
0.479,-0.0179,0.6280000000000555,0.030286230725985085,1.8045150159452539,0.08433960591333647,0.06590933730723782
0.4800000000000001,0.0262,1.628,0.030249442201984722,1.803731966745304,0.08422392835904308,0.06585888488312514
0.481,0.0205,-0.372,0.03012363126035541,1.8108285058737388,0.08382832939370041,0.06631612001198164
0.4820000000000001,0.0145,0.628,0.03069466921272011,1.8108285058737386,0.085623896776007,0.06631612001198163
0.483,0.0095,0.628,0.031410937164739146,1.8226149655365869,0.08787612426160771,0.06707553009979624
0.4840000000000001,-0.0046,-1.372,0.0312938903274671,1.8343256928667144,0.08750808307916524,0.06783006069885111
0.485,-0.0175,-0.372,0.031259931770159864,1.8280933544537419,0.08740130405055854,0.06742850664471861
0.4860000000000001,-0.0055,-1.372,0.031314864964555655,1.8280933544537419,0.08757403556806019,0.06742850664471861
0.487,-0.0018,0.628,0.03133031996664033,1.7966073967433305,0.08762263215874529,0.06539984370489124
0.4880000000000001,0.0016,0.628,0.031212504460471698,1.8037319667453038,0.08725217397968675,0.06585888488312512
0.489,0.0103,-1.372,0.03080094785658602,1.791759363680566,0.08595807853322851,0.06508748144181688
0.4900000000000001,0.0078,-1.372,0.030036401365351805,1.779706219243809,0.08355404437712331,0.06431088866188216
0.491,-0.0143,-0.372,0.029713236714883285,1.748901359844849,0.08253788791485513,0.06232610937696943
0.4920000000000001,-0.0113,1.628,0.02970350217421542,1.7529988866628317,0.08250727869942107,0.06259011598197867
0.493,-0.0191,-1.372,0.027639983755449328,1.7333576641599606,0.07601876712119428,0.06132461786529593
0.4940000000000001,-0.0258,-1.372,0.02682998334775135,1.700118118642639,0.07347180801682172,0.05918296999966986
0.495,-0.0192,-1.372,0.0263066495608939,1.6849628713075302,0.07182624124871295,0.05820650649503629
0.4960000000000001,-0.0209,0.628,0.026233787843484964,1.6824457117380829,0.07159713542018341,0.058044324090450225
0.497,-0.0118,-1.372,0.026223873413257315,1.6934574509071216,0.07156596056138953,0.058753818378689315
0.4980000000000001,0.0129,1.628,0.026178138081216225,1.6610538455104085,0.07142215073212708,0.05666603073730005
0.499,0.0237,-0.372,0.026074319720984483,1.6636033729299688,0.07109570507200112,0.05683029862578881
0.5000000000000001,0.0205,-1.372,0.02600424690335217,1.6592851027626336,0.07087536863865922,0.056552069367742826
0.501,0.0057,1.628,0.02593943139626755,1.6601362857196458,0.0706715632525078,0.05660691169891105
0.5020000000000001,0.0032,0.628,0.026074374946988235,1.6471876190191583,0.07109587872422612,0.05577261977433131
0.503,0.0102,-1.372,0.026067533095127545,1.631540778711318,0.07107436525741581,0.05476448258028888
0.5040000000000001,-0.0191,-1.372,0.02581492067770079,1.631540778711318,0.07028005269864666,0.05476448258028888
0.505,0.0009,-1.372,0.02595721849127025,1.6428937511856683,0.07072749285837827,0.055495962776236
0.5060000000000001,0.0191,0.628,0.02567701082028377,1.6481123877854627,0.06984640999477539,0.05583220329220826
0.507,0.0095,0.628,0.02571400246941933,1.6192360274518147,0.06996272625419471,0.05397167859149059
0.5080000000000001,0.0067,-0.372,0.025549622250484925,1.5293390474567892,0.06944585034744845,0.04817955140274046
0.509,-0.0229,-1.372,0.02585629478223687,1.5302625124432268,0.07041014911740393,0.04823905091714128
0.5100000000000001,-0.0349,-0.372,0.025786127638832892,1.5302625124432268,0.070189516086825,0.04823905091714128
0.511,-0.0458,0.628,0.025745156494481013,1.4644967557188207,0.0700606867329977,0.04400171582943046
0.5120000000000001,-0.0295,-3.372,0.02573417203524984,1.4468756020677387,0.07002614728316586,0.04286637220425837
0.513,0.0151,-0.372,0.025673951161211187,1.4200339426861517,0.0698367892261225,0.041136944751813766
0.5140000000000001,0.059599999999996135,1.628,0.025672273588750565,1.3730239104723216,0.06983151428007159,0.038108054507171384
0.515,0.0422,1.628,0.025671869082119228,1.3730239104723216,0.06983024235250504,0.038108054507171384
0.5160000000000001,-0.005700000000004175,0.628,0.02577599871818586,1.3730239104723212,0.07015766678599224,0.038108054507171356
0.517,-0.0245,-1.372,0.025782854237019256,1.3719946150826123,0.0701792232271273,0.038041736263640616
0.5180000000000001,0.004799999999994093,0.628,0.025892221441113777,1.3813110054009246,0.07052311662957628,0.03864199800398707
0.519,-0.0218,0.628,0.025682351109472066,1.3813110054009246,0.06986320195937051,0.03864199800398707
0.5200000000000001,0.0020000000000028866,-1.372,0.02568237956494451,1.3614958551048728,0.06986329143454105,0.03736529359428074
0.521,0.015,-0.372,0.0257970422654221,1.3646051693463543,0.07022383595543003,0.03756562895101296
0.5220000000000001,0.05879999999999087,-0.372,0.02575824650494092,1.344543840130484,0.07010184686205485,0.036273063056139296
0.523,0.0177,-1.372,0.02581243052035258,1.3476922656051251,0.07027222266687252,0.03647591837780229
0.5240000000000001,-0.0302000000000042,-0.372,0.02583108077210731,1.3476922656051256,0.07033086637625108,0.03647591837780232
0.525,-0.0491,-0.372,0.025821313474259897,1.3530053854090283,0.07030015415939148,0.03681824651468717
0.5260000000000001,-0.07859999999999653,-1.372,0.025821301016112064,1.362451629516391,0.07030011498608645,0.03742687482821733
0.527,-0.063,-3.372,0.025815804265448102,1.3466436083310402,0.0702828310452205,0.036408352634111636
0.5280000000000001,-0.05839999999998546,-1.372,0.02599876139978669,1.3434927253691384,0.07085812006308397,0.036205338974773904
0.529,0.0071,-0.372,0.026101937739776118,1.4119741369684238,0.07118254695965645,0.04061764566260878
0.5300000000000001,0.016500000000009483,1.628,0.026043130697567772,1.4301030238163515,0.0709976345446375,0.041785702903457886
0.531,0.0592,0.628,0.025910946322240728,1.4271364174421517,0.07058199500298366,0.041594562317430715
0.5320000000000001,0.06679999999998582,2.628,0.02583663016707529,1.4360951304895002,0.07034831585146507,0.04217177865351485
0.533,0.0029,2.628,0.02601290228453661,1.4351110719740954,0.07090258455324397,0.04210837505438713
0.5340000000000001,0.011100000000001643,0.628,0.02611104326077129,1.4430416569924982,0.07121117829042901,0.04261934836083555
0.535,0.0185,1.628,0.026122768399925146,1.4370785151579828,0.07124804672856082,0.04223513883619989
0.5360000000000001,0.011499999999998602,-1.372,0.02606806375878877,1.4607090618832093,0.07107603387218497,0.043757671986699366
0.537,0.0052,1.628,0.026121403235287857,1.4548183386185172,0.07124375411528697,0.0433781284426925
0.5380000000000001,0.03439999999999887,2.628,0.026121873730352234,1.4538469532477363,0.0712452335363791,0.04331554138340347
0.539,0.0293,2.628,0.026121754929288078,1.4528749184133876,0.07124485997921902,0.04325291247870884
0.5400000000000001,0.01499999999999709,0.628,0.026101821418545293,1.4557890758258079,0.07118218120006539,0.04344067374034089
0.541,0.0019,-1.372,0.026110524331880543,1.4508524056980416,0.07120954657438265,0.04312260052730851
0.5419999999999999,-0.0102,-0.372,0.026234054000174017,1.4508524056980416,0.07159797232124658,0.04312260052730851
0.543,-0.0139,-1.372,0.026349126512814524,1.447928312583445,0.07195980545237514,0.04293419910122691
0.5439999999999999,-0.0172,-1.372,0.026623990860575996,1.480150508750616,0.072824086811181,0.04501029841525768
0.545,-0.0086,-1.372,0.026938439828502025,1.4926553834163094,0.07381283774773408,0.045815996499298815
0.5459999999999999,-0.006,-2.372,0.026951057201991944,1.5050563639706893,0.07385251172070743,0.046615000610895886
0.547,0.0107,0.628,0.02687043252672104,1.5220769868799735,0.07359899610668212,0.047711651607712284
0.5479999999999999,-0.014,1.628,0.026863548973082782,1.5173559977196038,0.07357735151312046,0.04740747487479995
0.549,-0.0042,0.628,0.027033884724494247,1.50981581290654,0.07411295395076681,0.046921655334851396
0.5499999999999999,-0.0191,0.628,0.026935477534135246,1.50981581290654,0.07380352313191957,0.046921655334851396
0.551,-0.0271,1.628,0.026875021803944837,1.5050563639706893,0.0736134265949838,0.046615000610895886
0.5519999999999999,-0.0104,-1.372,0.026975410978192983,1.4965105375180747,0.07392908954885616,0.046064386855580994
0.553,-0.0127,-0.372,0.02699567468117077,1.5041174235463315,0.07399280658195526,0.04655450400288035
0.5539999999999999,-0.0308,-2.372,0.027017605492726235,1.4983973634282304,0.07406176565855153,0.04618595640836525
0.555,-0.024,-1.372,0.027152287666360627,1.4936015293761276,0.07448525925815316,0.045876957365155395
0.5559999999999999,-0.0219,-1.372,0.02717184637919867,1.4887902466031748,0.07454675952563357,0.04556696294973091
0.557,0.0081,0.628,0.0271145099463733,1.4964363779639145,0.07436647128354262,0.04605960870207705
0.5579999999999999,0.0737,0.628,0.027103991247297808,1.5040436390633007,0.07433339636639212,0.04654975001547951
0.559,0.0266,1.628,0.027125086201920365,1.5125469044075335,0.07439972718082337,0.04709762152791755
0.5599999999999999,0.0349,-1.372,0.027174862034545524,1.5077960763507932,0.07455624192930685,0.04679152225341417
0.561,0.0117,-1.372,0.02695112868609424,1.5134806153188185,0.07385273649477352,0.04715778119463812
0.5619999999999999,0.0048,-2.372,0.026665112547980433,1.5125469044075335,0.07295338953143463,0.04709762152791755
0.5630000000000001,-0.0141,-0.371999999999889,0.026574763351203495,1.4810297120108182,0.07266929620615128,0.04506694611474811
0.564,0.0033,0.628,0.02679877222604309,1.4868165902174448,0.07337366800375869,0.04543979884684703
0.5650000000000001,-0.0232,0.627999999999889,0.026213544765561033,1.4781653165731479,0.07153348324034636,0.044882391053000986
0.566,0.0102,-0.37199999999977795,0.025895670694727365,1.4694631105590095,0.07053396243633257,0.04432170164987104
0.5670000000000001,0.0319,1.6279999999997778,0.02593736354174047,1.4694631105590095,0.07066506110650365,0.04432170164987104
0.568,0.004,-0.372,0.025848594671908268,1.486816590217445,0.07038593694921275,0.045439798846847054
0.5690000000000001,0.0221,-0.37199999999977795,0.02585657016887058,1.4944728193777388,0.07041101504103468,0.04593309520769358
0.57,0.0319,1.6279999999997778,0.025948959914759127,1.493527225378175,0.07070152465338199,0.04587216990503385
0.5710000000000001,0.0051,-0.37199999999977795,0.025997113816278766,1.505921026492695,0.0708529394140672,0.04667071144014821
0.572,-0.0202,1.6279999999997778,0.025955071262800573,1.5116126167506656,0.07072074112955438,0.04703742470106355
0.5730000000000001,-0.0103,-0.372000000000111,0.025445404774479242,1.5200735419530955,0.06911814971072683,0.04758256820766063
0.574,-0.0073,-1.371999999999667,0.02560283841442084,1.5200735419530955,0.06961318284746726,0.04758256820766063
0.5750000000000001,-0.0098,1.628,0.02551671247082688,1.556324923724727,0.06934236908728321,0.04991827085307593
0.576,0.0123,1.6279999999996668,0.025043384685753085,1.573688787016271,0.06785404080980448,0.05103703707501417
0.5770000000000001,-0.0322,-1.372,0.023779695048561932,1.573688787016271,0.06388050475234443,0.05103703707501417
0.578,-0.026,-4.372,0.02297688948251836,1.537846774916082,0.06135616905319742,0.048727710412466624
0.5790000000000001,0.0034,-2.372,0.022335803385134065,1.5322526351854684,0.05934034281792419,0.048367275959238634
0.58,-0.0016,-1.372,0.02233150383134249,1.540600210261847,0.05932682333377317,0.04890511623554938
0.5810000000000001,-0.0062,1.628,0.022272755356167854,1.5322526351854684,0.05914209507648835,0.048367275959238634
0.582,0.0335,-0.372,0.021490090308922342,1.531330370338091,0.05668108907104519,0.04830785377066212
0.5830000000000001,0.0245,1.628,0.02045316447776537,1.5172828570200012,0.053420587395829895,0.04740276236682921
0.584,0.009,-0.372,0.020488300253864288,1.5002818163780787,0.053531068062226926,0.04630737306960727
0.5850000000000001,0.0043,2.628,0.02048510510921744,1.5050563639706893,0.05352102127376764,0.046615000610895886
0.586,0.0175,-0.372,0.020578144477477227,1.4965105375180747,0.05381357355374463,0.046064386855580994
0.5870000000000001,-0.0024,-0.372,0.020687122861130298,1.5088798341781957,0.0541562443521629,0.04686134955104382
0.588,0.0014,-0.372,0.020744973839801083,1.506068407892074,0.05433815052828591,0.04668020732989341
0.5890000000000001,-0.0018,1.628,0.020461736391878396,1.5013709983496681,0.05344754085719187,0.04637754984875479
0.59,-0.0104,0.628,0.020458877035948043,1.478390533636639,0.05343854992021179,0.044896901950662836
0.5910000000000001,-0.0292,-0.372,0.020854754294563627,1.548205512714154,0.05468334335298369,0.049395131351909385
0.592,-0.0271,-1.372,0.020961846613771092,1.5846348109780954,0.05502008362474357,0.0517422972851069
0.5930000000000001,-0.0427,-3.372,0.021196538367719474,1.5846348109780954,0.05575804658594602,0.0517422972851069
0.594,-0.0485,-2.372,0.02119918926697065,1.5801007417217483,0.05576638205333393,0.05145016393628008
0.5950000000000001,-0.0209,-2.372,0.021228431800267754,1.5746567209721098,0.05585833205201065,0.051099401757151865
0.596,-0.0009,-2.372,0.02137547019638948,1.5691938133371717,0.05632067846336482,0.05074742268239644
0.5970000000000001,0.01,0.628,0.02147357487747102,1.551779653701417,0.05662915807434714,0.04962541583076393
0.598,0.0329,0.628,0.021479917541984105,1.550869001150217,0.05664910190026877,0.049566741830796394
0.5990000000000001,-0.0058,-0.372,0.021496103228519265,1.5425769961018598,0.0566999960495673,0.04903248197142736
0.6,0.0098,0.628,0.021496505168400466,1.5425769961018598,0.05670125990626429,0.04903248197142736
0.6010000000000001,0.0239,-0.372,0.021528290698099622,1.5499578135599867,0.05680120608343307,0.04950803335787865
0.602,0.0109,1.628,0.02139454619571477,1.5499578135599867,0.05638066089015721,0.04950803335787865
0.6030000000000001,0.0149,-0.372,0.02141829292095026,1.5453220032218815,0.05645532991187962,0.04920934475785322
0.604,0.033,0.628,0.021529474121092018,1.550869001150217,0.056804927229664806,0.049566741830796394
0.6050000000000001,0.0103,0.628,0.021422533533019907,1.5341678407096546,0.056468664060129736,0.048490674031001414
0.606,0.0074,1.628,0.021300589052023058,1.5341678407096546,0.056085222764111625,0.048490674031001414
0.6070000000000001,-0.0059,1.628,0.02121111712956157,1.528560237079567,0.05580388793349514,0.048129372089030044
0.608,-0.0127,1.628,0.021263127244737855,1.528560237079567,0.055967428142992284,0.048129372089030044
0.6090000000000001,-0.0282,0.628,0.02024534259484393,1.528560237079567,0.05276711385215735,0.048129372089030044
0.61,0.0018,-1.372,0.020153794338454222,1.5210755942647047,0.052479250212972436,0.047647131160041704
0.6110000000000001,0.0236,-0.372,0.019849680070020786,1.5238593334710315,0.05152299562668469,0.047826489482693336
0.612,0.0196,-1.372,0.019937189839950218,1.5182136552935475,0.051798160679844045,0.04746273437020181
0.6130000000000001,0.0377,-1.372,0.02009061004000628,1.5059210264926948,0.05228057398681753,0.0466707114401482
0.614,0.0213,-0.372,0.020238186778986197,1.5068588430725123,0.052744613159349224,0.04673113563805031
0.6150000000000001,-0.0114,-0.372,0.020274281232784817,1.5068588430725123,0.05285810828459369,0.04673113563805031
0.616,-0.0158,0.628,0.020841359756662996,1.5238593334710324,0.05464122567016446,0.0478264894826934
0.6170000000000001,-0.0118,2.628,0.021626548574872066,1.5238593334710329,0.0571101674017775,0.04782648948269343
0.618,-0.0081,1.628,0.02184820540149905,1.515419545334147,0.057807143436923426,0.04728270785245788
0.6190000000000001,-0.0309,-0.372,0.021850280982773203,1.5210755942647083,0.057813669878852135,0.04764713116004193
0.62,-0.016,-2.372,0.021737705641871014,1.526710689212177,0.05745968883549249,0.04801020438739871
0.6210000000000001,0.0028,-1.372,0.021548756861533565,1.5192169343585231,0.05686555973164641,0.04752737636318613
0.622,-0.0291,1.628,0.021690089567469668,1.52014654838102,0.057309965214296224,0.04758727206441041
0.6230000000000001,-0.0335,-1.372,0.021979285658144967,1.5201465483810221,0.05821931119621707,0.04758727206441055
0.624,-0.0217,-3.372,0.02196836328279557,1.5257850745244945,0.0581849669624696,0.047950566366197905
0.6250000000000001,-0.0036,-2.372,0.021988906721303488,1.5210755942647167,0.05824956359383621,0.04764713116004248
0.626,-0.0004,-1.372,0.02196728792623656,1.5126202741077241,0.058181585619506836,0.047102348790561174
0.6270000000000001,0.0144,-0.372,0.02207738431704012,1.5126202741077277,0.05852777187108244,0.0471023487905614
0.628,0.0223,-0.372,0.021860385717758953,1.5154195453341592,0.05784544313047601,0.047282707852458666
0.6290000000000001,0.0056,1.628,0.021835364350399157,1.4577286109286058,0.057766766133779186,0.043565639384382245
0.63,0.0034,-0.372,0.02183273331337968,1.4389661472549928,0.05775849312104115,0.04235676033218401
0.6310000000000001,0.0092,-0.372,0.02226038473693162,1.4389661472549928,0.05910319699570837,0.04235676033218401
0.632,0.0109,1.628,0.02240503948497036,1.436017850935992,0.05955804828220965,0.042166799476205066
0.6330000000000001,0.0123,-1.372,0.02225314775947224,1.437001288489277,0.05908044109897902,0.04223016306629603
0.634,-0.0106,-1.372,0.02212853379282914,1.437001288489277,0.05868860589265408,0.04223016306629603
0.6350000000000001,-0.027,-0.372,0.022261796095752556,1.4458988806088335,0.05910763486162097,0.042803441336967014
0.636,-0.0242,-2.372,0.022462186446068823,1.4458988806088338,0.05973774075084755,0.04280344133696703
0.6370000000000001,-0.0164,-1.372,0.02239474309828666,1.4693875859299108,0.059525672402448396,0.04431683554360532
0.638,-0.0045,-2.372,0.02239385975509803,1.4780902365928021,0.05952289482486303,0.04487755359577478
0.6390000000000001,0.02910000000000311,-0.372,0.02239432907070538,1.4790456999105825,0.05952437053727947,0.0449391147857177
0.64,0.0431,4.628,0.0224584726729799,1.4790456999105825,0.059726063191070405,0.0449391147857177
0.6410000000000001,0.02120000000000262,3.628,0.02243775523553868,1.4867419471236432,0.05966091943878495,0.04543498953853562
0.642,0.033,-0.372,0.022255849149777907,1.4953436017059845,0.059088935330053584,0.04598920034047105
0.6430000000000001,-0.014300000000001378,0.628,0.022111069672486064,1.4953436017059833,0.058633691845840115,0.04598920034047098
0.644,-0.0205,-0.372,0.0216989328955178,1.457576341706353,0.057337772107565764,0.043555828568687775
0.6450000000000001,-0.026499999999998868,-0.372,0.021379276404734266,1.4388118924057134,0.056332646675855524,0.04234682158110964
0.646,-0.0214,-0.372,0.02156573643037465,1.4197994687821744,0.05691895015841302,0.04112183742925016
0.6470000000000001,0.011900000000000955,-0.372,0.021567075177121402,1.401537311773467,0.05692315970347335,0.03994519349592547
0.648,0.0162,-0.372,0.0216796725072576,1.400528971988862,0.05727720988961272,0.039880225437129366
0.6490000000000001,0.004300000000003997,0.628,0.02145944307903849,1.3995199057059395,0.05658472215513422,0.039815210569523245
0.65,0.0223,1.628,0.02151397281807017,1.4056423910632945,0.05675618505066598,0.04020968671213696
0.6510000000000001,0.012499999999994005,1.628,0.02159135905969646,1.4137382949001354,0.05699951775863759,0.040731311629163845
0.652,-0.0145,0.628,0.02168155832516805,1.4197994687821653,0.05728313964106785,0.041121837429249575
0.6530000000000001,-0.02529999999999929,-1.372,0.021788116332975588,1.4117383244217405,0.057618199828136804,0.04060245209033118
0.654,-0.0221,0.628,0.02174308963492932,1.4357859873184926,0.05747661822220317,0.04215186033627985
0.6550000000000001,-0.007300000000000578,-1.372,0.021518793922141007,1.4348017167773117,0.05677134449353743,0.04208844307617862
0.656,-0.0099,-0.372,0.021549349413147477,1.4788956255281078,0.05686742294642201,0.044929445385131446
0.6570000000000001,0.016900000000003974,0.628,0.02208356914216391,1.4701977422714738,0.058547219388032166,0.0443690345003819
0.658,0.0348,0.628,0.022075919924520532,1.4614480940334842,0.058523167246412267,0.04380528836058873
0.6590000000000001,0.018399999999995403,0.628,0.022113431718063924,1.4526457454341952,0.058641119043940634,0.04323814669854825
0.66,-0.0023,1.628,0.02196716618601263,1.4516729062757392,0.05818120282047517,0.04317546597067191
0.6610000000000001,0.02200000000000071,-0.372,0.02197769088422678,1.4457453654527372,0.05821429660127151,0.042793550244857356
0.662,0.0252,-1.372,0.02185131663708598,1.4457453654527372,0.05781692638237466,0.042793550244857356
0.6630000000000001,0.028099999999990962,0.628,0.021763737227101586,1.4407742819588722,0.0575415423535576,0.04247325975385359
0.664,-0.0126,0.628,0.021456888970796405,1.4357859873184924,0.05657669103665711,0.04215186033627984
0.6650000000000001,-0.05360000000000113,-2.372,0.021350602128270234,1.4357859873184924,0.05624248349963081,0.04215186033627984
0.666,-0.0587,-0.372,0.021376315771590576,1.4446910642785098,0.05632333728357823,0.04272562086061429
0.6670000000000001,-0.04459999999999123,-0.372,0.02132444994668889,1.4496487165448526,0.056160250779320076,0.04304504596795206
0.668,-0.0051,-1.372,0.021305806851673683,1.4258348770601337,0.056101629573538696,0.04151070313290238
0.6689999999999999,-0.0001,-1.372,0.02129483812983208,1.417808048266079,0.05606713960823461,0.0409935287706484
0.67,-0.0143,0.628,0.02109761110038567,1.417808048266079,0.05544698044102566,0.0409935287706484
0.6709999999999999,0.0252,0.628,0.02104330187425897,1.3985101113521146,0.055276210924590556,0.03975014879178433
0.672,0.0408,1.628,0.021067294913181274,1.4117383244217345,0.055351654453191235,0.040602452090330796
0.6729999999999999,0.0075,-1.372,0.02097910283617446,1.4026240504194456,0.055074343958861474,0.040015212849843544
0.674,0.0119,0.628,0.020758333167255238,1.4056423910632831,0.05438015749564579,0.04020968671213623
0.6749999999999999,-0.0001,-0.372,0.020748142781371305,1.3716710252025224,0.054348114923990894,0.038020887134531084
0.676,-0.0253,1.628,0.02074584508436069,1.3611697693646478,0.05434089006303446,0.037344283655104525
0.6769999999999999,-0.009,1.628,0.0208669509155948,1.3558886424991707,0.054721694315134704,0.037004016846292245
0.678,-0.0238,-1.372,0.020825934953048606,1.3558886424991707,0.054592724035319014,0.037004016846292245
0.6789999999999999,0.0006,-0.372,0.02070804030311189,1.3558886424991707,0.05422201699719972,0.037004016846292245
0.68,0.0434,-1.372,0.020700400115190035,1.3463963536166492,0.05419799324856731,0.036392421834724936
0.6809999999999999,0.0261,-1.372,0.02072971466344725,1.3463963536166492,0.05429016969053538,0.036392421834724936
0.682,0.0211,0.628,0.020827196058106737,1.3474452033182005,0.05459668944444579,0.03645999997665589
0.6829999999999999,0.007,1.628,0.020969721432068614,1.3378930099672364,0.05504484514333978,0.035844545277027726
0.684,0.0259,1.628,0.021052305025164607,1.3314590271698972,0.05530452036363431,0.03542999912993267
0.6849999999999999,0.0302,2.628,0.021105797790698863,1.3260595804330377,0.05547272260760941,0.035082108886561846
0.686,0.0023,2.628,0.02093305506855234,1.332519634356367,0.05492955170954088,0.03549833481508779
0.6869999999999999,-0.0013,1.628,0.020855911834543592,1.3538032135551343,0.054686983112868535,0.036869651156948416
0.6880000000000001,0.002,0.628000000000111,0.0211174851435058,1.3538032135551343,0.05550947223064014,0.036869651156948416
0.689,0.017,1.628,0.021244828672241225,1.3335793980330695,0.05590989025119076,0.03556661615230087
0.6900000000000001,0.0037,1.628,0.021076641000946212,1.3400031999757411,0.055381042220279925,0.03598050633959474
0.691,0.006,1.6279999999996668,0.020745580086450194,1.2643796765478006,0.054340056805625744,0.031108028240994602
0.6920000000000001,-0.0095,-1.371999999999889,0.02080527973109241,1.2113439754318551,0.054527775912930176,0.027690899807702497
0.693,-0.0037,-0.372,0.02054633611319564,1.2125096542824179,0.05371355557568899,0.027766005335875626
0.6940000000000001,-0.0312,-0.372,0.020563592679129966,1.2113439754318551,0.053767816990003034,0.027690899807702497
0.695,-0.0352,-0.371999999999889,0.020501991185088133,1.2125096542824179,0.053574117721951184,0.027766005335875626
0.6960000000000001,-0.0026,0.627999999999889,0.020352636856597706,1.2136742135520084,0.053104489110519695,0.027841038728640095
0.697,-0.0243,-0.372,0.020250964113652372,1.2415640947531217,0.05278479011302523,0.029638003868124402
0.6980000000000001,0.0116,-0.372000000000111,0.02031290250506575,1.2688410878117051,0.05297954871860277,0.03139548018302077
0.699,0.0163,-1.371999999999667,0.020263003998315137,1.269953991698994,0.052822648234534794,0.03146718538228761
0.7000000000000001,0.0207,1.6279999999996668,0.020258781603431412,1.278909135140267,0.052809371368265155,0.03204417172608054
0.701,-0.0311,-1.371999999999778,0.02014023695324947,1.269953991698994,0.05243662047433211,0.03146718538228761
0.7020000000000001,-0.0242,0.628000000000222,0.020255317999984288,1.2598143796632,0.052798480440001724,0.030813882873580983
0.703,-0.0053,2.627999999999667,0.020328050652565707,1.2586925106209046,0.05302718043807195,0.030741600042917976
0.7040000000000001,-0.0111,-0.372,0.020383034809869013,1.2518515372064587,0.053200072202951317,0.030300831197140048
0.705,0.0154,3.628,0.02026810743720604,1.2575696407675157,0.05283869544886118,0.030669252729275162
0.7060000000000001,0.0488,-0.372,0.02027535737979896,1.2507225256999077,0.05286149211305756,0.030228088172359155
0.707,0.0006,-0.372,0.020626346020851814,1.2518515372064587,0.05396513811911518,0.030300831197140048
0.7080000000000001,-0.0181,-0.372,0.02065703559366733,1.251851537206459,0.054061638177817534,0.03030083119714006
0.709,-0.0122,-0.372,0.020363046735875974,1.2507225256999077,0.05313722185552973,0.030228088172359155
0.7100000000000001,-0.0071,-0.372,0.020318702739243546,1.2495924941276413,0.05299778693071505,0.030155279424009293
0.711,-0.0024,-0.372,0.02039141799082175,1.2461962512546274,0.05322643221320348,0.029936457048825263
0.7120000000000001,0.002,0.628,0.020313803945489796,1.2473293596937836,0.052982383200997164,0.03000946404192561
0.713,-0.01,0.628,0.020310096524580486,1.2415640947531217,0.05297072561496515,0.029638003868124402
0.7140000000000001,0.0009,-0.372,0.0201257128588861,1.2404257198506976,0.052390951022786174,0.029564657553001403
0.715,-0.0155,1.628,0.020088719093436153,1.239286299268294,0.05227462810884401,0.029491243863963946
0.7160000000000001,0.0051,-1.372,0.019504553945605234,1.2183213189849205,0.05043778367323001,0.028140455079761654
0.717,0.0076,-0.372,0.018629579297369765,1.2194803283391553,0.04768652006244744,0.028215130887481232
0.7180000000000001,-0.0043,0.628,0.018090051290441857,1.2299524954372054,0.04599003231225684,0.02888986015844347
0.719,-0.0108,-0.372,0.018276897939264687,1.2333934675403715,0.04657755148980058,0.02911156447015207
0.7200000000000001,-0.0051,-0.372,0.01835442060841965,1.2540180163870578,0.04682131317945286,0.030440419011619504
0.721,-0.0105,-2.372,0.018352141190735666,1.2540180163870578,0.04681414579587166,0.030440419011619504
0.7220000000000001,-0.0218,-0.372,0.018187326618061578,1.2630861492140388,0.04629590411053901,0.031024685342938542
0.723,-0.0141,1.628,0.017732571878350572,1.254018016387058,0.04486597677524884,0.03044041901161952
0.7240000000000001,-0.0207,-1.372,0.01772044955963123,1.2573931327005026,0.044827859448720475,0.03065788018734954
0.725,-0.0018,1.628,0.017765988927989206,1.2562691014465677,0.044971053091272285,0.0305854580438328
0.7260000000000001,0.0224,0.628,0.01778559216737537,1.283233556289898,0.04503269336769101,0.03232279729634741
0.727,0.0061,-0.372,0.017681240377012575,1.283233556289898,0.04470457039392925,0.03232279729634741
0.7280000000000001,0.0031,-0.372,0.017869153839232783,1.283233556289898,0.045295444051383485,0.03232279729634741
0.729,0.0005,-0.372,0.0178745584368982,1.2776303181337134,0.04531243822706363,0.03196177662500478
0.7300000000000001,-0.0116,-0.372,0.017877967865363012,1.2776303181337134,0.045323158807925853,0.03196177662500478
0.731,0.0221,0.628,0.01748791140853772,1.2809432206594897,0.0440966682599101,0.032175229321572456
0.7320000000000001,0.0267,-0.372,0.01732404496747637,1.2742217112679113,0.04358140787238946,0.03174215762885758
0.733,0.0223,-0.372,0.017348223993446862,1.2731125380552604,0.04365743621724601,0.031670692799645475
0.7340000000000001,0.0183,0.628,0.017553003471080943,1.2629982837389258,0.044301343244936356,0.031019024107072964
0.735,0.0001,-1.372,0.01751507657934828,1.2528023766346537,0.044182086215827455,0.03036209446654563
0.7360000000000001,-0.0162,-3.372,0.017388392447939688,1.232157479890199,0.04378374159920234,0.02903192889536503
0.737,-0.037,-1.372,0.017646305821336087,1.2146549387938737,0.04459472244349388,0.02790422756255215
0.7380000000000001,-0.0237,-0.372,0.017669579855545337,1.2052224630429569,0.044667905139158436,0.027296486354147435
0.739,-0.0118,-1.372,0.017670854024793327,1.214654938793873,0.04467191162722416,0.02790422756255211
0.7400000000000001,0.0218,-1.372,0.017646819712706114,1.204049729251376,0.04459633831959852,0.027220926271041675
0.741,0.0264,-0.372,0.01774970085736211,1.2005246543787678,0.04491983700621592,0.026993803157304767
0.7420000000000001,0.0046,0.628,0.01774685073470069,1.1909802730768688,0.044910875102256255,0.026378851793626187
0.743,0.0165,-0.372,0.017746850734700687,1.1909802730768702,0.04491087510225625,0.02637885179362627
0.7440000000000001,0.0128,0.628,0.017751463365357344,1.1921658633643533,0.044925379022914096,0.02645524023002568
0.745,0.0094,0.628,0.017476922544247393,1.1993473270317718,0.04406211495884386,0.02691794710811411
0.7460000000000001,0.0065,2.628,0.017158071090924938,1.2005246543787738,0.043059520880786496,0.026993803157305155
0.747,0.0198,2.628,0.017158379788387766,1.2275627542400065,0.04306049154673428,0.028735887411381913
0.7480000000000001,0.0078,0.628,0.017020168968949752,1.2379665526270676,0.04262590250017951,0.02940621163703783
0.749,0.0013,1.628,0.01729701287769215,1.2597262859833125,0.043496408375436356,0.030808206934317378
0.7500000000000001,-0.0046,0.628,0.017263792240334763,1.2528909571508355,0.0433919496566921,0.030367801773022434
0.751,-0.025,-0.372,0.017225192851407868,1.2437484937065573,0.04327057803253456,0.029778746266478293
0.7520000000000001,-0.0225,-0.372,0.017193659533569782,1.2379665526270778,0.043171424908418195,0.02940621163703849
0.753,-0.0294,-0.372,0.017116580087131027,1.2379665526270767,0.042929056884894456,0.029406211637038417
0.7540000000000001,0.0043,-1.372,0.017148844706480752,1.2111607307031345,0.043030509507906635,0.027679093217809522
0.755,0.009,-0.372,0.017122869199757963,1.2217042135571874,0.042948832322673706,0.028358417414311565
0.7560000000000001,-0.0392,0.628,0.017086848311052137,1.1667302369319636,0.042835568514945965,0.02481640449349607
0.757,-0.0204,0.628,0.016384790931445323,1.1679404439800574,0.04062802464485913,0.024894379005517147
0.7580000000000001,-0.003,-0.372,0.016385594120538007,1.1679404439800574,0.04063055018651652,0.024894379005517147
0.759,0.0126,-0.372,0.016296033275059484,1.1679404439800574,0.04034893574704344,0.024894379005517147
0.7600000000000001,0.0173,-1.372,0.016251979378992556,1.1691493983222807,0.04021041301223442,0.024972272804796466
0.761,0.013,0.628,0.01625518139048404,1.1703571038406904,0.040220481392747615,0.025050086141457734
0.7620000000000001,0.0249,0.628,0.016260724448499464,1.1703571038406904,0.040237910942096326,0.025050086141457734
0.763,0.0068,-0.372,0.016261130633755106,1.1703571038406904,0.040239188147916334,0.025050086141457734
0.7640000000000001,-0.003000000000004574,-0.372,0.01623733510129381,1.1800682969317422,0.04016436565712533,0.025675785308893573
0.765,-0.0236,0.628,0.016273925727071273,1.1812648392026235,0.04027942094175593,0.025752879389473852
0.7660000000000001,-0.010199999999997336,0.628,0.01625051838103683,1.171563564397332,0.04020581906140496,0.025127819264335327
0.767,0.0018,1.628,0.016307375560843926,1.1642107284922263,0.04038460034396035,0.02465407074950494
0.7680000000000001,0.026499999999997845,1.628,0.016289421421029657,1.1873229343823692,0.04032814548365838,0.026143206826553307
0.769,0.0168,2.628,0.016342687888241142,1.193350275771668,0.04049563615691325,0.026531552774757227
0.7700000000000001,0.013899999999998223,0.628,0.016314225657694702,1.2040497292513908,0.040406139736254613,0.02722092627104262
0.771,0.0059,1.628,0.016465754745109043,1.2052224630429713,0.04088260664306032,0.027296486354148365
0.7720000000000001,-0.005999999999999512,0.628,0.016437557314998155,1.193257275307982,0.040793942858871696,0.026525560687878307
0.773,-0.0038,1.628,0.01631098880174982,1.1932572753079815,0.04039596179110791,0.02652556068787828
0.7740000000000001,-0.017499999999997982,-0.372,0.016287892886159706,1.183654295038214,0.040323339170270915,0.025906833750481393
0.775,-0.0084,2.628,0.01615818858815109,1.187229461772854,0.039915497964822445,0.026137184318978456
0.7760000000000001,0.01630000000000244,1.628,0.016240783815141442,1.1775773265431195,0.040175209766645674,0.025515290292096444
0.777,0.0273,1.628,0.016084865867639377,1.183654295038209,0.03968494256165245,0.025906833750481063
0.7780000000000001,0.024099999999995427,0.628,0.01620391400421932,1.184847215920863,0.04005927661437545,0.025983694502408772
0.779,0.0035,-0.372,0.016365389128574985,1.213399863942001,0.04056701776388448,0.02782336218560789
0.7800000000000001,0.022499999999997355,1.628,0.016369369676601003,1.223924057954781,0.040579534168739224,0.028501443588169775
0.781,0.0106,-0.372,0.016471507489909606,1.2250777667370805,0.04090069552993702,0.02857577787622068
0.7820000000000001,-0.02310000000000102,-0.372,0.016424720198993444,1.2309202511647432,0.04075357792921072,0.028952213357203327
0.783,-0.0277,-0.372,0.016227928670910427,1.2309202511647437,0.04013478814916741,0.028952213357203355
0.7840000000000001,-0.023299999999999668,-0.372,0.016074980842294348,1.2378769041445348,0.0396538601633472,0.029400435520719605
0.785,-0.0218,-1.372,0.01597953024230041,1.2367351353064409,0.03935372602469498,0.029326870531876183
0.7860000000000001,0.030099999999995335,1.628,0.015981722974951627,1.2367351353064406,0.039360620836520255,0.02932687053187617
0.787,0.0091,0.628,0.015936218102563224,1.1979835828288612,0.03921753566283208,0.02683008008658996
0.7880000000000001,0.0028999999999961583,1.628,0.015513396237748212,1.2015161128617993,0.03788801781582389,0.027057683541678097
0.789,-0.0144,-0.372,0.015353218187735176,1.2026913171631137,0.03738435517698549,0.027133402801505918
0.7900000000000001,-0.019499999999996825,-1.372,0.015318991699214742,1.2062100601133279,0.037276733667515424,0.027360117944921034
0.791,-0.0052,0.628,0.015166044187680772,1.1990696994051744,0.036795806678725784,0.026900059360111316
0.7920000000000001,-0.009499999999999112,-1.372,0.014954723712916944,1.1990696994051744,0.036131332189546575,0.026900059360111316
0.793,-0.0055,0.628,0.014961824481111437,1.1990696994051744,0.03615365979090224,0.026900059360111316
0.7940000000000002,-0.0018000000000021538,-1.372,0.014933442316561237,1.2097185680387197,0.036064415129151546,0.027586173638312866
0.795,-0.0115,0.628,0.014894255474937838,1.2191162572825727,0.035941196323215414,0.028191673527004985
0.7959999999999999,-0.0028,2.628,0.01493921152918465,1.2191162572825727,0.03608255579732481,0.028191673527004985
0.797,0.0107,1.628,0.015377795765369821,1.1978909420805375,0.03746163672465518,0.026824111176431003
0.7979999999999999,0.0329,-2.372,0.01550855943080538,1.1762826911361604,0.0378728089969615,0.025431876000085944
0.799,0.0123,-0.372,0.015493702794899837,1.1750810757362704,0.037826093904326535,0.025354455054148625
0.7999999999999999,-0.0173,0.628,0.015608594010369743,1.1653283226801332,0.038187356966014545,0.024726078148219813
0.801,-0.0293,0.628,0.015846856870288594,1.1653283226801332,0.038936548885594946,0.024726078148219813
0.8019999999999999,0.0178,0.628,0.015714909140942708,1.1943476899042194,0.038521653451759445,0.026595816885919953
0.803,0.0117,0.628,0.015640513186957646,1.205038287443839,0.03828772338144102,0.02728461978760411
0.8039999999999999,-0.0058,1.628,0.015428658116106324,1.2583397847392612,0.03762156791240148,0.030718873660236873
0.805,-0.0108,-0.372,0.015675556551756138,1.2785619865730877,0.038397913470449775,0.03202180469378862
0.8059999999999999,-0.0061,0.628,0.0157637368616067,1.2796664363898655,0.03867518696422316,0.032092965191201576
0.807,-0.0018,-0.372,0.015271850270998805,1.285260797891503,0.0371285025201646,0.032453413933296406
0.8079999999999999,-0.0058,-0.372,0.015145128114374804,1.2841611595448934,0.036730038337342154,0.032382563442372884
0.809,-0.0021,0.628,0.015144579570389975,1.2841611595448936,0.036728313499819816,0.032382563442372905
0.8099999999999999,0.0077,0.628,0.015156886535171337,1.294110023726623,0.03676701142601736,0.03302357592941491
0.811,0.0048,-0.372,0.015267455712107438,1.2874572569303955,0.03711468430270237,0.032594933371645166
0.8119999999999999,0.0023,0.628,0.015214824002533208,1.2930179111662388,0.036949189556521,0.032953210330319956
0.8130000000000001,0.0046,1.6279999999998889,0.015055525738774188,1.2985547538593312,0.036448293310869906,0.033309953094139914
0.814,-0.011,0.628,0.015170332044720606,1.3193155721602898,0.03680928938369983,0.034647587574723554
0.8150000000000001,-0.0128,0.627999999999889,0.015260793806890346,1.3193155721602898,0.03709373665874579,0.034647587574723554
0.816,-0.0146,-0.37200000000022204,0.01601082700255314,1.3279378802706285,0.0394521353189441,0.03520312909834801
0.8170000000000001,0.0001,-2.371999999999889,0.016255088466130788,1.3754618564673842,0.04022018920211995,0.03826513312408919
0.818,0.0138,-1.371999999999667,0.016341156505668683,1.3671393066120532,0.040490820889231734,0.03772890524080035
0.8190000000000001,0.0047,1.6279999999998889,0.016175937290695126,1.357725676953062,0.039971306849738694,0.03712237829967636
0.82,0.0228,0.628000000000111,0.01609615548439043,1.3322697583892678,0.039720441546462454,0.035482235126500575
0.8210000000000001,-0.0041,1.6279999999997778,0.016057816860503893,1.3376441377633153,0.03959988986990905,0.03582851026162526
0.822,-0.0077,-0.371999999999889,0.01604680324124078,1.3280214491741194,0.03956525872949518,0.03520851350300843
0.8230000000000001,-0.0111,0.628000000000111,0.01608958845684395,1.3334129516546975,0.03969979223512975,0.035555891892223496
0.824,-0.0024,1.6279999999998889,0.01615733509235019,1.3248262771878716,0.039912814239135404,0.03500264626992338
0.8250000000000001,0.0164,0.627999999999778,0.016116569708164243,1.3248262771878716,0.0397846318760046,0.03500264626992338
0.826,-0.0003,-1.371999999999778,0.01611124624139482,1.2998129845871829,0.03976789280769507,0.0333910218064472
0.8270000000000001,-0.0206,0.628000000000222,0.01602912277844732,1.2965482984302543,0.039509664417130205,0.03318067572526263
0.828,-0.0232,2.627999999999889,0.015797385286988697,1.28661828851309,0.03878099081636941,0.03254087803207038
0.8290000000000001,0.0036,1.6279999999998889,0.015618903349261868,1.292182553090049,0.03821977357260118,0.0328993876076244
0.83,0.0216,0.627999999999778,0.015615289387309493,1.302070128808872,0.038208409858200565,0.03353645123484513
0.8310000000000001,0.0183,-1.371999999999889,0.015484223812143075,1.302070128808872,0.037796288263239095,0.03353645123484513
0.832,-0.0086,-0.372000000000111,0.015795016573344933,1.302070128808872,0.038773542651253316,0.03353645123484513
0.8330000000000001,0.0023,-1.372,0.016200138844535705,1.302070128808872,0.04004740603105813,0.03353645123484513
0.834,0.0055,-0.372,0.016203564175315086,1.3020701288088723,0.040058176615037,0.033536451234845145
0.8350000000000001,0.0026,-1.372,0.016036986004793034,1.3031546551539348,0.03953438948608155,0.03360632804862131
0.836,-0.0108,-1.372,0.015920574931224157,1.297637439763282,0.03916834739417858,0.033250849886038325
0.8370000000000001,0.0059,1.628,0.015659214963697838,1.2943672664033004,0.0383465291055909,0.0330401502604077
0.838,0.008,0.628,0.015760525781438023,1.2932753710727407,0.038665090068230566,0.032969798657586855
0.8390000000000001,-0.0058,1.628,0.015762226977876378,1.2844203947735795,0.0386704392973369,0.032399266154927164
0.84,0.0033,-0.372,0.01570458243443824,1.310805880078881,0.038489182234585015,0.03409930198297902
0.8410000000000001,-0.008,-0.372,0.015586681872406232,1.3042382796722338,0.03811845660651838,0.03367614675704937
0.842,-0.0066,0.628,0.015587026493945888,1.3031546551539346,0.03811954023185936,0.0336063280486213
0.8430000000000001,0.0137,1.628,0.015645103050221987,1.297637439763282,0.03830215571248412,0.033250849886038325
0.844,-0.007,1.628,0.01564975554672408,1.3226918745125187,0.03831678498700232,0.03486512516778695
0.8450000000000001,-0.015,0.628,0.01564927946112616,1.3161835851485375,0.03831528798707916,0.034445791395067836
0.846,-0.0371,-1.372,0.01578250777701724,1.3568483666800752,0.038734210087480785,0.03706585256671606
0.8470000000000001,-0.0283,-1.372,0.016011943876138756,1.3516324632078427,0.0394556472077287,0.03672978814812173
0.848,-0.004,-0.372,0.016154305983903817,1.3421100721517834,0.0399032895336386,0.03611625363182581
0.8490000000000001,0.0189,0.628,0.015888002125492278,1.3281885712067705,0.03906592571225678,0.0352192812959778
0.85,0.0277,0.628,0.01604309333492785,1.3292517878856889,0.03955359332837898,0.03528778511261142
0.8510000000000001,0.0143,2.628,0.016518299850649454,1.3292517878856887,0.041047829072178244,0.03528778511261141
0.852,0.0164,1.628,0.016268552321058963,1.3292517878856887,0.04026252484487194,0.03528778511261141
0.8530000000000001,0.0142,3.628,0.016447188122670972,1.3292517878856887,0.04082422589706726,0.03528778511261141
0.854,0.028,2.628,0.016425890589725243,1.3292517878856887,0.04075725809690163,0.03528778511261141
0.8550000000000001,0.0189,0.628,0.016421334038367208,1.3292517878856889,0.040742930511562664,0.03528778511261142
0.856,-0.0025,-1.372,0.016404920764115326,1.3303141548184465,0.040691320737183415,0.035356234179487696
0.8570000000000001,-0.0054,-0.372,0.01643165216170927,1.3303141548184465,0.04077537473990668,0.035356234179487696
0.858,0.0026,-0.372,0.01643240481598327,1.3367536480583473,0.040777741380265624,0.03577113536836708
0.8590000000000001,-0.0141,1.628,0.016432058037132487,1.346313925287611,0.04077665097149198,0.036387110918098244
0.86,-0.0253,-0.372,0.01643125802286346,1.3516324632078425,0.04077413541272588,0.036729788148121716
0.8610000000000001,-0.0032,-1.372,0.01643078929676157,1.360049907360137,0.04077266155394592,0.037272130139331984
0.862,-0.0119,-1.372,0.01642466857913336,1.360049907360137,0.04075341561611636,0.037272130139331984
0.8630000000000001,-0.0199,-2.372,0.016438972632063047,1.3653149382777157,0.04079839317105641,0.037611359874624585
0.864,0.0168,-0.372,0.016434524037704536,1.3558886424991734,0.0407844050448834,0.03700401684629242
0.8650000000000001,0.0538,1.628,0.0164030121624157,1.3548463292732627,0.040685319344555354,0.03693685985419629
0.866,0.0298,3.628,0.016361499281857015,1.3538032135551377,0.04055478655953101,0.03686965115694863
0.8670000000000001,0.0168,0.628,0.016355423621709973,1.3548463292732627,0.04053568230010161,0.03693685985419629
0.868,0.0129,-0.372,0.016357731127159165,1.3356964028866334,0.0405429380026375,0.0357030163002449
0.8690000000000001,-0.0052,-0.372,0.016299071409629273,1.3356964028866367,0.04035848883421389,0.03570301630024512
0.87,-0.0085,-1.372,0.016307397238707885,1.326059580433047,0.04038466850767045,0.03508210888656245
0.8710000000000001,0.0002,-0.372,0.016171287706696062,1.3249938022289953,0.03995668673327281,0.03501344002901899
0.872,-0.0132,-1.372,0.016184777539934067,1.3410570498149117,0.039999104062024095,0.036048406643994925
0.8730000000000001,-0.0153,0.628,0.016176213812363414,1.3410570498149121,0.039972176342363525,0.03604840664399495
0.874,-0.0132,-0.372,0.016138459224124584,1.3410570498149117,0.039853461103046536,0.036048406643994925
0.8750000000000001,-0.0073,0.628,0.016160991667333514,1.341057049814913,0.03992431194562554,0.036048406643995015
0.876,0.0018,-1.372,0.016165078193171825,1.3410570498149141,0.03993716158630501,0.036048406643995085
0.8770000000000001,0.0032,-0.372,0.01619149332367918,1.3346383202093757,0.04002022112121326,0.03563484327103715
0.878,0.0047,-1.372,0.01607050551950458,1.3400031999757562,0.0396397879924988,0.035980506339595715
0.8790000000000001,0.0011,1.628,0.015958030850084078,1.3152785659772752,0.03928612349977837,0.034387480357828334
0.88,-0.0101,1.628,0.016174934542694926,1.3065727194481842,0.039968153816574474,0.033826556393697124
0.8810000000000001,-0.033,-0.372,0.016150598898276282,1.3065727194481853,0.03989163300186404,0.033826556393697194
0.882,-0.0428,-0.372,0.016051366803693207,1.3010699985136327,0.03957960836046588,0.03347201211936351
0.8830000000000001,-0.0279,-0.372,0.016038537088761184,1.3010699985136325,0.03953926670268143,0.033472012119363494
0.884,0.0018,0.628,0.016036832173615984,1.2944530026019798,0.03953390578050166,0.03304567430545859
0.8850000000000001,-0.0101,0.628,0.016068056051585775,1.2955439054151343,0.03963208590425615,0.03311596195966795
0.886,0.0091,-1.372,0.016080886435151813,1.2888985397506338,0.0396724296644883,0.032687796262147635
0.8870000000000001,0.02,-0.372,0.016124984765115983,1.2822187335569286,0.03981109211690493,0.03225741153651745
0.888,0.0037,0.628,0.01643351676687897,1.2933611796525608,0.04078123779018159,0.03297532736620678
0.8890000000000001,-0.004999999999998224,2.628,0.016414422182058176,1.2933611796525597,0.04072119692329888,0.03297532736620671
0.89,0.003,-0.372,0.016416261800168128,1.29008016661493,0.04072698140445368,0.0327639293323356
0.8910000000000001,0.0052000000000024865,-0.372,0.016446722744794747,1.290080166614929,0.04082276256642253,0.032763929332335545
0.892,0.0164,0.628,0.016440966235224987,1.2999837330210091,0.04080466184163429,0.033402023251056984
0.8930000000000001,0.006599999999998801,2.628,0.016737671411910886,1.308733410986462,0.04173761933633766,0.03396577130621202
0.894,0.0012,-0.372,0.016755289024063466,1.324993802229001,0.0417930160216268,0.03501344002901936
0.8950000000000001,-0.023500000000000822,-3.372,0.016756144409942886,1.316352210098896,0.041795705690462315,0.03445665602210789
0.896,-0.0272,-2.372,0.01670102579273057,1.316352210098895,0.04162239113087054,0.03445665602210782
0.8970000000000001,-0.023999999999998068,-0.372,0.01633790840566023,1.3163522100988925,0.04048060758833729,0.03445665602210766
0.898,-0.0153,-1.372,0.01634662762085937,1.310890541143032,0.04050802422211103,0.03410475675633764
0.8990000000000001,0.025400000000003885,0.628,0.016623097191856503,1.317424979247494,0.04137735303261661,0.03452577531124519
0.9,0.0429,0.628,0.01682662387372345,1.3580525896640288,0.04201732077885143,0.03714344152117328
0.9010000000000001,0.006000000000005329,0.628,0.01661335325335296,1.3633253340516844,0.041346714266699724,0.037483168240900235
0.902,0.03,0.628,0.01674126227766078,1.3379759570814733,0.04174891042721534,0.035849889619358546
0.9030000000000001,0.008199999999999113,0.628,0.016790211666932422,1.3348046137877358,0.04190282651352103,0.03564555768609968
0.904,0.0042,1.628,0.01681427648170557,1.2857787726704675,0.0419784957335597,0.032486787421488035
0.9050000000000001,0.0078000000000007326,0.628,0.01681095140093376,1.25999054854548,0.041968040374940056,0.03082523356158989
0.906,0.0111,0.628,0.016704807713404227,1.2690160035779494,0.04163428297339339,0.03140675013186066
0.9070000000000001,0.0022999999999982236,-1.372,0.016704399196363077,1.2622309821304367,0.041632998435524815,0.030969586311623696
0.908,-0.0057,1.628,0.01681941736332948,1.2633497089733252,0.041994660682530195,0.03104166668811507
0.9090000000000001,0.001200000000001421,-1.372,0.016850396466841357,1.2734611721560343,0.04209207113934603,0.03169315554593717
0.91,0.0076,1.628,0.01679275396368388,1.2734611721560343,0.04191082049203709,0.03169315554593717
0.9110000000000001,0.0017999999999979794,-0.372,0.01660202981635538,1.2834929788725202,0.04131110893776447,0.03233951208025078
0.912,-0.0073,-1.372,0.016636461938428854,1.2767848925046354,0.04141937703981041,0.031907305242623314
0.9130000000000001,-0.002700000000000311,-0.372,0.01660073523130568,1.2711532289830791,0.04130703825440755,0.03154445310451029
0.914,-0.0041,-0.372,0.01648394843084579,1.2564457674197984,0.04093981472973401,0.030596840759769792
0.9150000000000001,-0.005200000000001931,-0.372,0.016409868690025305,1.2778908782212552,0.04070687895767863,0.031978564699169654
0.916,-0.0139,0.628,0.01550196630399188,1.2745700419757395,0.03785207761929263,0.0317646008273232
0.9170000000000001,0.002699999999999512,0.628,0.015223454868272588,1.2496813021682853,0.03697632838492729,0.030161001390051116
0.918,0.0005,-1.372,0.015159996936033251,1.3000690988282404,0.03677679174676562,0.03340752343152001
0.9190000000000002,0.007000000000000422,-0.372,0.015370137968597514,1.3011552930534813,0.0374375576068877,0.033477507708017724
0.92,0.0089,-0.372,0.0156701656004003,1.3218752690080315,0.0383809622041214,0.03481251068679677
0.9210000000000002,-0.007799999999999511,2.628,0.015713023110875295,1.3358625647505953,0.03851572303319957,0.035713722228853856
0.922,-0.0056,-0.372,0.015798858955415072,1.342275440060281,0.03878562460813014,0.03612690840531218
0.9230000000000002,0.0001999999999979794,0.628,0.015758507399207183,1.3454291738059174,0.03865874348253742,0.03633010574269983
0.924,-0.0089,1.628,0.015822558153239796,1.3538851859153682,0.03886014418502462,0.03687493269517654
0.9249999999999999,-0.0169,0.628,0.01610438638724791,1.3633253340516804,0.03974632273463326,0.03748316824089998
0.926,-0.0093,-0.372,0.016105314213413383,1.3633253340516804,0.03974924018415177,0.03748316824089998
0.9269999999999999,-0.0057,-1.372,0.016128539700896078,1.3580525896640236,0.03982227022985959,0.037143441521172944
0.928,0.0132,0.628,0.01612526839174519,1.3580525896640236,0.03981198395031468,0.037143441521172944
0.9289999999999999,0.0266,0.628,0.016120441574431103,1.3517145672094308,0.03979680654276473,0.03673507816809716
0.93,0.0197,0.628,0.016181157627608838,1.3432448906633374,0.03998772163731647,0.0361893708061228
0.9309999999999999,0.0041,0.628,0.016167109808312888,1.3347214695883722,0.03994354978146014,0.035640200645432156
0.932,-0.0057,-0.372,0.015840136378133304,1.3411398012389038,0.03891541702131672,0.03605373837786228
0.9329999999999999,-0.0003,-0.372,0.015424071244234066,1.3411398012389038,0.03760714498746884,0.03605373837786228
0.934,-0.0115,0.628,0.015216008180234705,1.3411398012389038,0.03695291307585428,0.03605373837786228
0.9349999999999999,-0.007,-0.372,0.015216133156630483,1.3496226885245164,0.036953306050680014,0.03660029691730174
0.936,-0.0161,-0.372,0.015187552915109391,1.3580525896640236,0.036863438557212705,0.037143441521172944
0.9369999999999999,-0.0323,-2.372,0.015183495659888958,1.3517145672094306,0.03685068095484086,0.03673507816809714
0.9380000000000001,0.0014,0.627999999999778,0.015128601567391502,1.3527592934883856,0.03667807238905012,0.03680239063493943
0.939,0.0062,-1.371999999999889,0.015143292708626674,1.3517145672094306,0.03672426710150574,0.03673507816809714
0.9400000000000001,0.0105,-0.37199999999977795,0.015140627827133121,1.3357794864022883,0.03671588766846154,0.03570836943101736
0.941,0.0066,1.628,0.015209228241998815,1.3357794864022883,0.03693159428977359,0.03570836943101736
0.9420000000000001,0.032,1.628000000000111,0.015205557672283267,1.3559704887891646,0.036920052578354186,0.037009290261723976
0.943,0.0157,2.627999999999778,0.015118979706067702,1.3549282385256087,0.03664781748168617,0.036942137326337735
0.9440000000000001,0.0071,0.628,0.015133863226510473,1.3304809888638296,0.03669461710985496,0.0353669834172299
0.945,-0.0063,0.627999999999778,0.01515266057553769,1.3400860164758488,0.03675372335077526,0.0359858422663631
0.9460000000000001,-0.0132,-1.371999999999778,0.014978653571980074,1.304408448830405,0.03620657705587992,0.03368711087851135
0.947,-0.0288,0.627999999999778,0.014734852416187005,1.2845067948902396,0.035439970560991296,0.032404832976691875
0.9480000000000001,-0.0305,-1.3720000000002222,0.014547365027251877,1.285606137598998,0.03485043664512515,0.03247566441945565
0.949,-0.0323,-3.371999999999778,0.014479880247970254,1.280013285422557,0.03463823801983509,0.03211531292427064
0.9500000000000001,-0.0076,-1.371999999999889,0.014257089520012138,1.278909135140269,0.03393769655399142,0.03204417172608067
0.951,0.0251,-0.372000000000111,0.013634802519068968,1.2845067948902396,0.03198098205419345,0.032404832976691875
0.9520000000000001,0.0208,-1.371999999999778,0.013682770657267617,1.2834065105048278,0.03213181270210889,0.032333940861022877
0.953,0.0168,0.628,0.013518310434316705,1.2823052820187404,0.031614685231343274,0.03226298791626716
0.9540000000000001,0.0278,0.628000000000111,0.013510470709719781,1.2878881808864955,0.03159003406111158,0.03262269811260252
0.955,-0.0019,1.6279999999997778,0.01351321249590799,1.2845931891957367,0.031598655312691126,0.03241039942403917
0.9560000000000001,0.0021,-0.371999999999889,0.013490428625846321,1.2834929788725191,0.03152701388543391,0.0323395120802507
0.957,0.0203,0.628000000000111,0.013453745324232423,1.2923543096721077,0.03141166719161003,0.032910454007951125
0.9580000000000001,0.0105,1.628,0.013581759986875322,1.286790787795011,0.0318141955205008,0.03255199228508435
0.959,0.0018,1.628,0.0137850132696268,1.277890878221254,0.032453303592642056,0.031978564699169564
0.9600000000000001,-0.0008,1.628,0.014233029165223829,1.2812031069975278,0.03386204135789506,0.03219197398557138
0.961,0.0111,-0.372,0.014480855720069812,1.2778908782212455,0.03464130528686535,0.03197856469916902
0.9620000000000001,0.0046,0.628,0.01449883330301187,1.2878881808864857,0.03469783386155955,0.03262269811260189
0.963,0.0027,-1.372,0.014481331492980674,1.291174764006079,0.034642801303577705,0.03283445503086696
0.9640000000000001,-0.0064,-2.372,0.014484022998376945,1.291174764006079,0.03465126445261856,0.03283445503086696
0.965,-0.0017,-1.372,0.014623453006263257,1.291174764006079,0.03508968710603184,0.03283445503086696
0.9660000000000001,-0.006,2.628,0.014681753443819917,1.2922684342346102,0.03527300655724772,0.032904920991642876
0.967,-0.0096,3.628,0.014622762995495425,1.2922684342346102,0.035087517441435935,0.032904920991642876
0.9680000000000001,-0.0285,0.628,0.014627893341463525,1.2911747640060782,0.035103649262170654,0.03283445503086691
0.969,-0.031,-2.372,0.01463139563521908,1.2856061375989876,0.035114661847944845,0.03247566441945498
0.9700000000000001,-0.0144,-2.372,0.014622104804444959,1.2867045410447593,0.03508544783051665,0.03254643534482781
0.971,-0.0165,-1.372,0.014614202089796418,1.2878020076309176,0.035060598594847045,0.03261714590766078
0.9720000000000001,-0.0068,1.628,0.014612135912274105,1.2620551259878394,0.035054101722003905,0.030958255773657874
0.973,0.0208,1.628,0.014660677513980066,1.2688410878116942,0.03520673556419812,0.03139548018302007
0.9740000000000001,0.0327,1.628,0.014736667318943608,1.2688410878116931,0.03544567732737752,0.03139548018302
0.975,0.0074,0.628,0.014940675784025853,1.2586925106208926,0.03608715998908013,0.030741600042917202
0.9760000000000001,-0.0089,0.628,0.014927619786002662,1.2575696407675037,0.036046106808469584,0.03066925272927439
0.977,-0.0002,-0.372,0.014906203107556823,1.2575696407675037,0.03597876436810209,0.03066925272927439
0.9780000000000001,-0.0027,-0.372,0.014955217081619435,1.2507225256998957,0.03613288353433194,0.03022808817235838
0.979,0.014,0.628,0.014981555561441,1.2711532289830654,0.03621570204940839,0.0315444531045094
0.9800000000000001,0.0074,0.628,0.014755403242777897,1.2700413759563332,0.03550459042338965,0.03147281561294532
0.981,-0.0063,-1.372,0.014625011475886707,1.268928548708728,0.0350945875460299,0.03140111535162851
0.9820000000000001,-0.023,-0.372,0.01461911848904962,1.268928548708728,0.03507605768316314,0.03140111535162851
0.983,-0.0118,-0.372,0.01485474674916248,1.295629563751573,0.035816965387206766,0.03312148098799856
0.9840000000000001,0.0019,1.628,0.014881075271018063,1.2956295637515727,0.03589975259053093,0.033121480987998546
0.985,0.0037,1.628,0.014837275614223091,1.294538733122371,0.035762029283749656,0.03305119798465327
0.9860000000000001,0.0084,-0.372,0.01485172252196949,1.295629563751573,0.035807456030285865,0.03312148098799856
0.987,0.0153,0.628,0.014765572805478796,1.2967194767489645,0.035536567518786616,0.03319170486766519
0.9880000000000001,0.0076,-0.372,0.01443327851931731,1.2967194767489645,0.03449170389967404,0.03319170486766519
0.989,0.004,1.628,0.014435566435242107,1.302240581288295,0.03449889800505883,0.03354743361089947
0.9900000000000001,-0.0148,-0.372,0.01444916136283113,1.3054910326360467,0.03454164579168594,0.0337568625330731
0.991,0.004,-2.372,0.014427825498398154,1.3314590271698885,0.03447455746228415,0.03542999912993211
0.9920000000000001,-0.0029,-0.372,0.014633754323099477,1.3314590271698885,0.03512207848812706,0.03542999912993211
0.993,-0.0095,0.628,0.014282136233031616,1.3217913115186328,0.034016453247387245,0.034807101245266335
0.9940000000000001,-0.0077,1.628,0.014205080753663692,1.3022405812882998,0.03377416058573824,0.033547433610899784
0.995,0.005,-1.372,0.014310411059400419,1.3109751967398569,0.03410536039577899,0.0341102111774325
0.9960000000000001,0.0035,0.628,0.014356214733057433,1.309897145410315,0.034249385117897324,0.03404075155357135
0.997,0.0049,0.628,0.014400755636054922,1.3131286442284131,0.034389439193584566,0.034248959350604756
0.9980000000000001,0.006,0.628,0.014150281252683264,1.3185810428134928,0.03360184945279222,0.03460026131970639
0.999,-0.0028,-0.372,0.013892103308537473,1.3185810428134905,0.032790036694254086,0.03460026131970624
1.0,-0.0105,-1.372,0.013519953594332572,1.27669796981087,0.031619851971165354,0.031901704750839206
1.001,-0.013,-0.372,0.013499875878399716,1.2710659211642938,0.03155671975431188,0.031538827798843684
1.0020000000000002,-0.0214,-0.372,0.013348637215043532,1.2778040307622358,0.031081166054699672,0.031972969054814435
1.0030000000000001,-0.0069,-1.372,0.013185680735049502,1.271065921164296,0.03056876694181916,0.03153882779884382
1.004,-0.0051,-1.372,0.01308692415448259,1.2699539916989997,0.030258237503066845,0.03146718538228799
1.005,0.0003,-0.3719999999995559,0.012791253737906514,1.269953991698999,0.029328533700161044,0.031467185382287946
1.0060000000000002,0.005,1.628,0.012824769839558813,1.2609352505657105,0.029433921474580817,0.03088610139337853
1.0070000000000001,0.0187,0.628,0.012847575187727217,1.260935250565711,0.029505630437433043,0.030886101393378558
1.008,0.0242,0.628,0.012701736258525788,1.2609352505657103,0.02904705562071514,0.030886101393378516
1.009,0.0354,1.6279999999993338,0.012660816133603361,1.2575696407675234,0.028918386691992704,0.03066925272927566
1.0100000000000002,0.0277,-1.372,0.012675369604986685,1.2484614397197618,0.028964148516416134,0.03008240477362396
1.0110000000000001,0.0074,1.628,0.01268099942404645,1.2392862992683018,0.02898185087653098,0.029491243863964445
1.012,-0.0014,1.628,0.012679227785575004,1.2666123464948442,0.028976280150033038,0.03125188077424424
1.013,-0.0039,-0.372,0.012780904161275485,1.2654965038988286,0.02929599057033508,0.031179986231856888
1.0140000000000002,-0.020599999999998557,-0.372,0.012823095380091328,1.259814379663208,0.02942865631700178,0.0308138828735815
1.0150000000000001,-0.0141,0.628,0.012825155255998925,1.259814379663208,0.029435133375095665,0.0308138828735815
1.016,-0.004399999999997979,0.628,0.01295897551709449,1.259814379663208,0.02985591678348371,0.0308138828735815
1.017,0.0047,-0.37199999999977795,0.012975521213877713,1.2334834418751466,0.02990794294626057,0.02911736158136503
1.0180000000000002,-0.003300000000000333,0.628,0.0129544843768037,1.1863196141070376,0.029841794876205724,0.026078562178356066
1.0190000000000001,-0.0048,0.628,0.012643248050152833,1.19235202729271,0.02886314574437656,0.026467234906054387
1.02,0.007499999999996692,0.628,0.012303092586195878,1.1693392265784426,0.027793563497758394,0.02498450357610568
1.021,-0.0074,0.6279999999995559,0.012409483266718058,1.145864344781312,0.02812809754218741,0.023472000029074624
1.0220000000000002,-0.013200000000000399,-1.372,0.012328290319160485,1.138345523799397,0.027872795057117906,0.02298755697615889
1.0230000000000001,-0.015,0.627999999999778,0.012316461800196098,1.138345523799397,0.027835601552298313,0.02298755697615889
1.024,-0.02619999999999767,-0.372,0.012165322756359224,1.1270224761414867,0.02736036109554286,0.02225800485769479
1.025,-0.0157,-0.372,0.011719628460991935,1.1270224761414867,0.025958923352346206,0.02225800485769479
1.0260000000000002,0.0046000000000019315,-0.372,0.01171156031760629,1.1557813511015493,0.02593355394381732,0.024110959891148216
1.0270000000000001,0.0133,-0.372,0.011681089402620737,1.1838417974459923,0.02583774143112788,0.025918914665703556
1.028,0.015899999999995095,-2.372,0.011876360842975865,1.185034529578432,0.026451751458912803,0.025995763256318968
1.029,-0.0062,-0.372,0.012030020610238718,1.1922589489620776,0.026934918059184215,0.02646123780215202
1.0300000000000002,0.0025999999999994227,-0.372,0.011989881730407647,1.198261462100039,0.02680870567156875,0.026847984048234363
1.0310000000000001,0.0,0.628,0.012007160077358853,1.1970819089106248,0.026863035573946148,0.02677198458641306
1.032,0.026899999999995983,2.628,0.011991352466471407,1.2666999612781447,0.026813330242830842,0.03125752585785572
1.033,0.0088,-0.372,0.011802186343277614,1.27346117215604,0.02621851772776488,0.03169315554593754
1.0340000000000003,-0.0010000000000019095,-0.372,0.011758120476611745,1.294624457965707,0.026079957352695846,0.0330567212980712
1.0350000000000001,-0.0096,0.628,0.011913030583458117,1.291346654629944,0.02656705551121777,0.032845530067603844
1.036,-0.00160000000000151,0.628,0.011929163204307078,1.2813763352730971,0.026617782801177322,0.03220313520817131
1.037,-0.0084,-2.372,0.011969464617321022,1.291346654629944,0.026744506256893428,0.032845530067603844
1.0380000000000003,0.00290000000000131,-1.372,0.01207546462761373,1.300154459030528,0.0270778118808324,0.033413023250852485
1.0390000000000001,0.0088,1.628,0.012059040179547233,1.306742584606451,0.027026166971595694,0.033837500928226245
1.04,0.007000000000004064,2.628,0.012378852304033355,1.3176776702865833,0.028031781776733388,0.03454205637694889
1.041,0.0253,1.628,0.012308113377401215,1.324178616297235,0.027809350835332616,0.03496091701212236
1.0420000000000003,0.0031999999999980907,-0.372,0.012313078323570613,1.3045785957917264,0.027824962574201743,0.033698073569814295
1.0430000000000001,-0.0054,-1.372,0.013115177649768528,1.3056610385206915,0.03034707757816431,0.033767816134704136
1.044,-0.01879999999999294,1.628,0.014422995559930001,1.3056610385206913,0.03445937024060116,0.03376781613470412
1.045,0.013,-0.372,0.014864207541230683,1.3056610385206913,0.03584671382963183,0.03376781613470412
1.0460000000000003,-0.017399999999993802,1.628,0.014868769465589972,1.3486578224575787,0.03586105830979496,0.03653812990145625
1.0470000000000002,0.0105,-1.372,0.014899151760328822,1.3570937170987991,0.03595659216565655,0.03708166067096095
1.048,0.014199999999997825,-1.372,0.01496878942034401,1.3654774959339508,0.03617556029270596,0.037621833581532996
1.049,0.0044,0.628,0.015005001150617711,1.3654774959339508,0.03628942418120424,0.037621833581532996
1.0500000000000003,0.0016000000000029756,0.628,0.015006220034838823,1.3665117002115534,0.0362932568314531,0.037688468108247414
1.0510000000000002,0.015,-1.372,0.015012754911738781,1.3612512981228357,0.03631380504853808,0.03734953661173323
1.052,-0.0015999999999985568,-0.372,0.015037444940942411,1.3612512981228357,0.03639144018806366,0.03734953661173323
1.053,0.0049,-0.372,0.014892401021336647,1.361251298122836,0.03593536519345511,0.03734953661173324
1.0539999999999998,0.0032,0.628,0.014885209691785709,1.35597048878917,0.03591275283166092,0.037009290261724316
1.0550000000000002,-0.0095,0.628,0.014881127464376571,1.3590924439515486,0.035899916706929366,0.03721044008209729
1.056,-0.008,-0.372,0.014887437641919325,1.3653962195250062,0.035919758381069256,0.03761659688394785
1.057,-0.0065,0.628,0.015027006967931505,1.3622887107930264,0.03635861910533498,0.037416377857493625
1.0579999999999998,-0.0028,-1.372,0.014913545306707653,1.3612512981228369,0.03600185112311555,0.0373495366117333
1.0590000000000002,-0.0064,0.628,0.014715048028268547,1.3612512981228369,0.03537769779466171,0.0373495366117333
1.06,0.0038,0.628,0.014358592511321006,1.358134305546428,0.03425686178573481,0.03714870653434972
1.061,-0.011,2.628,0.014119524606973122,1.3517966662242868,0.03350513849059155,0.036740367866773836
1.0619999999999998,-0.0168,-0.372,0.01433128659984244,1.3433275073123747,0.03417100128593435,0.03619469385634271
1.0630000000000002,0.0107,0.628,0.01443056407026654,1.340168827858276,0.03448316860678096,0.03599117786339563
1.064,0.0067,-2.372,0.014429560639115014,1.3401688278582762,0.03448001342552092,0.035991177863395646
1.065,-0.0187,-1.372,0.014307467262169565,1.3465611951374539,0.03409610394221761,0.036403042692673006
1.0659999999999998,-0.0089,0.628,0.014525657797671487,1.3465611951374539,0.03478218059798611,0.036403042692673006
1.0670000000000002,0.006,-1.372,0.014754504800214943,1.3707216792901626,0.03550176536744681,0.03795972009342679
1.068,0.0035,-1.372,0.014782442063585876,1.3800466629437134,0.03558961108532252,0.038560535508553866
1.069,0.0104,-0.372,0.014858391805324611,1.4036308851432824,0.03582842687400339,0.040080083936490006
1.0699999999999998,0.0216,-0.372,0.014875963107183091,1.4087330449386355,0.03588367794155695,0.04040881976803461
1.0710000000000002,-0.0084,-0.372,0.014863451015384308,1.4269031106431254,0.035844335015530256,0.04157953019227995
1.072,-0.0041,1.628,0.014935058018981383,1.4269031106431271,0.03606949553151905,0.04157953019228007
1.073,-0.0081,-0.372,0.014878095783907128,1.4447678799084311,0.035890383913982825,0.04273057014699313
1.0739999999999998,0.0028,1.628,0.014847789274254921,1.449725269486971,0.035795088356169694,0.043049978329166495
1.0750000000000002,0.006,2.628,0.014767985878939724,1.449725269486971,0.03554415516857348,0.043049978329166495
