time_sec,bts_raw,diy_raw,bts_rms,diy_rms,bts_norm_rms,diy_norm_rms
0.0,-0.0007,-0.292,0.004650059663172617,0.5800877452791423,0.004788972366660716,0.0
0.0010000000000000009,0.0055,0.708,0.004646611937911207,0.5827451553208344,0.004771863068623052,0.00030016533406667224
0.0020000000000000018,0.0,-0.292,0.004567048009002746,0.5844349950439797,0.004377027961551429,0.0004910396429083999
0.0030000000000000027,-0.0007,-0.292,0.004582226216875241,0.604791008286029,0.004452349648309591,0.002790334602738837
0.0040000000000000036,-0.0051,-1.292,0.004657171973620988,0.6073403391266678,0.0048242671276904295,0.0030782919489598863
0.0050000000000000044,0.0073,-0.292,0.004618453964113482,0.6269530985664488,0.00463212943867454,0.005293633351622237
0.006000000000000005,-0.0054,-1.292,0.004593450879659284,0.6294126719640586,0.004508051911797349,0.005571452227509741
0.007000000000000006,0.0094,-0.292,0.0046903265631921395,0.6457668949136195,0.0049887964075139785,0.007418728604899387
0.008000000000000007,-0.0003,-1.292,0.005121374827720925,0.6472922291736021,0.007127868597803486,0.0075910213487845124
0.009000000000000008,0.0015,0.7079999999999982,0.005116264710618569,0.6496748061725922,0.007102509698853451,0.007860143166502215
0.010000000000000009,0.003,-0.292,0.005057750849271646,0.6520486773257497,0.006812135316554319,0.008128281623322766
0.01100000000000001,0.0015,1.708,0.0050689600344520904,0.6703546657358588,0.00686776077260738,0.010196017892973603
0.01200000000000001,0.0004,-0.292,0.005022301862576464,0.6857331469393011,0.006636220116671772,0.0119330802489697
0.013000000000000012,-0.0006,-0.292,0.005098320716394109,0.7007742287989188,0.007013462828266423,0.013632031968984116
0.014000000000000012,0.0026,-0.292,0.005146787191866311,0.7154991898570966,0.007253977170569296,0.01529527655141685
0.015000000000000013,0.0034,-0.292,0.005171956913429955,0.7176553591474294,0.007378881632237824,0.015538824692344678
0.016000000000000014,-0.001,0.708,0.005143638634114872,0.719805069681987,0.007238352487952868,0.015781643290388832
0.017000000000000015,-0.0031,-0.292,0.005238812582120557,0.7979588688572301,0.007710652140154406,0.02460943458716562
0.018000000000000016,-0.001,0.7080000000000034,0.00520840755703533,0.7991937836157532,0.007559767543330978,0.024748923260430336
0.019000000000000017,0.0012,1.708,0.005210324096119305,0.8141981356166562,0.007569278347093556,0.026443726192663282
0.020000000000000018,0.0027,-0.292,0.005208847283616019,0.8160935778870602,0.007561949681568119,0.02665782415021357
0.02100000000000002,0.011,-0.292,0.005242360063390526,0.8179846280312163,0.007728256476268503,0.026871425999138634
0.02200000000000002,0.0023,0.708,0.005233512836586591,0.8326504380392427,0.00768435221223401,0.028527989228505586
0.02300000000000002,-0.0031,0.708,0.005106401470198344,0.8470623662036448,0.007053563478614966,0.030155875465158088
0.02400000000000002,-0.0024,-0.292,0.005110459549069754,0.8488844303351204,0.00707370164961381,0.030361685061770817
0.025000000000000022,-0.0085,0.708,0.005118928063289749,0.8507025919157918,0.0071157265566874186,0.03056705384930724
0.026000000000000023,-0.0064,0.708,0.0050896244347359695,0.8648137372659048,0.006970307627829214,0.03216096543676517
0.027000000000000024,-0.0042,0.708,0.0051229799782223735,0.8665984791070693,0.007135834139208996,0.03236255932802435
0.028000000000000025,-0.002,1.708,0.005108969644446244,0.8677357151649567,0.007066308014588233,0.03249101479250776
0.029000000000000026,-0.0016,-0.292,0.005115112732519731,0.8815742575894638,0.007096793020425944,0.034054134764464776
0.030000000000000027,-0.0067,-1.292,0.005105884279063179,0.883325135763315,0.0070509969233928825,0.03425190361598512
0.031000000000000028,0.0013,-0.292,0.005105884279063179,0.8950518791716606,0.0070509969233928825,0.03557648725097392
0.03200000000000003,0.0005,1.708,0.005124207704720656,0.8967764438451676,0.0071419267182213,0.03577128388499778
0.03300000000000003,0.0067,0.708,0.005122030107638382,0.9083295443686875,0.007131120417062797,0.03707625384587747
0.03400000000000003,0.0013,-0.292,0.005134243002799577,0.910028947341727,0.007191726772666132,0.03726820836291222
0.03500000000000003,0.0035,-0.292,0.005134243002799576,0.911725182731483,0.007191726772666129,0.03745980508845843
0.03600000000000003,0.0042,0.7079999999999931,0.005149346769019274,0.9128061986034655,0.00726667904355512,0.0375819102529811
0.03700000000000003,-0.0049,-0.292,0.005251343991712493,0.9138859357660902,0.007772839120056853,0.03770387098205138
0.038000000000000034,0.0017,-0.292,0.005220957069685029,0.9149643987463203,0.007622044359455042,0.037825687787008275
0.039000000000000035,-0.0045,-1.292,0.0052269590415340355,0.928098998622879,0.007651829077607535,0.03930929456877123
0.040000000000000036,-0.0056,-0.292,0.005250257054869823,0.9291609648639702,0.007767445208135415,0.039429247999564196
0.041000000000000036,-0.0049,-0.292,0.0052431774030813364,0.9403162603956109,0.007732312515340006,0.04068928425943147
0.04200000000000004,0.0089,0.708,0.005319320551331082,0.9513407594031849,0.00811017203666339,0.04193454651689591
0.04300000000000004,0.0107,0.7079999999999931,0.00530147087545995,0.9529634643199564,0.008021593219849547,0.042117837674749824
0.04400000000000004,0.0016,-0.292,0.005293576568961714,0.9539977524663494,0.007982417812171108,0.04223466475153229
0.04500000000000004,0.0002,-1.292,0.005765979630368044,0.9666020959952556,0.01032671271930076,0.04365837690986982
0.04600000000000004,-0.0013,-0.292,0.005948524413121299,0.9676218059575624,0.011232589161459245,0.04377355732112921
0.04700000000000004,0.0030999999999996,0.708,0.00588850464588811,0.9692172528341821,0.010934741738047126,0.04395376957185182
0.04800000000000004,-0.0004999999999998779,-1.292,0.0060729177135976035,0.9708100777280297,0.011849889523399156,0.044133685658895375
0.049000000000000044,0.0005999999999998779,0.708,0.006314358974289277,0.9724002935237974,0.013048039078411476,0.044313307037638555
0.050000000000000044,-0.0005000000000000888,0.708,0.006411831537502034,0.9734139295424741,0.013531745582861911,0.044427801372120095
0.051000000000000045,-0.0013000000000002775,-0.2919999999999861,0.0064157923208141635,0.9847691257938292,0.013551400925736335,0.045710417235952074
0.052000000000000046,-0.0038000000000006106,1.707999999999993,0.006396100232360518,0.9954335776742986,0.013453679157094112,0.04691501069767497
0.05300000000000005,-0.009299999999999066,0.708,0.00647462326878902,0.9959948714758349,0.01384334884687912,0.04697841112847202
0.05400000000000005,-0.0009000000000003663,1.708,0.00648403675309723,0.9959948714758348,0.013890063157443462,0.04697841112847201
0.05500000000000005,-0.004200000000000721,0.708,0.006469356393615152,0.9870366441503509,0.013817212037752968,0.045966542709367626
0.05600000000000005,-0.010700000000001132,-1.292,0.006429147454728335,0.9965558491378571,0.013617675628372308,0.04704177585001783
0.05700000000000005,-0.020899999999997743,-0.292,0.006457237048458015,0.9870366441503509,0.013757069922998159,0.045966542709367626
0.05800000000000005,-0.000600000000000322,0.708,0.00639877781849977,0.9982368906151529,0.013466966648354145,0.04723165636100255
0.05900000000000005,-0.003499999999999112,0.7080000000000068,0.006400846476436988,0.9999151059560715,0.013477232340224084,0.04742121764832345
0.06000000000000005,0.004500000000000233,1.708,0.006399677658071017,1.0087589733081535,0.013471432092159332,0.04842016864065459
0.06099999999999994,0.0066,-1.292,0.006454726595523174,1.0087589733081535,0.013744611828395184,0.04842016864065459
0.061999999999999944,0.0088,-1.292,0.006480275983835369,0.997676858176182,0.0138714003820558,0.047168398406266736
0.06299999999999994,0.007,-1.292,0.006491567825377202,1.0070954954201645,0.013927436019377517,0.048232272008924104
0.06399999999999995,-0.0057,0.708,0.006515902100707284,1.0076502931772995,0.014048194588458709,0.04829493868493464
0.06499999999999995,0.0022,0.708,0.006603685300658169,1.0082047856388148,0.0144838177361237,0.04835757087655615
0.06599999999999995,0.0099,-3.292,0.0066053190910038565,1.0175259767398066,0.014491925402435832,0.049410437538769475
0.06699999999999995,-0.0025,-0.292,0.006760924997415271,1.0169765665420154,0.015264117972131749,0.04934837940962407
0.06799999999999995,0.0022,1.708,0.006797177356670576,1.0169765665420156,0.015444019899356022,0.049348379409624096
0.06899999999999995,0.0037,0.708,0.006813064960148887,1.02730672797383,0.015522861953871552,0.050515213397791324
0.06999999999999995,0.0073,0.708,0.006819687895603443,1.0256733320147127,0.01555572819696943,0.05033071464297387
0.07099999999999995,0.0011,1.708,0.006835939535146078,1.0256733320147127,0.015636376776381442,0.05033071464297387
0.07199999999999995,-0.0021,1.7079999999999862,0.0067539312407366055,1.034837188914977,0.015229411532857857,0.05136580976365595
0.07299999999999995,0.0044,0.708,0.006830217221185655,1.0342969743341324,0.015607979857372325,0.05130479031705836
0.07399999999999995,0.0036,0.708,0.006824923328972242,1.0428493075355223,0.015581708976489689,0.052270811334578914
0.07499999999999996,-0.0054,1.708,0.006848505884896917,1.0518635376238723,0.01569873714643155,0.05328900549482246
0.07599999999999996,0.0058,0.708,0.006812003523460485,1.0810423001307718,0.01551759458618038,0.056584866072649884
0.07699999999999996,0.0014,-0.292,0.00682648385815609,1.0907658919844994,0.015589453085105818,0.05768318554586285
0.07799999999999996,0.0025,1.708,0.006820234954975566,1.1004035657709637,0.015558442972983262,0.058771800221939584
0.07899999999999996,-0.0011,0.708,0.006833255534940693,1.0988788278182988,0.015623057455389987,0.05859957483340513
0.07999999999999996,0.0021,-1.292,0.006840691036091933,1.099387308764309,0.015659956046666926,0.058657009836145045
0.08099999999999996,-0.0044,0.708,0.0068240991007115,1.0912781531586948,0.015577618752966968,0.05774104754083893
0.08199999999999996,-0.0037,-1.292,0.006823303433681456,1.0912781531586948,0.015573670264232052,0.05774104754083893
0.08299999999999996,0.0039,0.708,0.00683131905842665,1.0810423001307718,0.01561344771235375,0.056584866072649884
0.08399999999999996,-0.0052,0.708,0.006798456288045007,1.0805251862993843,0.015450366581993348,0.056526455950194676
0.08499999999999996,-0.0041,-0.292,0.006825825644044405,1.0805251862993843,0.015586186704940478,0.056526455950194676
0.08599999999999997,0.0104,-0.292,0.006834530405292423,1.0810423001307718,0.015629383985247592,0.056584866072649884
0.08699999999999997,-0.0117,-0.2919999999999722,0.006830538104123307,1.081042300130772,0.015609572235360481,0.056584866072649904
0.08799999999999997,-0.0031,1.708,0.0068163485753340615,1.0815591667203146,0.01553915685749191,0.05664324826812741
0.08899999999999997,0.0049,-0.292,0.0068383003116131436,1.0815591667203146,0.01564809210318762,0.05664324826812741
0.08999999999999997,-0.002,-1.292,0.006827161014399431,1.0727944852400444,0.015592813465387585,0.055653241643918924
0.09099999999999997,0.0092,-1.292,0.006825513011962067,1.0815591667203144,0.015584635271729505,0.05664324826812738
0.09199999999999997,0.0034,0.708,0.006824076354966955,1.0815591667203144,0.015577505877464136,0.05664324826812738
0.09299999999999997,-0.0021,-0.292,0.006926170615438226,1.0810423001307716,0.016084147502853828,0.056584866072649856
0.09399999999999997,-0.0235,1.708,0.006893010477530851,1.0907658919844991,0.01591959068947384,0.05768318554586283
0.09499999999999997,-0.0148,-0.292,0.006929042790691923,1.1009113424822916,0.01609840064041729,0.058829155678491556
0.09599999999999997,-0.0015,0.708,0.006934870797314373,1.0928134959340425,0.01612732205807926,0.05791447078747333
0.09699999999999998,0.0152,0.708,0.006935954517514152,1.0928134959340425,0.01613270000744634,0.05791447078747333
0.09799999999999998,0.0173,0.708,0.006971984639116553,1.0928134959340425,0.016311499082804402,0.05791447078747333
0.09899999999999998,0.0115,-0.292,0.007065182657287963,1.0846551939602769,0.01677399320530944,0.05699295720885643
0.09999999999999998,0.0023,1.708,0.00706540177637383,1.0841398034111167,0.016775080581321617,0.056934741738177704
0.10099999999999998,-0.0024,1.708,0.00706884840681133,1.0836241677332523,0.016792184446307878,0.056876498579209164
0.10199999999999998,-0.0101,0.7079999999999861,0.007077172588517906,1.0923019547958672,0.01683349310489839,0.05785669012351096
0.10299999999999998,-0.0036,-0.2919999999999861,0.007067215005675958,1.0820757864223056,0.01678407871144758,0.056701602576646096
0.10399999999999998,-0.0026,0.7079999999999722,0.007007314777428005,1.0902533901217775,0.016486824498912332,0.0576252963641332
0.10499999999999998,-0.0015,-1.292,0.0070196922031036104,1.0805251862993837,0.016548247335352713,0.0565264559501946
0.10599999999999998,-0.0081,-0.292,0.007015898637758372,1.0800078248710085,0.016529421809768203,0.056468017860646876
0.10699999999999998,-0.0038,1.708,0.007001411965320777,1.0717520490636017,0.01645753185986905,0.05553549421381368
0.10799999999999998,0.0016,1.708,0.006819684812500586,1.0717520490636019,0.015555712897105998,0.0555354942138137
0.10899999999999999,0.0009,-1.292,0.006871652495610895,1.0717520490636019,0.01581360194314255,0.0555354942138137
0.10999999999999999,0.0089,-0.292,0.006863061200385112,1.0712304505694923,0.015770967736701356,0.05547657753035999
0.11099999999999999,-0.006,-0.292,0.0068487932140152905,1.0608011714444399,0.01570016301396693,0.054298547793310975
0.11199999999999999,-0.0039,-1.292,0.006837451186976966,1.0789723577984678,0.015643878331680332,0.05635105761933375
0.11299999999999999,-0.0057,0.708,0.0067799924161172235,1.0789723577984678,0.015358739824119809,0.05635105761933375
0.11399999999999999,-0.0111,0.708,0.006817705229849657,1.0707085979773425,0.015545889240347721,0.055417632145493285
0.11499999999999999,0.0037,-1.292,0.006803478086921699,1.0701864909154366,0.0154752872027366,0.05535865801722674
0.11599999999999999,-0.0145,-0.292,0.006799768767464184,1.0696641290111513,0.015456879746427399,0.055299655103471027
0.11699999999999999,0.0076,-0.292,0.006727601365866737,1.0136738519994082,0.015098749823386626,0.048975324292628526
0.118,0.0047,1.7079999999999584,0.00672429499006527,1.014225051293858,0.015082341970462555,0.04903758450755964
0.119,-0.0033,-1.2919999999999863,0.006760647846928395,1.0125705532642628,0.015262742615941302,0.048850702187565896
0.12,-0.0055,-0.292,0.0067528008084266735,1.0120184528422318,0.015223801775166747,0.04878834018658852
0.121,-0.0033,-1.292,0.006747609222235413,1.0114660510607727,0.015198038586774477,0.04872594414583106
0.122,0.0104,-0.292,0.006761981668329414,1.0009724251964998,0.015269361689721475,0.047540646181383484
0.123,0.0014,-1.292,0.006774139978443767,0.9903676183918028,0.015329697167640544,0.04634278987494101
0.124,0.0061,-1.292,0.006809649663259643,0.9898031335141045,0.01550591358126796,0.046279028999038706
0.125,0.0046,2.708,0.006806287693861106,0.9898031335141042,0.015489229845740396,0.046279028999038664
0.126,-0.0078,1.708,0.006822804973652532,0.9881077440138828,0.015571196661915131,0.04608752782017541
0.127,-0.003,1.708,0.006824604862974279,0.9881077440138827,0.015580128592537695,0.046087527820175396
0.128,0.0046,-1.292,0.006828597813052169,0.9881077440138827,0.015599943562627335,0.046087527820175396
0.129,0.0035,0.708,0.00685058562732792,0.9767913599591177,0.015709057844977888,0.044809295952705504
0.13,0.0046,0.708,0.006870612246336665,0.9858426892772297,0.01580843971775717,0.04583168062270119
0.131,-0.0009,-0.292,0.006867670549923227,0.9762190248330913,0.01579384158221627,0.044744648359143914
0.132,-0.0034,-0.292,0.006861545814162233,0.9756463539630335,0.015763447649523987,0.04467996284192064
0.133,-0.0009,-0.292,0.006854056390506162,0.9773633599309388,0.01572628146842009,0.0448739056892287
0.134,-0.0063,-0.292,0.006845175220348981,0.9864094405702288,0.015682208760874863,0.04589569749948227
0.135,0.0049,0.708,0.006852538330117231,0.9858426892772297,0.015718748110723612,0.04583168062270119
0.136,0.0035,0.708,0.006869920961643954,0.9864094405702288,0.015805009225203472,0.04589569749948227
0.137,0.002,0.708,0.006807348682330165,0.9869758664176054,0.01549449498914809,0.04595967761584907
0.138,0.0057,-0.292,0.006707017011056515,0.9869758664176054,0.014996600192932292,0.04595967761584907
0.139,0.0021,-0.292,0.006707449532139139,0.9756463539630335,0.014998746573965901,0.04467996284192064
0.14,0.0053,-1.292,0.006702650532230317,0.9756463539630335,0.0149749315906081,0.04467996284192064
0.14100000000000001,0.0046,-0.292,0.006700796430833972,0.9664995400365087,0.014965730633171848,0.043646792794834945
0.14200000000000002,0.0148,-0.29199999999994447,0.006636843784733388,0.9572653309193877,0.014648366342380117,0.042603751103490524
0.14300000000000002,0.0083,1.708,0.006675358161231699,0.9864094405702288,0.014839493504866057,0.04589569749948227
0.14400000000000002,0.0072,1.7079999999999722,0.00668836127364046,0.986409440570229,0.014904021304719737,0.04589569749948228
0.14500000000000002,-0.0029,0.708,0.006267354572335261,0.986409440570229,0.012814780259585375,0.04589569749948228
0.14600000000000002,-0.0018,-0.292,0.006091405048012074,1.0152674679889284,0.01194163271360039,0.0491553297371642
0.14700000000000002,0.0077,0.708,0.00610593219913509,1.0147168349406346,0.012013723538523086,0.049093133482052576
0.14800000000000002,0.0114,0.708,0.006050604240875687,1.0234328029834283,0.011739159164652872,0.05007763772424088
0.14900000000000002,-0.0009,-0.292,0.00587480538523413,1.0507432478433463,0.01086675931031484,0.053162464181683994
0.15000000000000002,-0.0023,-0.292,0.005803234632134021,1.0512750112758766,0.010511590248766989,0.053222529036510945
0.15100000000000002,-0.0037,-1.292,0.005805020202387653,1.0496789128104658,0.010520451121174229,0.05304224318616912
0.15200000000000002,-0.0,-0.292,0.005878290204038435,1.0395710863400591,0.010884052684644131,0.051900522841330766
0.15300000000000002,0.0011,-1.292,0.005901789738512824,1.0390333330117663,0.011000668861567767,0.0518397814032764
0.15400000000000003,-0.0043,0.708,0.005927349646112782,1.0496789128104662,0.011127509617076224,0.05304224318616917
0.15500000000000003,-0.0035,-0.292,0.005943314395590882,1.0496789128104662,0.011206734507752615,0.05304224318616917
0.15600000000000003,-0.0097,0.708,0.005943063711654336,1.0411826798830186,0.011205490491522082,0.0520825589240627
0.15700000000000003,-0.0136,-0.292,0.005892948363421827,1.0417193236822937,0.010956793636593262,0.0521431750362761
0.15800000000000003,-0.0085,0.708,0.006063212553815364,1.0315335054608668,0.01180172777655812,0.050992645204142914
0.15900000000000003,-0.0004,-0.292,0.006098482241091614,1.0206986920727201,0.011976753205080163,0.04976880871328196
0.16000000000000003,-0.0011,-0.292,0.006121200047705841,1.0223400360609451,0.012089490066243474,0.04995420523049771
0.16100000000000003,-0.0054,-2.292,0.006058298708828224,1.0228865654498573,0.011777342875784011,0.05001593796049659
0.16200000000000003,0.0001,-1.292,0.006053589939185544,1.032075166513125,0.011753975659112471,0.051053828035603294
0.16300000000000003,0.01,0.708,0.006041316681038222,1.0228865654498576,0.0116930697528658,0.050015937960496616
0.16400000000000003,0.0035,-0.292,0.006015413463944964,1.0331576366762802,0.011564525327837683,0.051176097468262564
0.16500000000000004,-0.0,-0.292,0.005913011035178131,1.032616543436045,0.01105635442072896,0.05111497877349275
0.16600000000000004,0.0011,-0.292,0.005928144976421081,1.0239787491287249,0.011131456434833245,0.05013930457448767
0.16700000000000004,-0.0013,0.708,0.005824841243067265,1.0239787491287249,0.010618812813795135,0.05013930457448767
0.16800000000000004,-0.0074,-1.292,0.005803019525636271,1.0331576366762802,0.01051052278517845,0.051176097468262564
0.16900000000000004,-0.0019,-0.292,0.005791107826320244,1.0223400360609458,0.010451411110587071,0.04995420523049779
0.17000000000000004,-0.0069,-0.292,0.005820115814347711,1.0136146714716192,0.01059536292664098,0.048968639609943014
0.17100000000000004,-0.0046,0.708,0.00580255064977723,1.0136146714716192,0.010508195993973598,0.048968639609943014
0.17200000000000004,0.004500000000000411,0.7079999999999722,0.0058055270848642315,1.0042571775532547,0.010522966519793406,0.04791167239601457
0.17300000000000004,0.008199999999998757,-0.2919999999999722,0.005744825003355191,1.0136146714716192,0.010221733119420899,0.048968639609943014
0.17400000000000004,-0.0030000000000004663,0.7079999999999445,0.005769727129753056,1.013614671471619,0.010345309643073017,0.048968639609942986
0.17500000000000004,-0.0071999999999998775,-1.2919999999999445,0.005738715259661565,1.0042571775532547,0.010191413584695198,0.04791167239601457
0.17600000000000005,-0.006099999999999024,0.708,0.005723898435452793,0.9722032448686315,0.01011788526032521,0.044291049586030674
0.17700000000000005,0.0027000000000003666,-0.292,0.005700188310282762,0.9612811102317496,0.010000224029430477,0.043057349802946634
0.17800000000000005,0.005999999999999922,-0.292,0.005708352181244056,0.9612811102317496,0.010040737147741036,0.043057349802946634
0.17900000000000005,0.005299999999999323,-1.292,0.005717361317771617,0.9519962845399172,0.010085444886967625,0.04200859076244677
0.18000000000000005,-0.000799999999999556,-0.292,0.0057071347736472695,0.963023728795152,0.010034695776161963,0.043254185697681725
0.18100000000000005,0.003199999999999445,-0.292,0.005732987417838293,0.9624432065206795,0.010162989233728532,0.04318861333221447
0.18200000000000005,-0.0017999999999996003,1.708,0.005755411332834237,0.9630237287951519,0.010274267661024083,0.04325418569768171
0.18300000000000005,0.0017999999999991228,-1.292,0.005757196392340528,0.974500002622853,0.01028312599885336,0.04455047776901712
0.18400000000000005,-0.006099999999998624,-0.292,0.005760565748126749,0.975073346757387,0.010299846389247172,0.04461523933421689
0.18500000000000005,0.006299999999998756,0.708,0.005768584113064912,0.9750733467573869,0.010339637435545819,0.04461523933421688
0.18600000000000005,-0.0048999999999995115,0.708,0.005777062912143213,0.9745000026228527,0.010381713381113707,0.04455047776901709
0.18700000000000006,-0.0004999999999996004,-0.292,0.005768810226359786,0.9745000026228527,0.010340759520241946,0.04455047776901709
0.18799999999999994,0.0031,-0.292,0.0057807984064483335,0.9745000026228526,0.010400250729811314,0.04455047776901708
0.18899999999999995,0.0042,-0.292,0.005752165027321321,0.9745000026228527,0.010258157906234897,0.04455047776901709
0.18999999999999995,-0.0012,0.708,0.005752572026933151,0.9841404771003104,0.01026017763725522,0.04563940879459746
0.19099999999999995,-0.0005,0.708,0.0057347402201808765,0.9858426892772293,0.010171687495743794,0.04583168062270114
0.19199999999999995,0.0079,-2.292,0.005791799695543358,0.9864094405702282,0.010454844503866358,0.04589569749948219
0.19299999999999995,0.0046,-0.292,0.005623749060132443,0.9976167286766463,0.009620895105738195,0.04716160653334075
0.19399999999999995,0.0021,1.708,0.005805258025091669,0.9864094405702286,0.010521631313682223,0.04589569749948224
0.19499999999999995,-0.0005,-2.292,0.005784612579378164,0.9756463539630336,0.010419178520303812,0.044679962841920655
0.19599999999999995,-0.0045,-0.292,0.005778519911150785,0.9750733467573862,0.010388943722388331,0.0446152393342168
0.19699999999999995,-0.0129,-1.292,0.005802493970249676,0.9750733467573862,0.010507914722452223,0.0446152393342168
0.19799999999999995,-0.0096,-2.292,0.00575091227577313,0.9750733467573861,0.010251941140692401,0.04461523933421679
0.19899999999999995,-0.0071,0.708,0.0056360230509529185,0.9745000026228521,0.009681804647867193,0.044550477769017015
0.19999999999999996,-0.0028,-1.292,0.0056805142666462955,0.9745000026228521,0.009902591807991624,0.044550477769017015
0.20099999999999996,0.0095,0.708,0.005711417540678848,0.984140477100311,0.010055948959641898,0.04563940879459753
0.20199999999999996,0.0113,-0.292,0.005767970872364207,0.9750733467573862,0.010336594235429318,0.0446152393342168
0.20299999999999996,0.0065,1.708,0.005767989322274654,0.986409440570229,0.010336685792903502,0.04589569749948228
0.20399999999999996,0.005,0.708,0.005777140572238183,0.9767913599591179,0.01038209876846616,0.04480929595270553
0.20499999999999996,0.0013,0.708,0.005764772810868319,0.98584268927723,0.010320723891034897,0.04583168062270122
0.20599999999999996,-0.0024,0.708,0.0057605341949507225,0.98584268927723,0.010299689806964147,0.04583168062270122
0.20699999999999996,-0.0148,0.7079999999999722,0.005682099396466814,0.985275611976999,0.009910457996992002,0.0457676269220698
0.20799999999999996,-0.0068,-0.29199999999994447,0.005518202728223096,0.9852756119769991,0.00909712261445776,0.045767626922069815
0.20899999999999996,-0.0054,1.708,0.005492307292400885,0.985275611976999,0.008968616803900159,0.0457676269220698
0.20999999999999996,-0.0019,0.708,0.005539881071429391,0.985275611976999,0.009204701150088403,0.0457676269220698
0.21099999999999997,-0.0055,-1.292,0.005595688087894409,0.9858426892772298,0.009481642844944425,0.0458316806227012
0.21199999999999997,-0.0001,-0.292,0.0055870082324837155,0.9659211067401271,0.009438569159576393,0.043581456387987806
0.21299999999999997,-0.0009,1.708,0.00562521556849161,0.9676553693232964,0.009628172637063719,0.043777348440576305
0.21399999999999997,-0.0002,-0.292,0.005558647741051503,0.9670776273575427,0.009297830538132441,0.043712090122351395
0.21499999999999997,-0.0057,0.708,0.005617421518555944,0.9670776273575427,0.009589494751455393,0.043712090122351395
0.21599999999999997,-0.0094,-0.292,0.005623651627769333,0.9670776273575427,0.009620411598726305,0.043712090122351395
0.21699999999999997,-0.0058,-1.292,0.005624893380050096,0.9670776273575425,0.00962657378052725,0.04371209012235138
0.21799999999999997,-0.003,-0.292,0.005624144367107442,0.9670776273575425,0.009622856812179054,0.04371209012235138
0.21899999999999997,-0.0067,0.708,0.005599630224426316,0.9688098196599925,0.009501205653380607,0.04390774832826436
0.21999999999999997,-0.0031,-0.292,0.005604349137606216,0.9693865292618513,0.009524623207242122,0.04397289003676456
0.22099999999999997,0.0037,-0.292,0.005562799449422554,0.9693865292618513,0.009318433344475753,0.04397289003676456
0.22199999999999998,0.0062,-1.292,0.0056632311470249785,0.998176794851596,0.009816824520229032,0.04722486829869338
0.22299999999999998,0.0055,-1.292,0.005690091213191214,0.9976167286766469,0.009950117298076868,0.04716160653334082
0.22399999999999998,0.0014,-0.292,0.005630391574320823,0.9981767948515963,0.009653858508083635,0.0472248682986934
0.22499999999999998,0.0021,-0.292,0.00563795940964264,0.9981767948515965,0.009691413806201553,0.04722486829869343
0.22599999999999998,0.0057,0.708,0.005603008649007672,0.9892383265268435,0.009517971047568819,0.04621523173954373
0.22699999999999998,0.0042,1.708,0.005578576284265295,0.9981767948515973,0.00939672571087651,0.04722486829869352
0.22799999999999998,0.0056,0.708,0.005571994145571888,0.9987365469556617,0.009364061921249408,0.047288094588454975
0.22899999999999998,0.0009,1.708,0.005540287077928172,0.9987365469556618,0.009206715952796329,0.04728809458845498
0.22999999999999998,-0.0072,-0.292,0.005524014203046191,0.9892383265268435,0.009125961993250385,0.04621523173954373
0.23099999999999998,0.0051,0.708,0.005576180928134459,0.9898031335141049,0.00938483878287574,0.04627902899903874
0.23199999999999998,0.0036,1.708,0.0055761809281344625,0.9898031335141049,0.009384838782875757,0.04627902899903874
0.23299999999999998,0.0021,0.708,0.005573481628438967,0.9785063567626517,0.009371443538335788,0.04500301185667954
0.23399999999999999,-0.007,-0.292,0.00557206450621912,0.9802183530005186,0.009364411085174124,0.04519638883448798
0.235,-0.0059,-0.2919999999999722,0.005656257550018825,0.9807883543373458,0.00978221812310444,0.0452607728170134
0.236,0.0017,0.708,0.0058186272502562045,0.9898031335141004,0.010587975943990476,0.04627902899903824
0.237,0.0042,0.7079999999999722,0.005910384650147322,1.0004139241129342,0.01104332101439675,0.04747756119950454
0.238,-0.0001,-0.29200000000002774,0.005940117822239826,1.000413924112934,0.011190871548260272,0.04747756119950452
0.239,-0.0023,-1.2919999999999168,0.005954992771973513,1.0009724251964935,0.011264688319897362,0.04754064618138278
0.24,0.0028,1.708,0.005960393777532066,1.0009724251964935,0.011291490749556902,0.04754064618138278
0.241,0.0093,0.708,0.006020255091585909,1.0114660510607665,0.011588551850839244,0.04872594414583036
0.242,0.0053,1.708,0.006024656973115637,1.0109133474258563,0.011610396138683629,0.0486635140094909
0.243,0.0166,-0.292,0.005994208245927107,0.9824963742110618,0.011459294670661483,0.0454537006482261
0.244,0.0053,0.708,0.0060274644002781385,0.993747794074183,0.011624327964568915,0.046724594544520597
0.245,0.001,-0.292,0.006028607454501539,0.9824963742110618,0.011630000358364402,0.0454537006482261
0.246,-0.0056,-0.292,0.006270292794415112,0.9526461453379764,0.012829361153784719,0.04208199519777511
0.247,0.0006,0.708,0.006298635399867142,0.9532326340783849,0.01297001101625212,0.04214824149997504
0.248,-0.0005,-0.292,0.006384255696467683,0.9438686389331081,0.01339490078023892,0.04109053994587427
0.249,0.0071,-0.292,0.0065625418589833695,0.9127560246039793,0.0142796438671126,0.037576242894507644
0.25,0.0063,-1.292,0.006537693534778761,0.9121435106419105,0.014156334336242592,0.03750705693706773
0.251,0.0088,0.708,0.006587655807662598,0.9121435106419105,0.014404271556466184,0.03750705693706773
0.252,-0.0002,1.708,0.006518347745446902,0.9121435106419105,0.014060331073117946,0.03750705693706773
0.253,0.0034,-0.292,0.006577348017297705,0.9224359097310979,0.014353119262100773,0.03866962551417235
0.254,-0.002,-1.292,0.006571647088283679,0.9103034959133224,0.014324828465648897,0.0372992197470861
0.255,-0.0027,-0.292,0.006677117222511297,0.9096893306108987,0.014848222826786231,0.037229847263998486
0.256,-0.0019,-0.292,0.006676439322994773,0.9212233467905685,0.014844858758019606,0.0385326615701778
0.257,0.0003,-0.292,0.0066797375235379515,0.9212233467905685,0.014861226041315885,0.0385326615701778
0.258,-0.0066,0.708,0.006520151572374081,0.9326147281255682,0.014069282544063417,0.03981936468721872
0.259,-0.0073,-0.292,0.006485637108588229,0.9326147281255684,0.013898004903663266,0.03981936468721875
0.26,-0.008,0.708,0.0064749820404038805,0.9212233467905689,0.01384512924700404,0.038532661570177845
0.261,-0.0044,-1.292,0.006472483664952649,0.9212233467905689,0.013832731086778353,0.038532661570177845
0.262,0.0065,1.708,0.006507261343453091,0.9115305850937964,0.014005314927254892,0.03743782448930046
0.263,0.0051,-0.292,0.006507260850256632,0.9115305850937964,0.014005312479772986,0.03743782448930046
0.264,0.0088,-0.292,0.006530301139721058,0.8998723415666956,0.01411964965847257,0.036120978196089865
0.265,0.0026,-0.292,0.0065311324243111524,0.9004932023960197,0.014123774898950758,0.03619110696632824
0.266,0.0016,-0.292,0.006508981518943994,0.9004932023960196,0.014013851278883709,0.036191106966328226
0.267,-0.0009,0.708,0.006453548930881104,0.910917247128809,0.013738767680784258,0.0373685454573604
0.268,-0.0052,1.708,0.006491294602844113,0.9004932023960197,0.013926080155613793,0.03619110696632824
0.269,-0.003,0.708,0.006487202596075815,0.9004932023960197,0.013905773617806217,0.03619110696632824
0.27,-0.0008,-0.292,0.006461157951143383,0.912143510641911,0.013776527358708454,0.037507056937067795
0.271,-0.0116,-2.292,0.006468561438575069,0.9224359097310983,0.013813267082260269,0.0386696255141724
0.272,-0.0072,-0.292,0.006480630985208462,0.9344108092540782,0.013873162072398129,0.04002223939736573
0.273,-0.0007,0.708,0.006454387930495489,0.9344108092540782,0.013742931206984174,0.04002223939736573
0.274,-0.0042,0.708,0.006432385194170205,0.9248562663140057,0.013633742874129757,0.038943014690426984
0.275,0.0034,0.708,0.006431323885224097,0.9248562663140057,0.013628476140358295,0.038943014690426984
0.276,-0.0031,-1.292,0.006427758127615559,0.9254603664041988,0.013610781108118518,0.039011250266622464
0.277,-0.0005,0.708,0.006413008991508766,0.9555749894439791,0.013537588685197327,0.04241282011967829
0.278,-0.0012,-0.292,0.006413008991508765,0.9444605783229651,0.013537588685197324,0.04115740192122472
0.279,-0.0033,-0.292,0.006388339556221178,0.9538187621957999,0.01341516688857668,0.04221444706833276
0.28,0.0076,0.708,0.006387685591557711,0.94268364506446,0.01341192159625058,0.040956690041317106
0.281,0.0032,-0.292,0.006358593317726906,0.9544045303546286,0.013267551512840564,0.04228061197789579
0.28200000000000003,-0.0003,-0.29199999999988896,0.006354064179383002,0.9636661531215138,0.01324507571447954,0.04332675015311374
0.28300000000000003,-0.0014,1.7079999999999445,0.0063529476963965865,0.9619246983719068,0.01323953518015032,0.0431300457159073
0.28400000000000003,-0.0115,0.7079999999998889,0.006357144376613787,0.9711146031485994,0.01326036115877702,0.04416808305077807
0.28500000000000003,-0.0151,-1.2919999999998335,0.0063202340376270275,0.9716899448348598,0.013077194014496673,0.044233070247616114
0.28600000000000003,-0.0115,1.707999999999889,0.006328076797167299,0.9716899448348599,0.013116113620972905,0.04423307024761613
0.28700000000000003,-0.006,-0.29199999999994447,0.006333519595607464,0.9807883543373417,0.013143123447339877,0.045260772817012934
0.28800000000000003,-0.0053,0.7079999999999445,0.006319423579659896,0.989803133514099,0.013073172125901936,0.046279028999038074
0.28900000000000003,0.0049,-0.292,0.006478024120265127,0.9903676183917969,0.013860225534281626,0.046342789874940345
0.29000000000000004,0.0085,1.708,0.0064759518676036345,0.9807883543373429,0.013849942003632692,0.04526077281701307
0.29100000000000004,0.0023,-0.292,0.006477865708179714,0.9807883543373429,0.01385943941608003,0.04526077281701307
0.29200000000000004,-0.0052,0.708,0.006452044056540206,0.9807883543373429,0.013731299758703621,0.04526077281701307
0.29300000000000004,0.0078,1.708,0.006430285201177597,0.9790773547935936,0.013623321682398014,0.045067508419882094
0.29400000000000004,0.0024,-0.292,0.006213816680470194,0.979648020012459,0.012549099070170346,0.04513196739059927
0.29500000000000004,0.0172,-0.292,0.006200958716540248,0.9790773547935935,0.01248529156801891,0.04506750841988208
0.29600000000000004,0.0074,0.708,0.006207073952244133,0.9790773547935933,0.012515638356784077,0.04506750841988205
0.29700000000000004,0.016500000000000157,0.708,0.006192929559322629,0.9796480200124581,0.012445446965154204,0.045131967390599166
0.29800000000000004,0.017899999999998466,-0.292,0.00625275726918484,0.9886731968779718,0.01274234130601152,0.046151398034100004
0.29900000000000004,0.00409999999999859,-0.292,0.00626105048625221,1.0174670202691984,0.012783496302926401,0.04940377816425901
0.30000000000000004,-0.008599999999999112,-1.292,0.0062476065516734024,1.0174670202691984,0.012716780927985647,0.04940377816425901
0.30100000000000005,-0.000600000000001532,0.708,0.00625746438822654,1.0081452840638563,0.012765700331594168,0.048350849930279625
0.30200000000000005,-0.014399999999997746,-1.292,0.006202598361715031,1.0358588631884451,0.012493428288854932,0.05148121205189582
0.30300000000000005,0.005899999999997913,-0.292,0.0062027450127261205,1.0342389738894606,0.012494156042856775,0.051298238929587944
0.30400000000000005,-0.012899999999998678,-0.292,0.006207071251027677,1.0449333988352305,0.012515624952027633,0.05250621797163822
0.30500000000000005,-0.0010000000000002442,1.708,0.006204584023885522,1.0358588631884451,0.012503282115161017,0.05148121205189582
0.30600000000000005,-0.003199999999999356,0.708,0.006198927523495419,1.0358588631884451,0.012475211795258307,0.05148121205189582
0.30700000000000005,0.0025999999999998,1.708,0.006196398017587224,1.0363982636471218,0.012462659150488218,0.05154213954006446
0.30800000000000005,0.0007999999999994782,-0.292,0.006282199869074395,1.036937383517192,0.012888449878568745,0.05160303533460227
0.30900000000000005,-0.0038999999999995223,0.708,0.006311750093610212,1.036937383517192,0.013035092537228968,0.05160303533460227
0.31000000000000005,0.0003999999999989897,0.708,0.006332041995349618,1.0374762232360755,0.013135790872591252,0.05166389948491761
0.31100000000000005,-0.008699999999999033,0.708,0.006289805063155046,1.0460025625641503,0.012926190569109416,0.052626984388122
0.31200000000000006,6.106226635438355e-16,-0.292,0.00632610874168908,1.0644264110055037,0.01310634716768024,0.05470803343039601
0.31300000000000006,0.005499999999999267,0.708,0.006294583748360515,1.0644264110055037,0.012949904740979106,0.05470803343039601
0.31400000000000006,-0.0011000000000000777,0.708,0.006366586110176919,1.0644264110055037,0.013307215655952867,0.05470803343039601
0.31500000000000006,-0.0018000000000002441,0.708,0.006304919445971795,1.064426411005504,0.013001195524742494,0.054708033430396034
0.31600000000000006,-0.0040000000000005665,-1.292,0.006340907975932586,1.0649513420296577,0.013179788202044386,0.054767326536749594
0.31699999999999995,-0.0091,-0.292,0.0063596816297634695,1.0654760144346187,0.013272952249146314,0.05482659043100748
0.31799999999999995,0.0018,-0.292,0.006392786270381451,1.0737800447233399,0.013437233657848572,0.05576456461888503
0.31899999999999995,0.0032,1.708,0.006375619478708706,1.0639012209793477,0.01335204364622933,0.05464871106870687
0.31999999999999995,0.0043,-1.292,0.00642864651562308,1.0639012209793477,0.013615189723666831,0.05464871106870687
0.32099999999999995,0.0054,1.708,0.006433248340084215,1.0639012209793477,0.013638026226071425,0.05464871106870687
0.32199999999999995,-0.0023,-1.292,0.006365587416837903,1.0665245849134948,0.013302259651431074,0.0549450307556643
0.32299999999999995,-0.0016,0.708,0.006466620516611142,1.0670484837483314,0.013803635278728715,0.055004207272012426
0.32399999999999995,-0.0009,-0.292,0.006469853258135068,1.0665245849134948,0.013819677722374288,0.0549450307556643
0.32499999999999996,-0.0002,0.708,0.006489615888414466,1.0660004286022549,0.013917749554037608,0.05488582515630323
0.32599999999999996,-0.0038,-2.292,0.0064804577473751195,1.065476014434619,0.013872302381588299,0.05482659043100751
0.32699999999999996,0.0042,0.708,0.00657034694291308,1.0670484837483314,0.014318376508792927,0.055004207272012426
0.32799999999999996,-0.0006,-1.292,0.00657512481925321,1.0670484837483314,0.014342086666677419,0.055004207272012426
0.32899999999999996,0.0002,0.708,0.006588468210393478,1.0774172912845956,0.014408303095929267,0.05617540649575512
0.32999999999999996,-0.0038,1.708,0.006616021798116349,1.0861446695142982,0.014545037466743,0.05716119956522695
0.33099999999999996,-0.0046,-1.292,0.006581793158539773,1.095822987329174,0.01437517822578367,0.058254405150562905
0.33199999999999996,0.0034,-1.292,0.006590182950402315,1.095822987329174,0.014416812474039139,0.058254405150562905
0.33299999999999996,-0.0032,-1.292,0.006600216738095754,1.0963328855798073,0.014466605033212917,0.05831200024365735
0.33399999999999996,0.0012,0.708,0.006598920508057585,1.0866591091777762,0.014460172506150327,0.05721930762947837
0.33499999999999996,0.0066,-0.292,0.006502673400207591,1.0861446695143002,0.013982547310227586,0.05716119956522717
0.33599999999999997,-0.0032,-1.292,0.006343871075454867,1.0779358960549348,0.013194492550273464,0.056233985025863444
0.33699999999999997,0.0004,-1.292,0.006240081202945473,1.0680955105041157,0.012679436469114569,0.055122473226831586
0.33799999999999997,0.0142,0.708,0.006226809158114529,1.0784542514397493,0.01261357409512454,0.05629253538685667
0.33899999999999997,0.0015,-0.292,0.006208323228261876,1.0866591091777809,0.012521837875045615,0.0572193076294789
0.33999999999999997,-0.0033,1.708,0.0062038757440158205,1.0866591091777809,0.01249976728423164,0.0572193076294789
0.34099999999999997,0.0073,0.708,0.006166291722852157,1.0768984367684529,0.01231325699968536,0.05611679975583672
0.34199999999999997,0.0007,-1.292,0.006161921939268638,1.0768984367684529,0.01229157199753993,0.05611679975583672
0.34299999999999997,0.0018,0.708,0.006164446577083538,1.0763793321453299,0.012304100484451505,0.05605816476531186
0.344,-0.0036,-0.292,0.006114399643909138,1.0748205140094291,0.012055743138483148,0.05588208988067949
0.345,0.0029,-0.29199999999994447,0.0061122926564206445,1.0748205140094291,0.012045287236643823,0.05588208988067949
0.346,0.0036,0.7079999999998889,0.00588006020040996,1.0753403711291623,0.01089283627183565,0.05594080986877447
0.347,-0.0087,-1.2920000000000555,0.005854563203175563,1.0748205140094291,0.010766307708312474,0.05588208988067949
0.348,-0.0033,-2.291999999999889,0.00562524346044146,1.0830529001143347,0.009628311050552804,0.05681197156494204
0.349,-0.0059,-0.292,0.0053312768582629375,1.0835688076401897,0.00816950507604926,0.056870245430253076
0.35,-0.0073,-0.292000000000111,0.005315649647578628,1.0835688076401897,0.008091955217860772,0.056870245430253076
0.351,0.0031,-2.2919999999999443,0.005273625486975988,1.0748205140094291,0.007883410791023473,0.05588208988067949
0.352,-0.0005,-1.292,0.005273337393395682,1.0743004053293392,0.007881981129854306,0.05582334147781324
0.353,-0.0042,1.708,0.005099342146196304,1.0654760144346251,0.0070185316622323754,0.05482659043100821
0.354,-0.0009,-0.292,0.005097120884752119,1.066000428602261,0.007007508677166392,0.054885825156303934
0.355,-0.0002,-0.292,0.0049437436707158436,1.0763793321453299,0.006246375968448183,0.05605816476531186
0.356,0.0005,0.708,0.004962787006417371,1.0763793321453299,0.006340878308816065,0.05605816476531186
0.357,-0.0104,0.708,0.004983723150692742,1.0845998864928044,0.006444773690555491,0.056986710004176
0.358,-0.009,0.708,0.004976750997582756,1.0748205140094287,0.006410174458749479,0.05588208988067944
0.359,0.0088,0.708,0.005000558701242736,1.0748205140094287,0.006528319921808908,0.05588208988067944
0.36,-0.0032,-1.292,0.00507254768868944,1.0743004053293388,0.006885564466622661,0.05582334147781319
0.361,0.008,-2.292,0.0050876827140614415,1.0737800447233457,0.006960671860705239,0.05576456461888568
0.362,-0.0018,1.708,0.005051095468208235,1.0737800447233457,0.006779108062485484,0.05576456461888568
0.363,0.0108,-0.292,0.005052394959133236,1.0743004053293388,0.006785556771662503,0.05582334147781319
0.364,-0.0004,-0.292,0.00503813369253128,1.084084469649616,0.006714785395700931,0.05692849156347923
0.365,0.0072,0.708,0.005054957616314808,1.0835688076401884,0.006798273929255836,0.05687024543025293
0.366,-0.0052,0.708,0.005553049944787258,1.1356276921209378,0.009270051536797537,0.06275050937377015
0.367,-0.0066,-1.292,0.005907997054518592,1.1356276921209365,0.01103147259780086,0.06275050937377001
0.368,-0.0022,0.708,0.005840542987904539,1.1361197258901174,0.010696732546883846,0.06280608660061161
0.369,-0.0088,0.708,0.005855302647021924,1.1443995172630599,0.010769977190127367,0.0637413229038052
0.37,0.0025,-0.292,0.005856483513356044,1.1351354450757027,0.010775837226099275,0.06269490805652585
0.371,0.0068,2.708,0.005929648916654733,1.1272834743562223,0.011138919721417126,0.061807995846096385
0.372,0.0134,0.708,0.005915870213076349,1.1173775005195037,0.011070543059061268,0.060689075581890156
0.373,0.0021,-0.292,0.005914481778068046,1.1173775005195037,0.011063652965865945,0.060689075581890156
0.374,0.0065,-0.292,0.005956687825970762,1.1168772100022915,0.011273100006394969,0.060632565721585055
0.375,-0.0,-0.292,0.005961954813733441,1.1173775005195037,0.011299237374241836,0.060689075581890156
0.376,-0.0113,1.708,0.006105165969221216,1.142444374721623,0.01200992113114783,0.06352048155644405
0.377,0.0025,0.708,0.006094206777816867,1.117377500519504,0.01195553626641179,0.060689075581890184
0.378,0.0043,1.708,0.006197600793123165,1.1267875820721156,0.012468627910629047,0.06175198278421106
0.379,-0.0069,-1.292,0.00624558426710196,1.1188770298836896,0.012706745363424556,0.06085845355724283
0.38,0.0036,1.708,0.006259286900880761,1.1188770298836896,0.01277474453025103,0.06085845355724283
0.381,0.0046,-0.292,0.006248263478978654,1.1088959622579229,0.01272004092238846,0.059731051142400335
0.382,0.0036,0.708,0.006259961863903922,1.1104069454240901,0.012778094026702191,0.059901722871537375
0.383,0.0003,0.708,0.006272448246150692,1.1018717533773017,0.012840057558908005,0.058937638017543155
0.384,-0.0023,-0.292,0.0063383582578580835,1.093781017288283,0.013167135254625121,0.05802375628197959
0.385,-0.0048,0.708,0.006342683638247442,1.093781017288283,0.013188599906416295,0.05802375628197959
0.386,-0.0008,0.708,0.006358960550764673,1.1038987574363934,0.013269373902681994,0.05916659641726545
0.387,0.0043,1.708,0.006358928754676935,1.1054165712543604,0.013269216114952322,0.05933803969646334
0.388,0.0021,-1.292,0.00636117060482941,1.096842546789856,0.013280341271252851,0.058369568562048155
0.389,-0.0044,-0.292,0.0063355065916849695,1.1223681406358272,0.013152983893144603,0.0612527887967198
0.39,-0.0052,0.708,0.006375014401576996,1.1307486310712973,0.01334904095773263,0.06219939947092486
0.391,0.0003,-0.292,0.006389964803658907,1.1208732817674756,0.013423232160803647,0.06108393837297578
0.392,0.0054,-0.292,0.006374519390710605,1.1203745522527186,0.013346584471846196,0.06102760483428312
0.393,0.0003,-1.292,0.006388929864779743,1.1375945503081355,0.01341809628819437,0.06297267405124163
0.394,0.0018,-0.292,0.006403143375953655,1.137103154707636,0.013488630678378544,0.06291716890816294
0.395,-0.0044,0.708,0.006458467662002308,1.1453758370078124,0.01376317682894399,0.0638516022125087
0.396,-0.0051,-0.292,0.006462076150619281,1.1535891953189559,0.013781083913335065,0.06477933462963462
0.397,0.0032,-1.292,0.006452472509181379,1.1535891953189563,0.013733425950142047,0.06477933462963466
0.398,-0.0,0.708,0.006398866228031098,1.1453758370078124,0.01346740537966426,0.0638516022125087
0.399,0.0007,-0.292,0.006399879604355673,1.1297596708062279,0.013472434248337623,0.06208769236374684
0.4,-0.0054,-0.292,0.00637737662487599,1.13955801373586,0.013360763464426068,0.0631944552767447
0.401,-0.0,-0.292,0.006367704427036776,1.1395580137358596,0.013312765290858524,0.06319445527674465
0.402,-0.0051,-0.292,0.006361363730548295,1.1139246022774802,0.013281299655472185,0.06029905660173486
0.403,-0.0058,0.708,0.006444903720401472,1.1059220462801456,0.013695865920499024,0.05939513516821844
0.404,0.0033,1.708,0.006467917537398236,1.1059220462801456,0.013810071729874003,0.05939513516821844
0.405,0.0044,1.708,0.006492893945513068,1.1159297134398234,0.01393401687571553,0.060525542109218795
0.406,0.0055,-1.292,0.00666060172499227,1.1243581942126697,0.014766264855118331,0.061477573488329953
0.40700000000000003,0.0002,0.7079999999999445,0.006661948481527285,1.1322304518090622,0.01477294811935625,0.06236677718448799
0.40800000000000003,0.0049,-0.292,0.006654361387612068,1.1317367271406553,0.014735297250684043,0.062311008963662366
0.40900000000000003,0.0093,-0.292,0.006642850872065103,1.1317367271406553,0.014678176446058316,0.062311008963662366
0.41000000000000003,0.0039,-0.29199999999994447,0.006600055855413564,1.141028394039234,0.014465806654702458,0.06336054074644748
0.41100000000000003,0.0061,0.708,0.006592521392788568,1.1332172558221902,0.01442841696821915,0.0624782407341893
0.41200000000000003,0.0011,0.7080000000000555,0.006544415542054186,1.1622770786526946,0.01418969222214315,0.06576066658905759
0.41300000000000003,0.004,1.707999999999889,0.006546274636746755,1.179832947499837,0.014198917958756047,0.0677436737857858
0.41400000000000003,-0.0043,-0.2920000000001665,0.006596388278018125,1.206382656266363,0.014447606342909312,0.07074257198976897
0.41500000000000004,-0.0231,-3.291999999999889,0.0066028725943136635,1.256912971975041,0.014479784689981397,0.07645017783803017
0.41600000000000004,-0.0206,-1.291999999999889,0.006595556945986613,1.256912971975041,0.014443480867003618,0.07645017783803017
0.41700000000000004,0.0016,0.708,0.006618561494070115,1.2639599148033565,0.014557640679500232,0.07724615885527025
0.41800000000000004,0.0045,-1.292,0.006589218788383759,1.2792485645037859,0.014412027830808803,0.07897307437555469
0.41900000000000004,-0.0035,0.708,0.0067099546230827084,1.3531031030787866,0.015011178059747183,0.08731524660185873
0.42000000000000004,-0.0103,0.708,0.0068207987379010964,1.3951404595174601,0.015561240739443778,0.09206353796101226
0.42100000000000004,-0.0037,-0.292,0.006837031702540034,1.4018912673020967,0.015641796644855124,0.0928260693137594
0.42200000000000004,-0.0018999999999989897,-1.292,0.006840168208590593,1.3859393996705032,0.01565736152104076,0.09102424061532648
0.42300000000000004,0.007199999999999489,-0.292,0.006762286570244283,1.39233346101773,0.015270874762062868,0.09174647599873426
0.42400000000000004,0.0026000000000011656,0.708,0.006905342092333687,1.39233346101773,0.01598078618997062,0.09174647599873426
0.42500000000000004,0.013099999999998635,-2.292,0.007092182299693331,1.3923334610177298,0.016907978628682433,0.09174647599873423
0.42600000000000005,0.0008000000000012435,0.708,0.007100103380123146,1.392734807174116,0.016947286901696793,0.09179180968876248
0.42700000000000005,0.011999999999999523,1.708,0.007010877296169532,1.3851326530948613,0.0165045034583108,0.09093311528969533
0.42800000000000005,0.0076999999999996,0.708,0.007032295201914978,1.3915304214354012,0.016610789575955673,0.09165576939316088
0.42900000000000005,0.0040999999999996005,0.708,0.0070293817580536705,1.383517748672117,0.016596331643388643,0.0907507052295489
0.43000000000000005,0.0005000000000005996,-0.292,0.0069986029358313434,1.3770827548772016,0.016443592082454286,0.09002384635874479
0.43100000000000005,0.005899999999999922,1.708,0.007025605758565082,1.389922950382984,0.01657759328817124,0.09147419896259831
0.43200000000000005,0.005200000000000488,-0.292,0.007010619559262708,1.3899229503829842,0.016503224441794168,0.09147419896259834
0.43300000000000005,0.009599999999998634,0.708,0.007034590291546752,1.3974990463131094,0.016622178932576604,0.09232994998713319
0.43400000000000005,-0.0027000000000005995,0.708,0.007042023263502405,1.39709906878551,0.01665906497274874,0.09228477088932464
0.43500000000000005,-0.008099999999998756,1.708,0.007072679359576054,1.3974990463131094,0.016811195506543305,0.09232994998713319
0.43600000000000005,0.0030999999999998446,1.708,0.007056985667598826,1.4038404580138828,0.016733315735682482,0.09304623837761618
0.43700000000000006,0.0016999999999983567,-0.292,0.007080817330451644,1.4038404580138828,0.01685158009596832,0.09304623837761618
0.43800000000000006,-0.013099999999999357,-2.292,0.007080210483166487,1.3958984485510422,0.016848568623104947,0.09214915592283013
0.43900000000000006,-0.00729999999999859,-1.292,0.007096378055440441,1.39709906878551,0.01692880001963665,0.09228477088932464
0.44000000000000006,0.005399999999998746,-0.292,0.00713804834917715,1.3974990463131094,0.017135588386110717,0.09232994998713319
0.44100000000000006,-0.005899999999999833,-0.292,0.00714178136138561,1.3974990463131094,0.017154113417431414,0.09232994998713319
0.44200000000000006,-0.004399999999999001,-2.292,0.007214832330756223,1.397898909396084,0.017516628035661442,0.09237511615795325
0.44300000000000006,0.004599999999998468,-0.292,0.007218779222787187,1.3982986581326153,0.017536214443208496,0.09242026941287482
0.44399999999999995,-0.0092,-1.292,0.007344707359507104,1.3915304214354005,0.018161131412836058,0.0916557693931608
0.44499999999999995,-0.0037,-1.292,0.007394300731331942,1.3994972192432558,0.018407237965681524,0.09255565179291039
0.44599999999999995,0.0009,0.708,0.0073816106106320565,1.3994972192432558,0.018344263383681482,0.09255565179291039
0.44699999999999995,0.0024,-0.292,0.00737331789486127,1.3998965115730222,0.01830311087444529,0.09260075349482097
0.44799999999999995,0.0034,1.708,0.007367058542710437,1.3931360377073831,0.018272048909424476,0.0918371303186865
0.44899999999999995,0.0023,1.708,0.007376578751645056,1.400694754756988,0.018319292839753375,0.09269091832758007
0.44999999999999996,0.0063,-0.292,0.007386258141993773,1.4010937058057358,0.01836732670606886,0.09273598148040364
0.45099999999999996,-0.0014,-0.292,0.0074798460654350914,1.4014925432884617,0.018831755729113674,0.0927810318054805
0.45199999999999996,-0.0104,0.708,0.007481671356106279,1.4018912673020942,0.018840813713648655,0.09282606931375913
0.45299999999999996,-0.0069,1.708,0.007469277879395664,1.402289877943424,0.01877931122412661,0.09287109401617243
0.45399999999999996,-0.0058,1.708,0.007447697895406946,1.4018912673020942,0.01867222079501278,0.09282606931375913
0.45499999999999996,-0.0149,-1.292,0.007440188797347098,1.400694754756988,0.018634956979900252,0.09269091832758007
0.45599999999999996,0.0014,-1.292,0.007433161557768576,1.400694754756988,0.018600084382110416,0.09269091832758007
0.45699999999999996,-0.0099,-0.292,0.007433209483217399,1.393938152303914,0.018600322211614024,0.09192773244333044
0.45799999999999996,-0.0081,0.708,0.007561157865061707,1.401492543288462,0.0192352646250695,0.09278103180548053
0.45899999999999996,0.0046,1.708,0.007546357999606495,1.401492543288462,0.019161820458324326,0.09278103180548053
0.45999999999999996,-0.0001,0.708,0.007608025755139004,1.401492543288462,0.01946784600523464,0.09278103180548053
0.46099999999999997,0.0012,3.708,0.007606528455675899,1.4018912673020947,0.019460415673400306,0.09282606931375918
0.46199999999999997,0.0023,2.708,0.007601915131024861,1.4018912673020947,0.019437522101431976,0.09282606931375918
0.46299999999999997,0.0135,2.708,0.007601521749982269,1.401492543288462,0.019435569952409137,0.09278103180548053
0.46399999999999997,0.0029,3.708,0.007590943826455397,1.3935371527174087,0.019383077125249573,0.09188243789978784
0.46499999999999997,0.0065,0.708,0.007580610455040041,1.3935371527174083,0.01933179788520743,0.0918824378997878
0.46599999999999997,0.0075,-1.292,0.007239938253939216,1.3510363153290448,0.017641215898579744,0.08708179447154649
0.46699999999999997,0.002,-2.292,0.007006053118980427,1.3440300970523673,0.01648056353298127,0.08629041345899344
0.46799999999999997,-0.0129,-4.292,0.007017019239693912,1.343614202566304,0.01653498278433637,0.08624343647561974
0.469,-0.0151,-3.291999999999889,0.007028388107820863,1.3365690785674327,0.016591400665224992,0.08544766090260511
0.47,-0.0054,-1.292,0.007101782027100275,1.3365690785674327,0.016955617168540615,0.08544766090260511
0.471,-0.0072,-1.292,0.007056036963516452,1.3444458628845222,0.01672860780228751,0.08633737591038194
0.472,-0.0087,-1.2919999999999445,0.007072470220158835,1.3448615001820887,0.01681015765452514,0.08638432384326293
0.473,0.0141,-0.292,0.007071521985923336,1.3378229446069196,0.01680545205274003,0.08558929020057292
0.474,0.0174,-0.29199999999994447,0.007092228680781844,1.3448615001820887,0.01690820879431528,0.08638432384326293
0.475,-0.0034,0.708,0.007108960649612084,1.3514499257399795,0.016991241002443258,0.08712851345929165
0.476,-0.0009,0.7079999999998889,0.007017887056250629,1.3369871645708895,0.016539289314290218,0.08549488542683258
0.477,0.006,-1.2919999999999445,0.007017894830536182,1.3365690785674325,0.016539327894095297,0.08544766090260508
0.478,0.0038,-0.29199999999994447,0.006986342120651672,1.3353140351424688,0.016382747924295372,0.08530589861413171
0.479,0.0019,0.7079999999998334,0.006952863292230407,1.3348954251190435,0.016216609612805615,0.08525861489970533
0.48,-0.0072,-2.292,0.006942942862426494,1.3344766837824635,0.016167379590890395,0.08521131635292103
0.481,0.0007,-0.292,0.006969941581168969,1.3427820271542448,0.016301360430596618,0.08614943885890125
0.482,-0.0069,1.708,0.00698548152754002,1.3348954251190437,0.01637847724060685,0.08525861489970536
0.483,-0.0033,-0.292,0.006994662017759586,1.335314035142469,0.01642403532061296,0.08530589861413174
0.484,-0.007,0.708,0.0070894768612080475,1.335314035142469,0.016894552920466824,0.08530589861413174
0.4850000000000001,0.0005999999999985567,-1.292,0.007089858149802472,1.335314035142469,0.016896445060850914,0.08530589861413174
0.486,-0.0059,0.708,0.007064235873492781,1.327383063024292,0.016769294801318172,0.08441006287257254
0.4870000000000001,0.004200000000000222,-0.292,0.007057999948241975,1.3261193259543496,0.01673834909202665,0.08426731860133836
0.488,0.0052,1.708,0.007060456024520146,1.32654070541176,0.016750537343079252,0.08431491513466141
0.4890000000000001,0.00879999999999929,0.708,0.006940266183879203,1.3050147786322048,0.016154096603545318,0.08188347365536086
0.49,0.0056,0.708,0.0069574612976642785,1.298190712236798,0.016239427163330142,0.08111266744287052
0.4910000000000001,0.010199999999999047,0.708,0.006939745896458793,1.2986211540640311,0.016151514683042347,0.08116128760793374
0.492,0.0059,0.708,0.0069161417986159344,1.2990514532639987,0.016034379611572502,0.0812098916626639
0.4930000000000001,0.013499999999998935,-0.292,0.006917387231665992,1.276624545869587,0.016040560059149892,0.07867668073754844
0.494,0.0087,1.708,0.006938665984532575,1.2770622567288723,0.016146155632190212,0.07872612196951514
0.4950000000000001,0.00040000000000071055,0.708,0.006878994995463281,1.2943566407062177,0.015850039016514397,0.0806795933806233
0.496,0.0036,0.708,0.006872982051888486,1.2870419145408574,0.01582019985129543,0.0798533651401243
0.4970000000000001,0.0011000000000005773,-0.292,0.006927849947931767,1.2866075988195798,0.01609248117156517,0.07980430740288301
0.498,0.0037,1.708,0.00693113652666921,1.2870419145408574,0.016108790781780506,0.0798533651401243
0.4990000000000001,-0.0039000000000020203,0.708,0.006924764448665708,1.278811601972818,0.016077169415976963,0.07892371767033238
0.5,-0.013,0.708,0.006920873575194798,1.2705279756446033,0.016057860999907463,0.0779880481932543
0.5010000000000001,-0.0016999999999990452,0.708,0.0068921220805122025,1.2779372286817778,0.015915182029207907,0.078824953630577
0.502,0.0026,0.708,0.006891588548621696,1.285303771100883,0.01591253438317026,0.07965703472888544
0.5030000000000001,-0.0009999999999997559,-0.292,0.006888612333849335,1.285303771100883,0.015897764950659386,0.07965703472888544
0.504,0.0001,-1.292,0.006908841829348375,1.285303771100883,0.01599815359575204,0.07965703472888544
0.5050000000000001,-0.003100000000000555,1.708,0.006926154124753969,1.2770622567288723,0.01608406566801769,0.07872612196951514
0.506,-0.0056,-0.292,0.0067957245226451645,1.2770622567288723,0.015436810226758777,0.07872612196951514
0.5070000000000001,-0.013899999999997246,1.708,0.006815240880584216,1.2770622567288723,0.015533659934688346,0.07872612196951514
0.508,-0.0015,-0.292,0.0067868538355442265,1.2774998176149188,0.015392789541262874,0.07877554626139109
0.5089999999999999,0.0134,-0.292,0.006804796963150071,1.2770622567288723,0.015481832111264719,0.07872612196951514
0.51,0.0036,0.708,0.00683643499737573,1.2683266356392655,0.015638835502153017,0.07773939783530058
0.5109999999999999,0.0055,0.708,0.006840833101496766,1.2683266356392655,0.015660661044649027,0.07773939783530058
0.512,0.0008,-0.292,0.006871917557120137,1.2273617648365116,0.01581491730791674,0.0731122481156144
0.5129999999999999,-0.0006,-0.292,0.006868054518381816,1.2012758103152095,0.0157957470213963,0.07016573285056747
0.514,-0.0016,-0.292,0.0067391709829125864,1.1826210156553179,0.01515616391853936,0.06805859748824825
0.5149999999999999,-0.0052,-0.292,0.00673616752252051,1.1287698440739695,0.015141259279945465,0.06197588738555564
0.516,0.0094,-0.292,0.006704427226329761,1.1535891953189508,0.014983748415199486,0.06477933462963403
0.5169999999999999,-0.0043,-0.292,0.006664123451269766,1.1458636849320456,0.014783741382370421,0.0639067066310417
0.518,-0.0061,-0.292,0.006716950809437503,1.1208732817674705,0.015045896556261684,0.061083938372975204
0.5189999999999999,-0.0108,0.708,0.006594415083991788,1.030507542914527,0.014437814389629097,0.05087675853794145
0.52,-0.0064,1.708,0.006420398883065978,0.9836334064209549,0.013574260939374172,0.04558213308724472
0.5209999999999999,0.006,0.708,0.006424761000321812,0.9739879130009778,0.013595907897454232,0.04449263515157733
0.522,0.0014,-0.292,0.006387204603385528,0.9757078374217016,0.013409534697827267,0.044686907650068865
0.5229999999999999,0.009,-1.292,0.0063425511137957845,0.977424735383887,0.013187942255307589,0.04488083829768905
0.524,0.0055,-1.292,0.006184962164043063,0.9774247353838864,0.012405908855216113,0.04488083829768899
0.5249999999999999,0.0066,-1.292,0.005960596814008019,0.9779963649139873,0.011292498315797312,0.04494540619130464
0.526,-0.0009,-0.292,0.005951408576902492,0.9887338702753559,0.011246901791956285,0.04615825134251271
0.5269999999999999,0.01,-1.292,0.0059530929271227224,0.9993560139782002,0.01125526036108019,0.04735806592251569
0.528,-0.0037,-0.292,0.0059269513994515,1.0010323531277754,0.011125533322475071,0.047547415286349995
0.5289999999999999,0.0018,-0.292,0.005926310767262914,1.0015905093665989,0.01112235419240641,0.04761046131660476
0.53,-0.0062,1.708,0.005926669896225588,1.0015905093665998,0.011124136365865855,0.04761046131660487
0.5309999999999999,-0.0076,0.708,0.005885376592072276,0.9819884545644901,0.010919218805981751,0.045396329046553684
0.532,-0.0064,0.708,0.005906503333251682,0.993245628123969,0.01102406002272511,0.04666787284638668
0.5329999999999999,-0.0151,0.708,0.005920188481434288,0.9819884545644901,0.01109197241747609,0.045396329046553684
0.534,-0.0028,0.708,0.005913823697058815,0.99155612471168,0.01106038724622004,0.04647703652523181
0.5349999999999999,0.0053,0.708,0.00596687035167345,1.0021483547349443,0.011323630676275613,0.04767347223276746
0.536,0.001,-1.292,0.006030385157932103,0.9926827798157207,0.011638822191750182,0.04660429682769796
0.5369999999999999,-0.0026,0.708,0.006032294863961247,0.9926827798157207,0.011648299086554608,0.04660429682769796
0.538,-0.0015,0.708,0.0060173780066091484,1.0021483547349441,0.011574274348830002,0.04767347223276744
0.5389999999999999,0.0087,0.708,0.006020997624942104,1.0004738854981785,0.011592236664312127,0.04748433408323366
0.54,0.0022,0.708,0.00597006818045009,1.0093128566873606,0.01133949986580337,0.04848273203393801
0.5409999999999999,0.0012,0.708,0.005977163568547665,1.0180750904451883,0.011374710649856581,0.04947246217788446
0.542,0.0045,-0.292,0.00597220067528357,1.0180750904451883,0.011350082347556823,0.04947246217788446
0.5429999999999999,0.0071,0.708,0.006009587115150241,1.0175259767397917,0.011535612137127258,0.049410437538767796
0.544,-0.0012,2.708,0.005856238280387819,1.028394217326065,0.010774620260238045,0.05063804976838761
0.5449999999999999,-0.0023,-0.292,0.005795743756663199,1.028394217326065,0.010474416863048631,0.05063804976838761
0.546,-0.0088,-0.292,0.005797151130494449,1.027850616473512,0.010481400939940946,0.05057664782854937
0.5469999999999999,0.0032,0.708,0.0057889438024539015,1.036456143257184,0.010440672166360776,0.05154867727877146
0.548,0.0017,0.708,0.0057889438024539,1.036995233036424,0.010440672166360767,0.05160956967442693
0.5489999999999999,0.0003,0.708,0.0057797571145834755,1.026762551369866,0.010395083330581607,0.05045374642447616
0.55,-0.0008,-1.292,0.005862663418410386,1.0262180862033399,0.010806504935792579,0.05039224685683929
0.5509999999999999,0.001,-1.292,0.005740062306193467,1.053456326155343,0.010198098288039423,0.0534689174745868
0.552,-0.0102,0.708,0.005744739022510208,1.0800078248709957,0.010221306440439594,0.05646801786064542
0.5529999999999999,-0.0087,1.708,0.005740218626503949,1.089740647230932,0.010198874025831325,0.05756737995729108
0.554,-0.0076,0.708,0.00576070578799193,1.089740647230932,0.010300541335511408,0.05756737995729108
0.5549999999999999,-0.0065,-1.292,0.005762261201230697,1.081559166720301,0.01030826005630731,0.056643248268125876
0.556,-0.0054,-1.292,0.0057574806595706235,1.0815591667203013,0.010284536671802414,0.056643248268125904
0.5569999999999999,0.0076,0.708,0.005737216292931658,1.0815591667203013,0.01018397497906801,0.056643248268125904
0.558,0.0094,-0.292,0.005675989123627113,1.0800078248709954,0.00988013583638483,0.05646801786064539
0.5589999999999999,0.008,-0.292,0.00568402801604128,1.0902533901217648,0.009920028750053492,0.05762529636413177
0.56,-0.0025,0.708,0.005524865364384971,1.090253390121765,0.009130185871871553,0.0576252963641318
0.5609999999999999,0.0066,1.708,0.0055262215352940925,1.089740647230932,0.009136915854835647,0.05756737995729108
0.562,0.0004,-0.292,0.00552329102196299,1.097861159408542,0.009122373215215727,0.058484625023857005
0.563,-0.0029,-1.291999999999889,0.005523453384847265,1.1079416402623787,0.009123178939212478,0.05962325656944942
0.5640000000000001,-0.0022,-0.292000000000222,0.005526606266658979,1.1079416402623787,0.009138825079929639,0.05962325656944942
0.565,0.0004,-2.2919999999996667,0.005526896348348731,1.1079416402623787,0.00914026460706969,0.05962325656944942
0.5660000000000001,-0.0018,0.708,0.0055030980351473595,1.1079416402623787,0.009022165744056048,0.05962325656944942
0.567,-0.0087,0.708,0.005421428310422874,1.1084459638033788,0.008616880648806394,0.059680221976288014
0.5680000000000001,0.0014,0.708000000000111,0.005423810475857727,1.1184310472985912,0.008628702118125922,0.06080807800001089
0.569,0.0003,1.707999999999778,0.005390203747795727,1.1189306430722747,0.008461929106099922,0.06086450938619265
0.5700000000000001,-0.0059,-0.29199999999977794,0.00541308099079231,1.1283277717271898,0.008575457168526951,0.06192595350573622
0.571,0.0017,1.708,0.0054229677563288475,1.118431047298591,0.008624520131891945,0.06080807800001087
0.5720000000000001,0.0042,1.707999999999778,0.00541865342691774,1.1278323386062905,0.008603110320456705,0.061869992308213335
0.573,0.0016,-0.29199999999988896,0.005427090662539878,1.1376472814082388,0.008644980007838384,0.06297863024468933
0.5740000000000001,0.0056,0.708000000000111,0.005408381466208039,1.1298127675792033,0.008552135830354331,0.06209368986144121
0.575,0.0005,1.708,0.005379974336116108,1.1214252833914926,0.008411165765083306,0.06114628921431335
0.5760000000000001,-0.0017,1.708,0.005339288233675998,1.1134766360903634,0.008209261436907783,0.06024845698854122
0.577,0.0023,1.708,0.005356325559312098,1.1234170071743323,0.008293808974768602,0.06137126256252271
0.5780000000000001,0.0037,0.708,0.005352728353080806,1.1234170071743321,0.008275957879090247,0.061371262562522684
0.579,-0.0021,0.708,0.0054435230975257405,1.131789731162031,0.00872652578261473,0.062316995984684154
0.5800000000000001,0.0015,-1.292,0.005450069160228028,1.1401009688264945,0.008759010545539507,0.0632557842751328
0.581,0.005,1.708,0.005421238122189744,1.138629390884048,0.008615936841827253,0.06308956352719797
0.5820000000000001,0.0079,-0.292,0.005368890602794762,1.138629390884048,0.008356162862477506,0.06308956352719797
0.583,0.0017,-1.292,0.0053355146629631865,1.1381384420799903,0.008190535134462997,0.06303410885160497
0.5840000000000001,-0.0106,1.708,0.005159279475769565,1.1376472814082388,0.00731596998967939,0.06297863024468933
0.585,-0.0088,-0.292,0.0051582191226367405,1.1454282098875224,0.0073107079991206496,0.06385751794349771
0.5860000000000001,0.006,0.708,0.005202895649291008,1.144940176411599,0.007532414762815297,0.06380239256614233
0.587,0.0002,-1.292,0.005205119766891171,1.1366643233629419,0.007543451921523364,0.06286760111278608
0.5880000000000001,0.0056,-1.292,0.005220537615939458,1.1366643233629417,0.0076199628249353675,0.06286760111278605
0.589,0.0041,-1.292,0.005220519787977764,1.1361725254385546,0.007619874353874912,0.06281205052557862
0.5900000000000001,-0.0064,-1.292,0.00516188357420351,1.1439634848508065,0.007328892799023994,0.06369207125929624
0.591,-0.01,0.708,0.0051632763607503355,1.1439634848508065,0.007335804486680549,0.06369207125929624
0.5920000000000001,-0.009,-0.292,0.005164747364486567,1.1439634848508065,0.007343104326264462,0.06369207125929624
0.593,0.0012,1.708,0.005145772516064164,1.1439634848508065,0.007248941853253022,0.06369207125929624
0.5940000000000001,-0.0025,1.708,0.0050960235665468215,1.143474826232432,0.007002063247849061,0.06363687526954392
0.595,-0.0014,-0.292,0.00509806469450054,1.115428773563403,0.0070121923224838794,0.060468958901134996
0.5960000000000001,0.0019,-1.292,0.005126533303636686,1.125351901310243,0.007153467476824016,0.06158981676965571
0.597,0.0011,0.708,0.005056247388578591,1.1337103357286058,0.006804674409685287,0.06253393612651068
0.5980000000000001,0.0018,0.708,0.005128046309292524,1.1332172558221822,0.007160975750464072,0.062478240734188395
0.599,-0.0106,-0.292,0.005145256391023955,1.1424968819816832,0.007246380588515232,0.06352641246624328
0.6000000000000001,-0.0051,-2.292,0.005171822581283726,1.1502450054003477,0.007378215010465031,0.06440159469926908
0.601,0.0028,-2.292,0.005182092786211932,1.1420075958123734,0.007429180787521375,0.0634711455920459
0.6020000000000001,0.0013,1.708,0.0051828023012748525,1.1342032012750534,0.0074327017480832844,0.06258960730599684
0.603,0.0049,-0.292,0.005082574083097725,1.1337103357286058,0.006935320336701579,0.06253393612651068
0.6040000000000001,0.0013,0.708,0.005012153122786001,1.1322304518090542,0.00658585710900256,0.062366777184487084
0.605,-0.002,1.708,0.004957670846475622,1.1322304518090542,0.006315489422343152,0.062366777184487084
0.6060000000000001,0.0027,-0.292,0.0049355648695891255,1.123861011179072,0.00620578875935874,0.06142141463100994
0.607,0.011,-1.292,0.004938908769968432,1.123861011179072,0.006222382827580529,0.06142141463100994
0.6080000000000001,-0.0034,1.708,0.004890817502511225,1.1317367271406473,0.005983730450854354,0.062311008963661464
0.609,-0.0016,-0.292,0.004819275545004972,1.1415180999215238,0.0056287042871188565,0.06341585502894273
0.6100000000000001,0.003800000000000311,-0.292,0.004762072623858621,1.1420075958123732,0.005344835430898669,0.06347114559204588
0.611,0.0052,-1.292,0.004767511236416842,1.1497590164916016,0.005371824484873327,0.06434670026413947
0.6120000000000001,0.000900000000000222,1.708,0.0047840874556682195,1.1400483512177513,0.005454083787458676,0.06324984090099844
0.613,0.0019,-0.292,0.00479852904188831,1.1400483512177513,0.005525749997507877,0.06324984090099844
0.6140000000000001,-0.0016999999999997557,-0.292,0.004828134874334577,1.1322304518090556,0.005672668609801587,0.062366777184487236
0.615,-0.0006,-0.292,0.005160709853963829,1.140538477894992,0.007323068225465793,0.06330520271400465
0.6160000000000001,0.000100000000000977,0.708,0.0052098573895294755,1.1149276086134308,0.007566962320862896,0.06041235027007288
0.617,0.0045,1.708,0.005411880306543028,1.1149276086134308,0.008569498786372773,0.06041235027007288
0.6180000000000001,0.0005000000000025091,0.708,0.005373142684647116,1.1144262182862321,0.008377263771098835,0.06035571618173115
0.619,0.0118,1.708,0.005375117390778159,1.1223681406358295,0.008387063228181738,0.06125278879672005
0.6200000000000001,0.007099999999999667,-0.292,0.005384246615796382,1.120873281767481,0.008432366905199724,0.06108393837297638
0.621,0.0056,1.708,0.0053831686952016036,1.1292648658908564,0.008427017736307576,0.06203180212460793
0.6220000000000001,-0.003399999999997513,1.708,0.0053805193656662805,1.1448877812068088,0.008413870468128415,0.06379647431344418
0.623,0.0078,0.708,0.005366597969597246,1.143422363880698,0.008344785695884102,0.06363094943232382
0.6240000000000001,0.0002999999999997557,-0.292,0.005422616470686555,1.153104615857532,0.008622776880822141,0.06472459939734523
0.625,-0.0008,0.708,0.0054364227543087585,1.1774111116249124,0.0086912904088369,0.06747011751744698
0.6260000000000001,-0.0044000000000012215,1.708,0.005588192591773317,1.1679303801547376,0.009444446529300795,0.06639923011795125
0.627,-0.0099,-1.292,0.005592996298990249,1.158372055947038,0.00946828487262243,0.06531957830136714
0.6280000000000001,-0.010599999999996937,-1.292,0.0056229493693360525,1.148734202115331,0.0096169266491078,0.0642309432884438
0.629,0.0032,-1.292,0.005698055718773193,1.1731312534304987,0.009989641067923015,0.0669866900280761
0.6300000000000001,-0.0025999999999996,-1.292,0.0057341846959452995,1.172654749417194,0.010168930712939776,0.06693286695068354
0.631,-0.0008,0.708,0.005732118565189459,1.1740836812871709,0.01015867756217915,0.06709427065029365
0.6320000000000001,-0.002200000000000955,-0.292,0.005745023916580184,1.164575861752,0.010222720224074545,0.06602032354305572
0.633,-0.0065,-0.292,0.005707146787769464,1.1650556700090018,0.010034755396108942,0.06607451984828952
0.6340000000000001,0.0024999999999975133,-1.292,0.0058631192251760505,1.1650556700090018,0.010808766871767765,0.06607451984828952
0.635,-0.0087,-0.292,0.005793973907027167,1.1636156517020517,0.010465634004030352,0.06591186389027538
0.6360000000000001,0.0017999999999985345,-0.292,0.005769447624934239,1.164095855731263,0.010343922603536653,0.06596610489959912
0.637,-0.0048,0.708,0.005792531788185136,1.164095855731263,0.010458477505410754,0.06596610489959912
0.6379999999999999,0.0014,-0.292,0.005796479842656701,1.1655352807465054,0.010478069681556281,0.06612869384288805
0.639,-0.004,-1.292,0.0057780388208730155,1.1578894781257216,0.010386556317267188,0.0652650691625154
0.6399999999999999,0.0025,0.708,0.005782707314161981,1.1497068408942195,0.010409723662984021,0.06434080681699633
0.641,-0.0018,0.708,0.005756900633245159,1.1419550660548712,0.010281658297651453,0.06346521214106855
0.6419999999999999,-0.0011,-0.292,0.005674293281210488,1.1497068408942182,0.009871720237364885,0.06434080681699618
0.643,-0.0004,-0.292,0.005707357198984427,1.1578894781257172,0.010035799559409178,0.0652650691625149
0.6439999999999999,0.0018,-0.292,0.005706492317625995,1.148734202115326,0.010031507595343984,0.06423094328844321
0.645,0.0058,1.708,0.005704227910841831,1.1395053710557148,0.010020270502011054,0.06318850907069291
0.6459999999999999,0.0022,-1.292,0.0057286367685683735,1.1395053710557153,0.010141399185400276,0.06318850907069297
0.647,0.0091,-0.292,0.005729351306104468,1.139505371055714,0.010144945069929119,0.06318850907069282
0.6479999999999999,-0.0046,1.708,0.005735273077246157,1.1390147998248785,0.01017433179296881,0.0631330970435397
0.649,0.0052,-1.292,0.0057432611078034965,1.139014799824878,0.010213972305241991,0.06313309704353964
0.6499999999999999,0.0033,-0.292,0.00582738736256172,1.139014799824878,0.01063144790330117,0.06313309704353964
0.651,-0.0014,0.708,0.005809807548386508,1.11336888186689,0.010544208272134203,0.06023628570824254
0.6519999999999999,0.0004,-0.292,0.005818348037653064,1.0871181260557434,0.010586590354571134,0.05727115546340525
0.653,0.0019,-1.292,0.0058191379472176934,1.0768427309080608,0.010590510271948345,0.05611050755104645
0.6539999999999999,-0.0017,0.708,0.005810820686841729,1.0855747282729147,0.010549235960383556,0.0570968223707277
0.655,0.0044,-0.292,0.005813998010617583,1.0855747282729147,0.010565003394074318,0.0570968223707277
0.6559999999999999,-0.0057,-1.292,0.005813998010617583,1.075284584552104,0.010565003394074318,0.055934508546706584
0.657,0.0033,-1.292,0.005834956044361499,1.075284584552104,0.010669007402056506,0.055934508546706584
0.6579999999999999,0.0044,1.708,0.005737527824501711,1.0664683371859203,0.01018552095099908,0.05493867734475932
0.659,-0.0032,0.708,0.005801982785323521,1.0829975108195113,0.010505377972975159,0.056805715117527626
0.6599999999999999,0.0033,-1.292,0.005801257190044389,1.0829975108195113,0.010501777214520199,0.056805715117527626
0.661,0.0077,-0.292,0.00579503309915609,1.083513444718601,0.01047089023312022,0.0568639919618034
0.6619999999999999,0.0037,-0.292,0.0057735995281744616,1.0747647004487446,0.010364526376916048,0.05587578551070065
0.663,-0.0061,0.708,0.005790701204340551,1.0643700523977824,0.010449393253562006,0.0547016674951249
0.6639999999999999,-0.0184,-1.292,0.005872391698889445,1.0643700523977824,0.010854781418832917,0.0547016674951249
0.665,-0.0072,-0.292,0.005882655117869103,1.0732035370779145,0.010905713520695515,0.05569944572219007
0.6659999999999999,-0.0148,0.708,0.005948643878165919,1.0819649049538693,0.011233182005406636,0.05668907806123718
0.667,-0.0058,-0.292,0.00596310657242011,1.0901433404201546,0.01130495296383891,0.057612865800188116
0.6679999999999999,-0.0021,-1.292,0.005945798180130146,1.0798967310687588,0.011219060260740899,0.0564554693612652
0.669,-0.0032,-1.292,0.0059837043742510376,1.0896305457436948,0.011407169324983056,0.05755494354394904
0.6699999999999999,-0.0058,-1.292,0.0059175142405474,1.0798967310687588,0.011078701526993489,0.0564554693612652
0.671,0.0004,-2.292,0.0058917689766066015,1.0804141456949288,0.01095094094271732,0.056513913459721454
0.6719999999999999,-0.0018,-1.292,0.005908032277582796,1.0700743774748933,0.011031647391862907,0.05534599434552908
0.673,0.0079,1.708,0.005899268546876068,1.0685063612324202,0.010988157476276676,0.05516888049713547
0.6739999999999999,0.0068,-2.292,0.005855311355327344,1.0767870221658158,0.01077002040499559,0.05610421502073909
0.675,0.0129,-0.292,0.005891766624642142,1.0767870221658158,0.010950929271120005,0.05610421502073909
0.6759999999999999,0.0028,-0.292,0.005896787442464802,1.08654869543405,0.0109758450233936,0.05720683594548863
0.677,-0.0063,-0.292,0.005882476507056156,1.085004487647541,0.010904827166534509,0.057032411359582175
0.6779999999999999,-0.01,-2.292,0.00580495770314063,1.0762678638052956,0.010520140969360102,0.05604557396035542
0.679,0.0067,-0.292,0.005721897438785445,1.0762678638052954,0.010107955336750027,0.056045573960355394
0.6799999999999999,-0.0002,1.708,0.00571452640029281,1.0679831775591955,0.010071376640695226,0.055109784761216696
0.681,0.0063,-0.292,0.005749807647603749,1.0679831775591955,0.010246459435760084,0.055109784761216696
0.6819999999999999,0.0044,0.708,0.005766485429722095,1.0679831775591955,0.010329222742936508,0.055109784761216696
0.683,0.0135,-1.292,0.0057625722272527345,1.0685063612324202,0.010309803519462007,0.05516888049713547
0.6839999999999999,0.0055,-1.292,0.005740606649919291,1.0685063612324202,0.010200799587688873,0.05516888049713547
0.685,0.0069,0.708,0.005735128551492033,1.060161024035297,0.010173614585530878,0.05422624052499233
0.6859999999999999,-0.008,0.708,0.0056838969312589084,1.069029288859224,0.00991937824328751,0.055227947311563684
0.687,-0.0022,1.708,0.005681526952531077,1.069029288859224,0.009907617250365233,0.055227947311563684
0.688,0.0032,0.7079999999998889,0.0056640223809703545,1.0788611573708498,0.00982075100983088,0.056338497076180584
0.6890000000000001,-0.0048,-0.29199999999988896,0.00566280743487103,1.0793790684130762,0.009814721853405425,0.05639699724686095
0.69,-0.0033,0.7079999999997779,0.005657785493874839,1.0711184463996979,0.009789800527395745,0.05546392620124039
0.6910000000000001,-0.0022,-1.292,0.005656947163603098,1.0711184463996979,0.009785640322801211,0.05546392620124039
0.692,-0.0109,-1.291999999999778,0.005669415534915207,1.0793790684130762,0.009847514475945274,0.05639699724686095
0.6930000000000001,-0.0008,0.708,0.005669822338042913,1.08809071169805,0.009849533231915324,0.05738101298996352
0.694,-0.0019,0.7079999999998889,0.005669893452586799,1.088604231724404,0.009849886137043753,0.057439017177440106
0.6950000000000001,-0.0055,-0.292000000000111,0.005666938720609811,1.0891175096255643,0.009835223312664577,0.05749699401588568
0.696,0.0021,-1.291999999999889,0.005660203222670975,1.0793790684130762,0.009801798479497772,0.05639699724686095
0.6970000000000001,0.0028,-0.29199999999988896,0.005655744703609667,1.0711184463996979,0.009779673128536559,0.05546392620124039
0.698,0.0035,0.7079999999998889,0.005592549293526104,1.0716400994095048,0.00946606661300757,0.05552284904246509
0.6990000000000001,0.0144,-0.292,0.005715654256629171,1.061741365030911,0.010076973615146308,0.054404746504666326
0.7,-0.0023,-0.292,0.0057031926392839966,1.061741365030911,0.0100151329784876,0.054404746504666326
0.7010000000000001,0.0042,-0.292,0.0056990863289690845,1.088604231724404,0.009994755459489977,0.057439017177440106
0.702,-0.0017,-0.292000000000111,0.005752721844511078,1.08809071169805,0.01026092110530957,0.05738101298996352
0.7030000000000001,0.0038,-1.291999999999778,0.005753691309872397,1.0886042317244042,0.010265732066319037,0.057439017177440134
0.704,0.0023,0.708,0.005775260362580006,1.0804141456949286,0.01037276824907266,0.05651391345972143
0.7050000000000001,-0.002,-0.292,0.005773376672831731,1.0798967310687588,0.010363420459770982,0.0564554693612652
0.706,-0.0057,-0.292,0.005795705056558552,1.0886042317244042,0.010474224814212285,0.057439017177440134
0.7070000000000001,0.003,-0.292,0.005817312013140368,1.0798967310687588,0.010581449094517604,0.0564554693612652
0.708,-0.0093,-2.292,0.005808294028898129,1.0716400994095048,0.010536697448605909,0.05552284904246509
0.7090000000000001,-0.0013,-0.292,0.00579130220294173,1.070074377474893,0.01045237570239657,0.05534599434552906
0.71,-0.0028,0.708,0.005803886348188619,1.070074377474893,0.010514824382396733,0.05534599434552906
0.7110000000000001,-0.0017,-0.292,0.005795569992307195,1.061214846189494,0.010473554559375984,0.054345274047858064
0.712,0.0045,-0.292,0.005750156997938279,1.061741365030911,0.010248193082886764,0.054404746504666326
0.7130000000000001,-0.01,-0.292,0.005738203682838176,1.061741365030911,0.010188874890432492,0.054404746504666326
0.714,0.0038,-1.292,0.005768460414610415,1.061741365030911,0.010339023583349278,0.054404746504666326
0.7150000000000001,-0.0089,-1.292,0.005473737925829314,1.061741365030911,0.008876466530037062,0.054404746504666326
0.716,-0.0042,-1.292,0.005427622588633572,1.061741365030911,0.008647619685127315,0.054404746504666326
0.7170000000000001,0.0002,-0.292,0.005243018992184544,1.061741365030911,0.007731526403036926,0.054404746504666326
0.718,0.0067,1.708,0.005276205978933335,1.0705965392121306,0.007896216453492064,0.055404974649597954
0.7190000000000001,0.0078,0.708,0.005279359945462286,1.0705965392121306,0.00791186797710638,0.055404974649597954
0.72,0.0045,0.708,0.005281856811743607,1.0617413650309109,0.007924258648093268,0.054404746504666306
0.7210000000000001,0.0071,-0.292,0.005250970428782617,1.053342432026321,0.00777098531819665,0.05345605266684176
0.722,0.0009,-1.292,0.005259078691206496,1.0347212453370402,0.0078112224797624195,0.05135271346227292
0.7230000000000001,0.0031,-1.292,0.005260564071957233,1.0347212453370402,0.007818593665119973,0.05135271346227292
0.724,-0.0066,-0.292,0.00520853677062763,1.0330995722667309,0.007560408764337163,0.051169538855697576
0.7250000000000001,0.0025,1.708,0.00519987401040578,1.015758746945625,0.007517419913652512,0.04921082170484822
0.726,0.0014,-1.292,0.005231043175074969,1.015758746945625,0.007672096544612394,0.04921082170484822
0.7270000000000001,0.0025,-0.292,0.005251613638956671,1.0266456958882986,0.007774177241489357,0.050440547119848016
0.728,-0.004,-1.292,0.005222571712382713,1.0271899343990283,0.007630057005778179,0.05050202108578559
0.7290000000000001,-0.0015,0.708,0.0051275493239582165,0.9992359534488402,0.0071585094663026904,0.04734450459462945
0.73,-0.0069,-1.292,0.005135788503952127,0.9992359534488402,0.007199396304845076,0.04734450459462945
0.7310000000000001,0.0044,0.708,0.005165632361144199,0.9992359534488401,0.007347496112276891,0.047344504594629445
0.732,-0.0004,0.708,0.0051387929656106605,0.9992359534488401,0.0072143059122125605,0.047344504594629445
0.7330000000000001,0.004,-0.292,0.0051763102442270005,0.9986764812591221,0.007400484987614445,0.04728130992233838
0.734,0.0004,0.708,0.00500709920548291,1.01795723769488,0.006560777100927635,0.049459150227672805
0.7350000000000001,0.00399999999999929,-1.292,0.005257136736352344,1.01795723769488,0.007801585550524678,0.049459150227672805
0.736,0.0008,-0.292,0.005275989225688052,1.0282775472702406,0.007895140817937312,0.050624871408355594
0.7370000000000001,-0.0016999999999994448,1.708,0.005246247676111232,1.0368795307704168,0.007747548710901598,0.05159650063021341
0.738,0.0008,0.708,0.005300328343218855,1.0261011687164465,0.00801592341638541,0.05037904054845594
0.7390000000000001,-0.0031999999999998223,0.708,0.0052921050449586645,1.0255563524236726,0.007975115390768929,0.05031750131967312
0.74,-0.0024,0.708,0.005280139496965666,1.0363403808044782,0.007915736492720524,0.051535601436224154
0.7410000000000001,0.004099999999998802,-1.292,0.005410679328132462,1.0358009502029155,0.008563538944446513,0.05147467054329325
0.742,-0.0013,-1.292,0.005407233467059183,1.0266456958883008,0.008546438897421594,0.050440547119848266
0.7430000000000001,-0.0004999999999998445,0.708,0.00533873116872726,1.026645695888304,0.00820649700833194,0.05044054711984862
0.744,0.0002,0.708,0.005394117620246902,1.026101168716452,0.008481351654351684,0.05037904054845657
0.7450000000000001,-0.005199999999998867,0.708,0.005406100831172034,1.0347212453370462,0.008540818204503194,0.0513527134622736
0.746,-0.0001,0.708,0.005386593267050464,1.0347212453370458,0.008444012135794494,0.051352713462273554
0.7470000000000001,0.0035000000000020206,0.708,0.005511287113271213,1.0347212453370473,0.009062803952628798,0.05135271346227373
0.748,0.0126,0.708,0.0055159980325575975,1.0438056711414916,0.009086181836883174,0.05237883651577835
0.7490000000000001,0.0035999999999986234,-1.292,0.005585056453691416,1.0438056711414923,0.009428883479155502,0.052378836515778425
0.75,-0.0026,-2.292,0.005410131526812526,1.0438056711414923,0.008560820486524965,0.052378836515778425
0.7510000000000001,-0.00799999999999798,-0.292,0.005419873822847466,1.0438056711414923,0.00860916652160456,0.052378836515778425
0.752,0.0011,0.708,0.005403321440144129,1.0528117128254368,0.008527025507622183,0.05339610576225057
0.7530000000000001,-0.0053999999999986455,0.708,0.0054027292737390846,1.0533424320263283,0.008524086888462127,0.053456052666842585
0.754,0.0007,-0.292,0.005409938596224115,1.0443409670944914,0.00855986307063842,0.05243930038324173
0.7550000000000001,-0.006800000000000177,-1.292,0.005457279710778072,1.0544030690379125,0.00879479282197469,0.05357585595572567
0.756,-0.0076,-0.292,0.005501803525538839,1.0544030690379127,0.00901574175460634,0.0535758559557257
0.7570000000000001,0.0007999999999997558,0.708,0.0056261991627238545,1.0814482322825938,0.009633053712437084,0.056630717769621135
0.758,-0.0003,-1.292,0.0056181261710381335,1.0814482322825938,0.009592991581514826,0.056630717769621135
0.7590000000000001,-0.004999999999998624,0.708,0.005542389425683578,1.0549329876543247,0.009217148830012113,0.05363571243102606
0.76,0.0012,-0.292,0.0055667097023875955,1.0549329876543247,0.009337837931068071,0.05363571243102606
0.7610000000000001,-0.0027999999999995116,0.708,0.005684709295828829,1.054932987654325,0.009923409593377256,0.053635712431026085
0.762,-0.0006,-0.292,0.005691011481248511,1.0819649049538798,0.009954684118015528,0.05668907806123836
0.7630000000000001,-0.008499999999997603,0.708,0.005688693253801891,1.0824813310152601,0.009943179940247288,0.056747410497258004
0.764,0.0023,-1.292,0.005603363843689374,1.0824813310152603,0.009519733697202956,0.05674741049725803
0.7649999999999999,0.0009,-0.292,0.005590794938506457,1.0824813310152603,0.009457360645849754,0.05674741049725803
0.766,0.0045,0.708,0.005521660959719229,1.082481331015262,0.009114284049567694,0.056747410497258205
0.7669999999999999,0.0082,-1.292,0.005527310563884064,1.1002945312741725,0.009142320147029667,0.05875948432953284
0.768,0.0027,-1.292,0.005545977836955779,1.100294531274172,0.009234956280804375,0.058759484329532784
0.7689999999999999,0.0035,-0.292,0.0056620803518897585,1.0906558939955067,0.009811113712245242,0.05767076082307087
0.77,-0.0008,0.708,0.005635869093400833,1.09014334042016,0.009681040635237398,0.05761286580018872
0.7709999999999999,-0.003,-1.292,0.005639293414603919,1.099786469778168,0.009698033790897466,0.05870209670538677
0.772,-0.0022,-1.292,0.005599200515498242,1.1083377204906488,0.009499073227632491,0.05966799545135723
0.7729999999999999,0.0029,-1.292,0.005617704679036284,1.1002945312741625,0.00959089993217117,0.05875948432953171
0.774,-0.0062,1.708,0.00561338254792175,1.0916802792010762,0.009569451404869958,0.05778646932218039
0.7749999999999999,0.0141,-0.292,0.005575111269643373,1.0916802792010771,0.009379530614580734,0.05778646932218049
0.776,0.0054,1.708,0.005570286953352564,1.1078333476735935,0.009355589998960552,0.059611024478586634
0.7769999999999999,0.0029,0.708,0.005602301720286521,1.099786469778158,0.009514462921699007,0.05870209670538565
0.778,0.0008,0.708,0.005616604254651351,1.1002945312741554,0.009585439088472147,0.0587594843295309
0.7789999999999999,0.0073,-0.292,0.005636292670100242,1.0916802792010691,0.009683142629869369,0.05778646932217959
0.78,0.0055,1.708,0.005656976033754167,1.0911682068094781,0.009785783590602901,0.05772862865097088
0.7809999999999999,-0.0036,-0.292,0.00561692545007818,1.0829975108195,0.00958703301718435,0.05680571511752635
0.782,0.0076,-0.292,0.005634104925751334,1.0824813310152388,0.009672285973013721,0.056747410497255596
0.7829999999999999,0.0033,-2.292,0.005646481785211759,1.0906558939954896,0.009733705999617608,0.05767076082306894
0.784,-0.017,-1.292,0.0056503370306846545,1.0992781734676575,0.009752837612145557,0.05864468255798177
0.7849999999999999,-0.0083,1.708,0.005650794889700142,1.108841863886416,0.00975510973238753,0.0597249405100549
0.786,-0.0057,-1.292,0.005763589973979825,1.108841863886416,0.010314854076208958,0.0597249405100549
0.7869999999999999,-0.0079,-0.292,0.005763589973979825,1.108841863886416,0.010314854076208958,0.0597249405100549
0.788,-0.0014,-0.292,0.005772165221454567,1.0992781734676578,0.010357408645865148,0.058644682557981796
0.7889999999999999,-0.0032,1.708,0.005797188636125431,1.0987696420167783,0.010481587061215093,0.0585872418505103
0.79,-0.0123,-0.292,0.0058255105756787485,1.1068239125209833,0.010622134369391335,0.0594970046491105
0.7909999999999999,-0.001,-0.292,0.005869475105529924,1.1068239125209833,0.01084030785691624,0.0594970046491105
0.792,0.0066,-1.292,0.005855743931785232,1.0982608750988847,0.01077216706082833,0.058529774546076406
0.7929999999999999,0.0077,-0.292,0.005899162831929204,1.0982608750988847,0.010987632867035569,0.058529774546076406
0.794,0.004,-1.292,0.005899090672966887,1.0982608750988847,0.010987274778992365,0.058529774546076406
0.7949999999999999,0.0029,-0.292,0.005920588034098014,1.1496546629288833,0.011093955193099761,0.06433491310238311
0.796,-0.0119,-1.292,0.00589847356389446,1.157354868268459,0.010984212382124471,0.06520468279237193
0.7969999999999999,0.0036,-1.292,0.005917591745264783,1.157354868268459,0.0110790861432864,0.06520468279237193
0.798,0.0094,0.708,0.0059208428357845535,1.1664424836010614,0.011095219643618568,0.06623116611612845
0.7989999999999999,0.004,-0.292,0.005784377299060887,1.1659632460350977,0.010418010944361565,0.06617703427278177
0.8,-0.004,-0.292,0.005821990244577622,1.1578376689110668,0.01060466476568637,0.06525921709979997
0.8009999999999999,0.0003,-1.292,0.0058203495366079975,1.1409232419379158,0.010596522770742842,0.06334866338648992
0.802,0.0014,0.708,0.005784449841605067,1.1414129929341241,0.01041837093592548,0.06340398276478681
0.8029999999999999,-0.0048,-0.292,0.005785138447493505,1.1409232419379158,0.010421788134942944,0.06334866338648992
0.804,0.0075,1.708,0.0057718903089448385,1.1409232419379158,0.010356044395611257,0.06334866338648992
0.8049999999999999,-0.0073,-0.292,0.0058600356123971915,1.1414129929341241,0.010793464477851183,0.06340398276478681
0.806,-0.0131,-2.292,0.005823632581366245,1.1331113788518523,0.010612814843625954,0.06246628149731097
0.8069999999999999,-0.0005,-0.292,0.005781487244912541,1.1331113788518523,0.010403669082983432,0.06246628149731097
0.808,0.001,0.708,0.0058145204576481235,1.1326180381924151,0.0105675960316184,0.062410556651869224
0.8089999999999999,0.0053,-0.292,0.005863319598887246,1.1242514829358892,0.010809761224067852,0.06146552001312629
0.81,0.0118,0.708,0.005916755795384049,1.133604504811205,0.011074937751355606,0.06252198209149995
0.8109999999999999,0.0031,-2.292,0.005981229916979892,1.1419025338808675,0.01139488985845846,0.06345927841713747
0.812,0.0042,0.708,0.0060761521983021365,1.1414129929341241,0.011865940617558987,0.06340398276478681
0.813,0.0016,-0.292000000000111,0.006075919672120991,1.1414129929341241,0.011864786708986483,0.06340398276478681
0.8140000000000001,-0.0009,-1.292,0.0060432685546047875,1.1659632460350977,0.011702755903602922,0.06617703427278177
0.815,0.0012,-1.292000000000111,0.006038760602649887,1.1825195620622901,0.011680385242460302,0.06804713788993047
0.8160000000000001,0.0048,-2.2919999999997778,0.006039119506116585,1.1825195620622901,0.01168216629689849,0.06804713788993047
0.817,-0.0046,-0.29199999999988896,0.006027389164307556,1.1825195620622901,0.011623954606906614,0.06804713788993047
0.8180000000000001,-0.0133,0.7079999999998889,0.00603895111554354,1.1825195620622901,0.011681330660563654,0.06804713788993047
0.819,-0.0057,-0.29199999999977794,0.006039444512869937,1.1745085317292088,0.011683779139275924,0.06714225924552808
0.8200000000000001,-0.005,1.707999999999667,0.006102582348463283,1.1745085317292088,0.011997099942041336,0.06714225924552808
0.821,-0.0025,-1.291999999999778,0.00610383241152786,1.1820468426484967,0.012003303366013983,0.06799374229853322
0.8220000000000001,-0.0047,0.7079999999998889,0.0061246555218222205,1.1820468426484967,0.01210663781788723,0.06799374229853322
0.823,0.0022,-0.292,0.006124991660196127,1.1740325867112849,0.012108305900807128,0.0670884993089503
0.8240000000000001,-0.0004,-0.292000000000222,0.006118973637332058,1.1664424836010614,0.012078441529671967,0.06623116611612845
0.825,-0.0011,-2.2919999999996667,0.006087974539634718,1.1568718661372965,0.011924608854157229,0.0651501257259875
0.8260000000000001,-0.0062,0.708,0.005941130442588551,1.1568718661372965,0.01119589666541194,0.0651501257259875
0.827,0.0047,0.7079999999998889,0.00598347350884026,1.1472214092190613,0.011406023657964925,0.06406006714288917
0.8280000000000001,0.0061,-0.292,0.005984007048288679,1.1563886622651054,0.011408671341508627,0.06509554587212865
0.829,0.005,-0.29199999999988896,0.006134845163246061,1.1559052563988836,0.012157203799454482,0.06504094320221782
0.8300000000000001,0.0013,0.7079999999998889,0.006131324851380194,1.1563886622651054,0.01213973429120428,0.06509554587212865
0.831,-0.0063,-0.292000000000111,0.00611194492513516,1.1467341389031103,0.012043561624029914,0.06400502796757429
0.8320000000000001,-0.0038,-1.292,0.006117836916454357,1.1472214092190613,0.012072800565033653,0.06406006714288917
0.833,-0.0046,-1.292,0.006069909679833362,1.1568718661372965,0.011834962189497061,0.0651501257259875
0.8340000000000001,0.0008,1.708,0.006078463628090853,1.1414129929341241,0.011877411062025932,0.06340398276478681
0.835,0.012,-1.292,0.005895227100080771,1.1414129929341241,0.010968101841769473,0.06340398276478681
0.8360000000000001,0.0008,-0.292,0.005911528809662146,1.1321244825522163,0.01104899889318856,0.06235480752347109
0.837,-0.0036,0.708,0.005928969182490808,1.1242514829358892,0.011135546548233304,0.06146552001312629
0.8380000000000001,0.0054,-0.292,0.005952275049624793,1.1242514829358892,0.011251201653146874,0.06146552001312629
0.839,0.0065,-1.292,0.005953601671884465,1.132618038192415,0.011257785001268658,0.062410556651869196
0.8400000000000001,0.0075,0.708,0.0060642178155551184,1.122759131581397,0.011806716376695092,0.06129695282332942
0.841,0.001,-0.292,0.005945984725440177,1.1232568023360125,0.01121998598975492,0.061353166770733374
0.8420000000000001,-0.0073,-1.292,0.005948088317359847,1.1232568023360125,0.011230425041121948,0.061353166770733374
0.843,0.0003,0.708,0.0059159224753449965,1.1153212079412576,0.011070802409984737,0.060456808924127754
0.8440000000000001,0.005,-3.292,0.005866102826371613,1.1153212079412576,0.010823572959321138,0.060456808924127754
0.845,0.0006,-1.292,0.005896826008171243,1.1153212079412576,0.01097603640528035,0.060456808924127754
0.8460000000000001,-0.0048,0.708,0.005896365766825163,1.1158221961084376,0.010973752462749465,0.060513397586850384
0.847,-0.0041,1.708,0.005778657367057314,1.1158221961084376,0.010389625845786664,0.060513397586850384
0.8480000000000001,-0.0005,-0.292,0.005770095016785979,1.133111378851852,0.010347135278358092,0.06246628149731094
0.849,0.0075,-0.292,0.005722252927503789,1.132618038192415,0.010109719445537712,0.062410556651869196
0.8500000000000001,0.0021,-1.292,0.006011226867482917,1.142391865048179,0.01154374938973312,0.06351455037404322
0.851,0.0046,0.708,0.006030721025119831,1.142391865048179,0.011640488928911702,0.06351455037404322
0.8520000000000001,-0.0015,-0.292,0.006078989190656859,1.134097416350539,0.011880019160379906,0.06257765846607079
0.853,-0.0037,0.708,0.006145810765395088,1.1433698991217494,0.012211620477439268,0.06362502332319897
0.8540000000000001,-0.0102,0.708,0.006127404694026835,1.1433698991217494,0.01212028055419574,0.06362502332319897
0.855,-0.0018,-0.292,0.006110743372546907,1.133604504811205,0.012037598932753307,0.06252198209149995
0.8560000000000001,-0.0029,-0.292,0.006069796134716187,1.134097416350539,0.011834398723123384,0.06257765846607079
0.857,0.0062,-0.292,0.00594301777466507,1.108337720490641,0.011205262529726777,0.05966799545135635
0.8580000000000001,-0.0076,-0.292,0.005942846807415085,1.1088418638864161,0.011204414106661457,0.059724940510054926
0.859,-0.0094,1.708,0.005955689348422731,1.108337720490641,0.011268145072733524,0.05966799545135635
0.8600000000000001,0.00880000000000049,-1.292,0.005959475488029167,1.1088418638864161,0.011286933748172304,0.059724940510054926
0.861,0.011,-0.292,0.005859044903446538,1.1088418638864161,0.01078854809576731,0.059724940510054926
0.8620000000000001,-0.00019999999999871214,-0.292,0.00586456728260121,1.0829975108195007,0.0108159528405397,0.056805715117526426
0.863,0.0056,-2.292,0.0058599530776299365,1.082481331015239,0.010793054899992053,0.056747410497255624
0.8640000000000001,0.00019999999999968914,-2.292,0.005865046174474096,1.0911682068094777,0.010818329336101204,0.05772862865097082
0.865,-0.0012,-0.292,0.0058757533803318945,1.0829975108195,0.010871463725381622,0.05680571511752635
0.8660000000000001,-0.002600000000001443,0.708,0.005877352870696607,1.0747647004487317,0.010879401178421903,0.055875785510699195
0.867,-0.0091,-1.292,0.00585846924457755,1.0581069261230203,0.010785691395070249,0.05399422176372822
0.8680000000000001,-0.0028999999999972685,-0.292,0.005921515347716015,1.0669922636386813,0.011098556976554591,0.05499785698066497
0.869,0.0094,-0.292,0.005796011571073039,1.0664683371859134,0.010475745889061236,0.05493867734475854
0.8700000000000001,0.001400000000000977,-1.292,0.005804289230159494,1.0669922636386828,0.010516823679669881,0.05499785698066515
0.871,0.0058,-1.292,0.0058296764504160645,1.0654197113488548,0.01064280747616875,0.054820230767168576
0.8720000000000001,0.002199999999999756,-0.292,0.005897455088996744,1.0570500055437804,0.010979158211838938,0.0538748382610801
0.873,0.0011,0.708,0.005922349121608358,1.05652114875917,0.01110269457016734,0.053815101724025045
0.8740000000000001,0.00010000000000104362,-0.292,0.0060580469060230804,1.0570500055437808,0.01177609330718058,0.05387483826108015
0.875,0.0048,-0.292,0.006234850687018979,1.0575785978662846,0.012653480092346738,0.05393454492605851
0.8760000000000001,-0.00899999999999869,-0.292,0.006312918053892977,1.029906813043906,0.01304088852706541,0.050808903641832166
0.877,-0.0031,1.708,0.00633675074940043,1.0293640109842308,0.013159158011888324,0.05074759192891686
0.8780000000000001,0.013499999999998557,-0.292,0.006320855514813727,1.0288209225442657,0.013080278088082774,0.0506862478681764
0.879,0.007,0.708,0.006502496833449836,1.0293640109842315,0.013981671099667603,0.05074759192891694
0.8800000000000001,-0.0027000000000004,-0.292,0.006490068180307657,1.0384953012242448,0.013919994047497464,0.05177900851211316
0.881,-0.0045,0.708,0.006500063424085608,1.0384953012242453,0.013969595332921855,0.05177900851211321
0.8820000000000001,0.000200000000000977,1.708,0.006472010308903349,1.0475469985733927,0.013830382062679466,0.052801434752719735
0.883,0.0046,1.708,0.006474453113075749,1.0475469985733927,0.013842504451055664,0.052801434752719735
0.8840000000000001,0.008200000000000245,-1.292,0.006459626214253684,1.0390333330117691,0.01376892613152992,0.051839781403276726
0.885,0.0093,0.708,0.006459089333260219,1.0282775472702512,0.01376626186560631,0.050624871408356795
0.8860000000000001,-0.007300000000000488,0.708,0.006347653736653163,1.0190547044515497,0.013213263964150764,0.04958311358691151
0.887,-0.0095,-0.292,0.006367974017175499,1.0190547044515497,0.013314103128905847,0.04958311358691151
0.8880000000000001,0.0017999999999969358,-1.292,0.006367938234198572,1.0190547044515497,0.013313925556283175,0.04958311358691151
0.889,-0.012,-0.292,0.006344649015336734,1.0190547044515492,0.013198353068233875,0.049583113586911455
0.8900000000000001,-0.0028999999999989564,0.708,0.006311491945326696,1.0103009668184308,0.013033811479260103,0.048594343115003436
0.891,0.0018,-0.292,0.006275175711961838,1.0103009668184297,0.012853592577481773,0.04859434311500331
0.8919999999999999,-0.0025,0.708,0.00627764016401332,1.019602994851203,0.01286582239321573,0.04964504523027684
0.893,0.0011,-0.292,0.0062620229635254295,1.0196029948511998,0.012788322210514977,0.04964504523027646
0.8939999999999999,0.0072,-1.292,0.006295025024098644,1.0196029948512,0.012952094566892714,0.049645045230276484
0.895,-0.0029,0.708,0.006279954448597828,0.9612811102317458,0.012877307004574848,0.04305734980294621
0.8959999999999999,-0.0018,-1.292,0.006459713396320801,0.9612811102317441,0.01376935877156262,0.043057349802946024
0.897,0.0018,-2.292,0.006450378567596313,0.9606995349450637,0.013723034788452527,0.04299165849544264
0.8979999999999999,-0.0059,-0.292,0.006445846128754224,0.9606995349450564,0.013700542611406184,0.04299165849544183
0.899,-0.0189,1.708,0.006447324755488774,0.990307045089663,0.013707880280033969,0.04633594787269558
0.8999999999999999,-0.0063,-0.292,0.0064030975824446775,0.999795112565324,0.013488403428602566,0.04740766390401813
0.901,-0.0077,-0.292,0.006402161971276394,0.9997951125653242,0.013483760468647289,0.04740766390401814
0.9019999999999999,-0.0092,1.708,0.00638998698240551,1.0086400320332756,0.013423342222585531,0.0484067337371403
0.903,-0.0001,-0.292,0.006422819763880587,1.0179572376948698,0.013586274533332604,0.049459150227671646
0.9039999999999999,0.006,-0.292,0.006493775598042743,1.0179572376948685,0.013938392066530388,0.0494591502276715
0.905,-0.0017,0.708,0.00651525402996874,1.0266456958882821,0.014044978544669098,0.05044054711984616
0.9059999999999999,-0.0043,-0.292,0.006531654080019447,1.0374184005382578,0.014126363609567049,0.051657368174681424
0.907,0.0,0.708,0.006574925002939581,1.04808038368475,0.01434109508045652,0.05286168278280351
0.9079999999999999,0.004,-0.292,0.006574986017765526,1.0480803836847508,0.014341397865847653,0.05286168278280358
0.909,-0.0058,0.708,0.006622662558983728,1.0752845845520838,0.014577992168252592,0.0559345085467043
0.9099999999999999,-0.0047,0.708,0.006588951331290109,1.0737241770777108,0.01441070057797379,0.05575825413979048
0.911,0.004,0.708,0.0066584897195212265,1.0654197113488324,0.014755784051596743,0.054820230767166044
0.9119999999999999,-0.0036,-0.292,0.006580628680245787,1.0742445647458116,0.014369399515277586,0.055817034055493736
0.913,0.0029,-1.292,0.006588647266888505,1.0742445647458116,0.014409191661782608,0.055817034055493736
0.9139999999999999,0.0036,0.708,0.00659039148837494,1.047013341737029,0.01441784734139523,0.052741156030185046
0.915,-0.0019,0.708,0.006626856714616339,1.0190547044515144,0.014598805618656507,0.04958311358690752
0.9159999999999999,-0.0012,1.708,0.006633351964910409,1.0747647004487215,0.014631038225573982,0.055875785510698044
0.917,0.0097,-1.292,0.006698359054218798,1.0829975108194883,0.014953635178987663,0.05680571511752502
0.9179999999999999,0.0053,-0.292,0.0066375819470058635,1.0742445647458119,0.014652029464398943,0.055817034055493764
0.919,0.0064,0.708,0.006631492676842397,1.0742445647458119,0.014621811529337612,0.055817034055493764
0.9199999999999999,-0.0074,-1.292,0.0065789503208774905,1.0742445647458119,0.014361070675689381,0.055817034055493764
0.921,0.0092,0.708,0.0066150686251509015,1.0654197113488328,0.014540307356565772,0.05482023076716609
0.9219999999999999,0.0071,-0.292,0.006607028054889378,1.1103529206703642,0.014500406116598372,0.05989562055462143
0.923,0.0129,0.708,0.006608534953769399,1.1188234141259723,0.014507884085431758,0.06085239743809901
0.9239999999999999,0.0147,0.708,0.006652871973887576,1.1188234141259723,0.014727906051739351,0.06085239743809901
0.925,-0.01,-0.292,0.006683122228232509,1.1287166982400494,0.014878022600495597,0.06196988434622689
0.9259999999999999,0.0082,-0.292,0.006666196295296851,1.1287166982400494,0.014794027847664497,0.06196988434622689
0.927,-0.0016,-0.292,0.006607850835446158,1.1385240172149822,0.014504489155906379,0.06307766114025702
0.9279999999999999,-0.0165,0.708,0.006604963743490847,1.1287166982400496,0.014490161994378041,0.06196988434622692
0.929,-0.0031,-1.292,0.006540625132708208,1.1292117433549078,0.01417088235816966,0.062025801716880366
0.9299999999999999,0.0038,0.708,0.0065031050342910955,1.1287166982400494,0.01398468928953799,0.06196988434622689
0.931,0.0016,-1.292,0.006567449429088802,1.1287166982400494,0.014303997628856435,0.06196988434622689
0.9319999999999999,-0.0042,-1.292,0.006582044150641907,1.136558767506765,0.01437642377128249,0.06285567814706572
0.933,0.0012,0.708,0.006638635135835242,1.1267343427388172,0.014657255902181983,0.061745969183745086
0.9339999999999999,-0.0002,-0.292,0.006710698277211248,1.1423918650481675,0.015014868435040287,0.06351455037404191
0.935,-0.0016,-0.292,0.006665914639300733,1.1438586025651787,0.014792630132934841,0.06368022437612458
0.9359999999999999,-0.0052,-0.292,0.006605390845695252,1.1438586025651787,0.014492281484289112,0.06368022437612458
0.937,0.0035,0.708,0.006566459981047847,1.1515975641572629,0.014299087504022834,0.06455437174336263
0.938,0.0002,-0.29199999999988896,0.006498105421369061,1.1515975641572629,0.013959878766346516,0.06455437174336263
0.9390000000000001,0.0009,0.708,0.006496876646574674,1.1530525916483925,0.013953780985176526,0.06471872305012334
0.94,-0.0034,0.7079999999997779,0.006405101201211415,1.1626546486366864,0.013498346364316632,0.06580331466315996
0.9410000000000001,0.002,-1.292,0.00640086186036915,1.1621738491085514,0.013477308682815327,0.06574900638979697
0.942,0.0057,-1.291999999999778,0.00660620128537978,1.1702693190488567,0.014496303282156633,0.06666342283322667
0.9430000000000001,0.0064,0.708,0.006612880256361901,1.196564177968109,0.014529447600933151,0.06963353470452366
0.944,-0.0026,0.7079999999997779,0.0066248768081748665,1.1970311643567213,0.014588980355091282,0.06968628272727634
0.9450000000000001,0.0151,-1.291999999999889,0.006590875100858678,1.197031164356721,0.014420247262935275,0.06968628272727631
0.946,0.0032,-0.29199999999977794,0.006595347675433482,1.2044285182408234,0.014442442364224962,0.07052184410658725
0.9470000000000001,-0.0033,1.7079999999995559,0.006596532167336931,1.2044285182408234,0.0144483203920441,0.07052184410658725
0.948,-0.0015,-2.291999999999889,0.006601935077890663,1.1802049010410047,0.014475132275220903,0.06778568745969771
0.9490000000000001,0.0003,-1.292,0.006577542424733412,1.1895878115257528,0.014354084006825498,0.06884552557876299
0.95,0.0018,-1.292,0.006308473965491431,1.1881775254550544,0.013018834788091824,0.06868622799845008
0.9510000000000001,-0.0025,-1.292,0.0063920744722528134,1.1881775254550546,0.013433701367598586,0.0686862279984501
0.952,0.0066,-1.291999999999778,0.006348229605032746,1.1881775254550546,0.013216121704541806,0.0686862279984501
0.9530000000000001,0.0102,0.7079999999997779,0.006291344082146982,1.1787833893922475,0.01293382793363883,0.067625121904426
0.954,0.0114,-1.291999999999667,0.0063077966994979666,1.1787833893922475,0.0130154738631763,0.067625121904426
0.9550000000000001,0.0049,1.708,0.006307858263060808,1.1787833893922475,0.013015779371668146,0.067625121904426
0.956,-0.0081,1.707999999999778,0.006305849750336835,1.1787833893922464,0.013005812149746047,0.06762512190442588
0.9570000000000001,-0.0063,-0.292000000000222,0.006293390881574115,1.1787833893922464,0.01294398515289702,0.06762512190442588
0.958,-0.011,-2.291999999999889,0.006311265095732895,1.1862945360312638,0.013032685740688785,0.06847353664086184
0.9590000000000001,-0.0066,-1.291999999999778,0.0064465529155618845,1.1956296580074672,0.013704050033031885,0.0695279768524131
0.96,-0.0131,0.708,0.006425903756999416,1.1956296580074672,0.01360157881468203,0.0695279768524131
0.9610000000000001,-0.0044,-1.292,0.006409194138746026,1.1956296580074672,0.013518657521041621,0.0695279768524131
0.962,-0.0033,-0.292,0.00639782328714035,1.1956296580074683,0.013462229797162025,0.06952797685241323
0.9630000000000001,0.0058,-0.292,0.006395694861349012,1.2048924566103307,0.013451667507984676,0.07057424784311443
0.964,0.0069,-0.292,0.006440716205282647,1.206283201130891,0.013675085423570477,0.07073133812540658
0.9650000000000001,-0.0032,-3.292,0.0064419179318514885,1.2136241627625777,0.013681048978223809,0.07156052976914055
0.966,-0.0097,-1.292,0.006458274198337648,1.2136241627625766,0.013762216767672529,0.07156052976914043
0.9670000000000001,-0.001,-0.292,0.0065136457230890905,1.2044285182408059,0.014036997339772078,0.07052184410658527
0.968,0.0002,-0.292,0.006442166323578576,1.1965641779680907,0.013682281619390552,0.06963353470452158
0.9690000000000001,-0.0045,-0.292,0.006471423894058765,1.1970311643567029,0.013827471985573844,0.06968628272727426
0.97,-0.0071,-0.292,0.006442174792632242,1.1970311643567038,0.01368232364697462,0.06968628272727435
0.9710000000000001,-0.0049,-3.292,0.006407319916496723,1.1984310317140903,0.013509356714097675,0.06984440347130202
0.972,-0.0027,-1.292,0.006411718120456232,1.1979645910170251,0.013531182752040993,0.06979171708664168
0.9730000000000001,-0.0078,0.708,0.0063810788075911035,1.1979645910170251,0.013379135504730943,0.06979171708664168
0.974,-0.0064,1.708,0.006251730125023538,1.1974979686353857,0.012737244114602432,0.0697390101799655
0.9750000000000001,0.0009,-0.292,0.006082949987130329,1.1974979686353857,0.011899674568567333,0.0697390101799655
0.976,0.0016,1.708,0.006001565406173055,1.1979645910170242,0.011495804496072369,0.06979171708664159
0.9770000000000001,0.0023,-0.292,0.006010103893634085,1.1979645910170242,0.011538176644571777,0.06979171708664159
0.978,0.0099,0.708,0.006009403427639622,1.1984310317140896,0.011534700589910848,0.06984440347130196
0.9790000000000001,0.0008,-0.292,0.005803545183308139,1.1979645910170242,0.010513131355494199,0.06979171708664159
0.98,0.0095,-0.292,0.005830157230758958,1.1905270741230576,0.010645193343241535,0.06895161913108387
0.9810000000000001,0.0062,-1.292,0.005825425708486979,1.1993633689023186,0.010621713216901646,0.06994971477034008
0.982,-0.0087,-0.292,0.005833327698632241,1.1914655962760445,0.010660926754592489,0.06905762904719036
0.9830000000000001,-0.0109,-2.292,0.005819140065664107,1.1914655962760443,0.010590520784714974,0.06905762904719033
0.984,0.0028,1.708,0.0058263430663952984,1.198897290938639,0.010626265595258566,0.06989706935789936
0.9850000000000001,-0.002699999999999667,0.708,0.0059124198920782,1.198897290938639,0.011053420879709076,0.06989706935789936
0.986,-0.0012,-1.292,0.005937353968529123,1.222750653784567,0.011177155955142048,0.07259140426103027
0.9870000000000001,0.00020000000000024425,-0.292,0.005950046688129419,1.2304476359788232,0.011240143434156302,0.07346080988357133
0.988,0.0013,1.708,0.005966309253870058,1.2304476359788232,0.011320846234703669,0.07346080988357133
0.9890000000000001,0.004899999999999267,1.708,0.005999989145664218,1.2304476359788237,0.011487982320931983,0.07346080988357137
0.99,0.0016,-0.292,0.006009172336653671,1.2389992580024358,0.011533553803478444,0.07442675057065293
0.9910000000000001,0.016399999999995495,-1.292,0.00599982729055885,1.2461475066945997,0.011487179116782376,0.07523417449959571
0.992,-0.0039,2.708,0.006006270102645141,1.238999258002437,0.011519151499680406,0.07442675057065305
0.9930000000000001,0.004099999999998469,0.708,0.005978970222793642,1.2313557316126427,0.011383676151339953,0.07356338299988134
0.994,-0.0028,-1.292,0.005958559604092834,1.2309017675389844,0.01128238868438488,0.07351210590086912
0.9950000000000001,0.00369999999999869,-1.292,0.00595896792928789,1.2380967686094557,0.011284414993597126,0.07432481070217745
0.996,-0.0022,-1.292,0.0057781489112924255,1.238096768609457,0.010387102639741852,0.0743248107021776
0.9970000000000001,0.0031999999999989567,-0.292,0.005895509611163652,1.238096768609458,0.010969503799857621,0.0743248107021777
0.998,-0.0015,1.708,0.00590411018008932,1.2523627679958995,0.011012184026930745,0.07593621368645316
0.9990000000000001,-0.0030000000000020206,-1.292,0.005907010647280115,1.2367417996926713,0.011026577562915536,0.07417176142066816
1.0,-0.0121,-0.292,0.005924431559582509,1.2295388696566243,0.01111302864531639,0.07335816101026546
1.0010000000000001,0.0016000000000003997,-0.292,0.006093022988321218,1.2295388696566243,0.011949661724283503,0.07335816101026546
1.002,0.0034,-0.292,0.006162479930211539,1.2222934937591345,0.012294341021351449,0.07253976616619245
1.0030000000000001,-0.004600000000000333,-0.292,0.0061582939654684435,1.2145448371017964,0.012273568218145115,0.07166452370167731
1.004,-0.0061,-0.292,0.006081663214659848,1.2232076429516547,0.011893288974578586,0.07264302305671917
1.0050000000000001,0.0004000000000002443,0.7079999999997779,0.005973567429975992,1.2159245415175952,0.011356864852427139,0.07182036695897824
1.006,0.0015,-0.292,0.005960841366458167,1.2067464264605687,0.011293711904595194,0.07078366132116838
1.0070000000000001,0.004700000000001999,-1.291999999999334,0.00594808041051263,1.1974979686354117,0.01123038580348109,0.06973901017996845
1.008,0.0137,1.708,0.00591528786416476,1.1979645910170493,0.011067653159102644,0.06979171708664442
1.0090000000000001,-0.0025999999999995337,0.708,0.005837591204240367,1.1736075639753154,0.010682084353474034,0.06704049125241156
1.01,-0.0005,0.708,0.0058006937027007,1.1655352807464867,0.010498980914881264,0.06612869384288594
1.0110000000000001,0.0013000000000003996,0.708000000000222,0.0056535384002188846,1.1745596056009684,0.009768724372643242,0.06714802824825565
1.012,0.0031,1.708,0.005666037972408683,1.1745596056009684,0.009830753359793769,0.06714802824825565
1.0130000000000001,-0.008199999999999047,1.7079999999993338,0.005694449689880835,1.175035337151276,0.00997174618988782,0.067201764072793
1.014,-0.0039,-1.292,0.005666217948232373,1.1844591999911331,0.00983164648780532,0.06826622792787916
1.0150000000000001,-0.0050000000000008,0.7079999999997779,0.005623475361998899,1.1844591999911331,0.00961953688181253,0.06826622792787916
1.016,-0.0086,-0.292,0.005748918652138355,1.1341503100461459,0.010242047805708872,0.0625836330253457
1.0170000000000001,0.0015000000000014654,-0.29199999999977794,0.0057187356377593765,1.1257951422094874,0.010092264934531416,0.06163988264225585
1.018,0.0081,0.708,0.005752032465706427,1.1262914714527457,0.010257500070704048,0.06169594506046468
1.0190000000000001,0.0019000000000002442,0.708000000000222,0.005758095486296854,1.1361197258901075,0.010287587742552841,0.06280608660061049
1.02,0.003,1.708,0.0057531051353419925,1.14439951726305,0.010262823181769845,0.06374132290380408
1.021,0.0095,-0.292,0.005712080205142787,1.14439951726305,0.01005923742463051,0.06374132290380408
1.022,0.0034,-0.292,0.005692064961095735,1.0922470345329551,0.009959911999971373,0.05785048665516946
1.023,-0.0021,-0.29199999999977794,0.005688262258065705,1.0835688076401728,0.00994104112872831,0.056870245430251175
1.024,0.003,0.708,0.005635811876467903,1.083052900114318,0.009680756696847856,0.05681197156494016
1.025,0.0008,0.708,0.005631375143323083,1.073259431825001,0.009658739458253485,0.05570575926250511
1.026,0.0088,-0.292,0.0056877878191774036,1.0737800447233292,0.009938686731052991,0.05576456461888383
1.027,-0.0013,0.708,0.00569978738434976,1.0737800447233292,0.009998234438973389,0.05576456461888383
1.028,0.0052,-0.292,0.005720941989444458,1.0825367467210172,0.010103213930084651,0.056753669927895406
1.029,0.0063,0.708,0.005634302775719845,1.0907108943766453,0.009673267801268972,0.05767697334109378
1.03,0.003,1.708,0.005634638846550135,1.0907108943766453,0.009674935549004428,0.05767697334109378
1.031,-0.0035,-0.292,0.00555367623994075,1.0907108943766453,0.009273159519489945,0.05767697334109378
1.032,0.0008,-1.292,0.005557130601482536,1.082020347108414,0.00929030174999473,0.05669534047937332
1.033,-0.0032,-1.292,0.005536973897902068,1.082020347108414,0.009190274333983622,0.05669534047937332
1.034,-0.0101,-0.292,0.005441135511169323,1.0654760144346078,0.008714677412032584,0.05482659043100625
1.035,-0.0057,-2.292,0.005460978703891561,1.0639012209793368,0.008813149033917193,0.05464871106870564
1.036,-0.0065,-1.292,0.00564533898287709,1.0722174476811601,0.00972803485581713,0.055588062891331225
1.037,-0.0057,0.708,0.005674429831380048,1.063375771567423,0.009872397866053649,0.05458935940833417
1.038,-0.0064,-0.292,0.005747726269629056,1.0639012209793368,0.010236130620846481,0.05464871106870564
1.039,-0.0035,1.708,0.005773827263244451,1.0639012209793368,0.01036565650965304,0.05464871106870564
1.04,0.0001,-1.292,0.005805867301533297,1.0539298039037575,0.010524654841207404,0.05352239872298138
1.041,-0.0035,0.708,0.005806817217443543,1.0544599603594835,0.010529368788284635,0.05358228206320512
1.042,-0.0006,-0.292,0.005579691804205107,1.0544599603594835,0.009402261466097735,0.05358228206320512
1.043,0.0041,-0.292,0.00558830884820113,1.033157636676262,0.009445023450523178,0.051176097468260504
1.044,0.0026,-1.292,0.00557921430450459,1.032616543436027,0.009399891879176036,0.051114978773490714
1.045,0.0041,-1.292,0.005648721047471306,1.0342389738894493,0.009744818313528436,0.05129823892958667
1.046,0.0121,-0.292,0.0056635718776013875,1.0250697691165283,0.009818515391902472,0.050262539744813095
1.047,-0.0046,-2.292,0.005676970498710665,1.015817802561721,0.009885005899257634,0.04921749227824708
1.048,-0.0024,-1.292,0.005671042921410192,1.015817802561721,0.009855590363219941,0.04921749227824708
1.049,-0.0046,0.708,0.005670353477546869,1.0048135424604416,0.009852169005761482,0.047974516088033735
1.05,-0.0144,-1.292,0.005662839225372846,0.9953733126604372,0.00981487961341502,0.04690820351785159
1.051,0.0095,0.708,0.005534279397749028,0.9959346404264304,0.00917690290711939,0.04697160778507299
1.052,0.0062,-0.292,0.0055372373168051285,1.0070359283018384,0.009191581547343008,0.04822554365925611
1.053,0.0033,1.708,0.005554329373298128,1.0163678391438968,0.009276400686468879,0.04927962116007088
1.054,0.0008,0.708,0.005539417943413314,1.0163678391438968,0.009202402882489953,0.04927962116007088
1.055,0.003,-0.292,0.005507892170949463,1.016367839143897,0.00904595658933868,0.04927962116007091
1.056,0.007,-0.292,0.005627447351091068,1.0158178025617222,0.009639247833245037,0.049217492278247205
1.057,0.0004,0.708,0.005721502636856425,1.0158178025617224,0.01010599613659419,0.04921749227824723
1.058,-0.0054,-0.292,0.005742739557956067,1.0158178025617317,0.01021138411995906,0.04921749227824828
1.059,0.0,-0.292,0.005577656060803054,1.0048135424604523,0.009392159112240313,0.047974516088034935
1.06,-0.0014,1.708,0.005573002536387855,1.0136146714716106,0.009369066049392078,0.048968639609942036
1.061,-0.0058,-1.292,0.005582268336266537,1.0136146714716106,0.009415047477627137,0.048968639609942036
1.062,0.0065,0.708,0.0055945824590814,1.0223400360609363,0.009476156174329302,0.04995420523049671
1.063,-0.0015,1.708,0.005619444841794741,1.0206986920727112,0.00959953547039161,0.04976880871328095
1.064,-0.0001,-0.292,0.005574690775871819,1.0103009668184293,0.009377443918943752,0.04859434311500326
1.065,-0.0124,-0.292,0.005567653009126338,1.0009124936771265,0.009342519080205659,0.04753387667112667
1.066,-0.0077,-0.292,0.005564237086534726,1.0009124936771279,0.009325567602561069,0.04753387667112682
1.067,-0.0063,0.708,0.00549812476457693,1.0009124936771279,0.008997485944489701,0.04753387667112682
1.068,-0.0027,1.708,0.005500984117118326,1.0009124936771288,0.00901167544948683,0.04753387667112692
1.069,-0.0038,-1.292,0.005477294676265377,1.0003539591335946,0.008894116864284204,0.04747078790980767
1.07,0.0016,-0.292,0.005485312595576019,0.9997951125653415,0.008933905699161266,0.0474076639040201
1.071,-0.0009,-0.292,0.005476847017343911,0.9886125197569176,0.008891895361894699,0.04614454430508352
1.072,0.0016,-0.292,0.0054279159433194635,0.9886125197569176,0.008649075454474091,0.04614454430508352
1.073,0.0008,-0.292,0.005498716792558591,0.9891776840713871,0.00900042387672527,0.046208381926148304
1.074,0.0059,0.708,0.0054950637755042855,0.9897425256649053,0.008982295820462104,0.04627218309456159
