time_sec,bts_raw,diy_raw,bts_rms,diy_rms,bts_norm_rms,diy_norm_rms
0.0,-0.0078,1.731,0.006193672726023358,0.7084332177949201,0.024342657796895213,0.0
0.0010000000000000009,-0.0024,-0.269,0.006177036852455852,0.7092076173471212,0.02419609933027355,0.00017333808150795548
0.0020000000000000018,-0.0009,-0.269,0.0061650323120622215,0.7215954126767739,0.024090341912398915,0.002946165971776967
0.0030000000000000027,0.0067,-0.269,0.006187037482260118,0.7223557018699855,0.024284202727033372,0.0031163456545621063
0.0040000000000000036,-0.0057,-0.269,0.006163298532741398,0.7254439370391957,0.024075067689636333,0.003807602200300968
0.0050000000000000044,-0.001,-0.269,0.006164743326481382,0.728519081115778,0.024087796011612175,0.004495928495273907
0.006000000000000005,0.0066,2.731,0.006133892141771946,0.7292721522022445,0.02381600371251053,0.004664492509801264
0.007000000000000006,-0.0057,0.731,0.00612781113609004,0.7300244464438227,0.02376243136089092,0.0048328826388941756
0.008000000000000007,0.0022,-1.269,0.006107993089185474,0.7330803763356776,0.023587838631871704,0.005516908117952489
0.009000000000000008,-0.0021,-0.2689999999999983,0.006147794890613187,0.7450713611872636,0.023938483938374853,0.008200915751553203
0.010000000000000009,-0.0058,0.731,0.006137322452672291,0.7458077189794684,0.023846224013449345,0.008365738738138638
0.01100000000000001,-0.0069,-0.269,0.00625889859089751,0.7465433504608248,0.024917283631915973,0.008530399150599782
0.01200000000000001,-0.0058,0.731,0.006366204582111449,0.7649649960717522,0.025862626325692566,0.01265381670597068
0.013000000000000012,0.0033,-1.269,0.006363073806879719,0.7678818860852916,0.025835044869543747,0.013306720129635507
0.014000000000000012,-0.0003,-1.269,0.006464655484969423,0.7858034500278596,0.026729957596384985,0.01731820167375183
0.015000000000000013,0.0029,-1.269,0.006470661328013446,0.7865016735542288,0.026782867781337445,0.01747448885932749
0.016000000000000014,-0.0036,-0.269,0.006656798338588076,0.7893389818490227,0.02842269479376698,0.018109579072213396
0.017000000000000015,0.0007,0.731,0.006679544578060621,0.790034080717008,0.028623084269256676,0.018265166848436203
0.018000000000000016,0.0014,-1.269,0.0067866556487326075,0.8074641291055287,0.029566709754999337,0.02216662978145222
0.019000000000000017,0.0112,-1.269,0.006730696385864198,0.8081436383589652,0.029073720689772722,0.022318728049100744
0.020000000000000018,-0.0011,-0.269,0.0067259089261806435,0.8190364065858421,0.029031544200068857,0.024756915857178406
0.02100000000000002,0.0069,-0.269,0.006625120292468294,0.8217613893800912,0.028143618023554324,0.025366863639760078
0.02200000000000002,0.0083,-0.269,0.006500943044002218,0.8324759913468257,0.0270496431835415,0.027765171520693212
0.02300000000000002,0.0047,-0.269,0.006501398841485876,0.835157124098052,0.02705365866129948,0.02836530410863793
0.02400000000000002,0.0011,-1.269,0.006493640108681792,0.8358141195024436,0.026985305894726717,0.028512362978484997
0.025000000000000022,-0.0021,-1.269,0.006492776423404415,0.8463508359141781,0.026977697013270484,0.030870853764038864
0.026000000000000023,-0.0086,0.7309999999999965,0.0064971242691439545,0.8489881525766287,0.02701600059871844,0.03146117875751123
0.027000000000000024,-0.0093,-0.269,0.006586403315294832,0.8516173019486665,0.027802529785311635,0.03204967562176108
0.028000000000000025,0.0031,-1.269,0.00672169657099267,0.8678113274647364,0.028994434257226954,0.03567447280412993
0.029000000000000026,0.0086,0.731,0.006646690297815155,0.8779641195225982,0.028333645129484712,0.03794702770457728
0.030000000000000027,0.0166,0.731,0.006653455061890852,0.880506752348862,0.028393241245430675,0.0385161590978367
0.031000000000000028,0.009,-0.269,0.006654147951200201,0.8961788951039419,0.02839934545115842,0.042024140411310786
0.03200000000000003,-0.0,1.731,0.006709929662987286,0.8986699938200736,0.028890770329561877,0.042581736643222144
0.03300000000000003,-0.0087,-0.269,0.0066890754732859495,0.8992805892603749,0.028707049405447917,0.042718409555672174
0.03400000000000003,0.0037,-0.269,0.006499772174914131,0.90176311966244,0.02703932807880904,0.04327408789504622
0.03500000000000003,-0.0042,1.731,0.006475793231246529,0.9023716221220901,0.026828078744599422,0.04341029232420531
0.03600000000000003,0.0064,1.7309999999999932,0.006620668735298016,0.9048456720204288,0.028104400762716933,0.04396407242611009
0.03700000000000003,0.007499999999999517,0.731,0.006648370593396829,0.9054521028756944,0.02834844817201338,0.04409981315674481
0.038000000000000034,-0.0012000000000002996,-1.269,0.006646312039071668,0.9206997239598792,0.028330312751343782,0.04751277146590239
0.039000000000000035,-0.006600000000000139,-1.269,0.006608584737673122,0.9302754843554574,0.027997943343731523,0.049656166217657394
0.040000000000000036,-0.009099999999999657,0.731,0.006623497779035437,0.9308653485981185,0.02812932402932386,0.04978819875290667
0.041000000000000036,-0.0029000000000001165,-0.269,0.006741649974937608,0.9314548392963627,0.029170219452647337,0.04992014767566883
0.04200000000000004,-0.004999999999999956,-1.269,0.006796989233544876,0.93385184232375,0.02965774641373839,0.05045668195562169
0.04300000000000004,-0.004199999999999472,0.7309999999999931,0.006699758155454934,0.9362427084759116,0.028801161536785042,0.05099184258527344
0.043999999999999984,0.0053,-0.269,0.006781251612996339,0.9368288155272696,0.029519101362938508,0.05112303412787171
0.044999999999999984,0.0042,-1.269,0.006800021398146489,0.9462413670386695,0.029684459131453726,0.05322989694364082
0.045999999999999985,0.0053,-1.269,0.006836633870620613,0.9486010069876897,0.030007007136117366,0.053758068041687174
0.046999999999999986,0.0061,-0.269,0.006852861610378759,0.950954791891238,0.03014997003169592,0.05428492857292554
0.04799999999999999,0.0018,0.731,0.006811232774987957,0.9515318369076381,0.02978322894909725,0.054414091710742726
0.04899999999999999,-0.0004,-0.269,0.006795288092892021,0.9521085321940665,0.029642759730617814,0.054543176566590135
0.04999999999999999,0.0019,-0.269,0.006768890121634227,0.9666204674920359,0.029410199283835984,0.05779146230793336
0.05099999999999999,-0.0017,-1.268999999999993,0.0067328178934303535,0.9544536672042226,0.029092410714949963,0.05506810094494516
0.05199999999999999,0.0063,-0.2689999999999931,0.006733183735856982,0.9562191841698857,0.02909563370801097,0.055463286250551184
0.05299999999999999,0.0009,0.731,0.006742253106941439,0.9648739828804531,0.02917553291582637,0.05740053711809506
0.05399999999999999,-0.0015,0.731,0.006772982330961887,0.9734518362531634,0.029446250767500067,0.059320564890394105
0.05499999999999999,-0.0008,-0.269,0.006748868794653777,0.9819547607551595,0.029233815701087604,0.06122382092430273
0.055999999999999994,-0.0062,-0.269,0.00679639054561781,0.9819547607551595,0.029652472101919434,0.06122382092430273
0.056999999999999995,0.0008,0.731,0.006820283642170677,0.9543279576906414,0.029862965141519794,0.05503996269790003
0.057999999999999996,0.007,-1.269,0.006828411738616706,0.9525589354444468,0.029934571922302856,0.054643992786206935
0.059,-0.002,-0.269,0.006936877275848609,0.9437912114604536,0.030890129967000485,0.052681465237918924
0.06,-0.0132,-0.269,0.007015934700772788,0.9437912114604535,0.031586608869952515,0.052681465237918904
0.061,-0.0117,1.731,0.007159684173059679,0.9437912114604535,0.03285301079050997,0.052681465237918904
0.062,0.0087,0.731,0.007128288914801524,0.9455766368544242,0.03257642532051134,0.05308110675577204
0.063,0.0116,1.731,0.007113593887048577,0.9525589354444467,0.032446965287907976,0.054643992786206914
0.064,0.0037,-0.269,0.007154152378458401,0.9578562008463778,0.03280427687033804,0.05582970863456873
0.065,0.0157,0.731,0.00718620340580302,0.9578562008463778,0.03308663952488787,0.05582970863456873
0.066,-0.006,-0.269,0.007180460061313232,0.9631243312805754,0.033036041895716926,0.05700890304396875
0.067,-0.0125,1.731,0.007358436879853619,0.9631243312805754,0.03460397937213719,0.05700890304396875
0.068,-0.0067,-0.269,0.007377084608298134,0.9613714954010871,0.034768261847338465,0.05661655621514481
0.069,-0.0012,-1.269,0.007383552574724994,0.9526848783856366,0.034825243239859534,0.05467218328262866
0.07,-0.0027,0.731,0.007320643147308493,0.9579814473722615,0.03427102472041742,0.055857743248548704
0.07100000000000001,-0.0041,-1.2689999999999722,0.007323367893939976,0.9666204674920349,0.03429502915196243,0.05779146230793313
0.07200000000000001,-0.003,0.7309999999999861,0.007310982750608629,0.9751829586490871,0.03418591870410009,0.059708051471593616
0.07300000000000001,0.0057,-0.269,0.007276661291659943,1.0299814691705809,0.033883554035642714,0.07197390138884913
0.07400000000000001,-0.0019,-1.269,0.007274790640127132,1.0316177354862222,0.03386707399814304,0.072340155815499
0.07500000000000001,-0.0026,0.731,0.007274790640127132,1.0251740353908634,0.03386707399814304,0.07089782722792773
0.07600000000000001,-0.0109,0.731,0.007315739094975415,1.0170325108739249,0.034227821074558254,0.06907546532662652
0.07700000000000001,-0.0142,1.731,0.007272289376454836,1.0153727408393367,0.033845038403382086,0.06870394993418841
0.07800000000000001,-0.0012,-1.269,0.007481555576127541,1.0153727408393367,0.035688628595103716,0.06870394993418841
0.07900000000000001,-0.003,0.731,0.007594106337367167,1.0413813442631468,0.03668017658429981,0.07452559769647098
0.08000000000000002,0.0017,1.731,0.00758345009941852,1.0413813442631468,0.0365862974208539,0.07452559769647098
0.08100000000000002,-0.0089,0.731,0.007459129889585707,1.0397604430080931,0.03549106312196085,0.07416278251525577
0.08200000000000002,0.0001,-0.269,0.007406287957755235,1.041381344263147,0.03502553707242849,0.07452559769647103
0.08300000000000002,-0.0035,0.731,0.007460930266217837,1.0300979462383109,0.03550692405270643,0.07199997308711213
0.08400000000000002,-0.0003,-0.269,0.007452011068138647,1.0300979462383109,0.035428347836755004,0.07199997308711213
0.08500000000000002,0.0145,0.731,0.007443413808974113,1.0300979462383109,0.03535260783337073,0.07199997308711213
0.08600000000000002,0.0123,-0.26899999999997226,0.007461740413566593,1.0170325108739247,0.03551406127653116,0.06907546532662646
0.08700000000000002,0.0025,1.7309999999999586,0.007446136687110989,1.012045034654941,0.03537659580388029,0.06795909128313965
0.08800000000000002,-0.003,-1.269,0.007430196995233391,1.0103770716097966,0.035236170548150675,0.06758574200439886
0.08900000000000002,-0.0111,-0.269,0.007487025560468208,1.0037970300337884,0.03573681798017927,0.06611289535852222
0.09000000000000002,-0.0126,-0.269,0.007464567043119422,0.9954806893353518,0.03553896327469128,0.06425140339647743
0.09100000000000003,-0.009,0.731,0.007421860865693387,1.0021153387558346,0.03516273104057178,0.06573647321444864
0.09200000000000003,-0.0055,0.731,0.007448293502422772,1.0021153387558348,0.035395596882699415,0.06573647321444868
0.09300000000000003,0.0111,-0.269,0.007435651634551396,1.002115338755834,0.03528422474687833,0.06573647321444849
0.09400000000000003,0.0089,-1.269,0.007487937925128577,1.0021153387558341,0.035744855716525414,0.06573647321444853
0.09500000000000003,0.011,0.731,0.007512900518349305,1.0037970300337875,0.03596477079164814,0.06611289535852201
0.09600000000000003,0.0051,0.731,0.007508104312499894,0.995480689335351,0.03592251725010498,0.06425140339647727
0.09700000000000003,0.0069,-0.269,0.007491427153573178,0.995480689335351,0.03577559506835195,0.06425140339647727
0.09800000000000003,-0.0012,-0.269,0.007471586648901463,0.9971735697332329,0.03560080449123636,0.06463033006237885
0.09900000000000003,0.0001999999999997946,1.731,0.0074711917277156354,1.0088252839364464,0.03559732532056362,0.0672383968936719
0.10000000000000003,-0.0034999999999999446,0.731,0.007495831346551083,1.0219956478279728,0.0358143950608458,0.0701863913795027
0.10100000000000003,-0.002500000000000061,0.731,0.00752527832247332,1.0300979462383102,0.03607381658267304,0.07199997308711198
0.10200000000000004,-0.003599999999999284,-1.269,0.007540683829131865,1.0236446793268896,0.03620953578156239,0.07055550310684804
0.10300000000000004,0.009299999999999494,-1.269,0.007539042742971877,1.0252910586019872,0.036195078165602156,0.07092402117244959
0.10400000000000004,0.00020000000000043854,-1.2689999999999861,0.007576601768245582,1.0252910586019872,0.03652596509676222,0.07092402117244959
0.10500000000000004,0.008099999999999066,-0.269,0.007585574496724946,1.0252910586019874,0.03660501290402114,0.07092402117244963
0.10600000000000004,-0.008699999999999883,-1.269,0.007585237190016357,1.0509401049438156,0.0366020413044961,0.07666518730918608
0.10699999999999998,-0.0066,-0.269,0.007653040572703865,1.0509401049438154,0.037199374516853095,0.07666518730918603
0.10799999999999998,-0.0124,-0.269,0.00799406329121006,1.0509401049438154,0.040203711289707844,0.07666518730918603
0.10899999999999999,-0.0107,-0.269,0.007963534242905308,1.044615601477014,0.039934756943018006,0.07524953915403189
0.10999999999999999,-0.0154,0.731,0.007968737300138666,1.04622898076096,0.03998059475771234,0.07561067065136934
0.11099999999999999,-0.0017,0.731,0.007875526025061355,1.0478398758966228,0.039159423480367196,0.07597124610822828
0.11199999999999999,0.0036,-1.269,0.00783112284135945,1.042999726516863,0.03876824098609876,0.07488784903585813
0.11299999999999999,0.0083,1.731,0.007783739589236937,1.0413813442631463,0.038350804730260195,0.07452559769647088
0.11399999999999999,0.0068,-1.269,0.007704580923062136,1.0284592619590975,0.03765343391367407,0.0716331774344691
0.11499999999999999,0.0003,1.731,0.007697242480596021,1.0300979462383102,0.03758878381454577,0.07199997308711198
0.11599999999999999,0.0165,-0.269,0.007546239770012587,1.0300979462383104,0.036258482425260724,0.07199997308711203
0.11699999999999999,0.0053,-0.269,0.007653494357368869,1.0300979462383104,0.03720337226211184,0.07199997308711203
0.118,0.0034,-0.26899999999997226,0.007562253751170572,1.0186895766176522,0.03639956215356587,0.06944637540287052
0.119,-0.0057,1.7309999999999586,0.0076139375440351315,1.0268179625301257,0.036854885248003,0.0712657964185718
0.12,0.0023,-1.269,0.007626181098415089,1.0203439512460417,0.03696274832766901,0.06981668311206969
0.121,-0.0054,-1.269,0.008071777547411533,1.0203439512460417,0.04088835716521979,0.06981668311206969
0.122,-0.0043,-3.269,0.008061351515459475,1.0121635758015195,0.040796506067070866,0.06798562499544523
0.123,0.0044,0.731,0.008132012633263576,1.01216357580152,0.04141901531091183,0.06798562499544533
0.124,0.0011,0.731,0.008113167069490954,1.025291058601987,0.04125298994903776,0.07092402117244953
0.125,-0.008,-0.269,0.008121846335401375,1.0171504707682713,0.04132945241420807,0.06910186893407019
0.126,0.0033,-0.269,0.008119448871903513,1.0171504707682713,0.04130833127664939,0.06910186893407019
0.127,0.0199,-0.269,0.008045920483460341,1.0171504707682713,0.04066056199542317,0.06910186893407019
0.128,0.0134,2.731,0.00795014668210584,1.012163575801519,0.039816815412949715,0.06798562499544512
0.129,0.0076,0.731,0.007950262347820484,1.0039165450943868,0.03981783440300816,0.06613964706732234
0.13,0.0094,-0.269,0.007955190895322104,1.0022350543556722,0.0398612538460316,0.06576326981104201
0.131,0.0015,0.731,0.007973185807133111,0.9888015238203526,0.040019785147156935,0.06275636929792551
0.132,-0.009,0.731,0.00798623081916072,0.9888015238203526,0.0401347088962507,0.06275636929792551
0.133,-0.0079,-0.269,0.007993949858898453,0.9971735697332326,0.040202711975449584,0.06463033006237877
0.134,0.0009,-0.269,0.008023133655793113,1.0037970300337873,0.0404598149466716,0.06611289535852197
0.135,-0.0067,-0.269,0.00804766605716579,1.0037970300337873,0.04067594012417653,0.06611289535852197
0.136,0.0042,-1.269,0.007933176374944194,1.0037970300337873,0.03966731065832308,0.06611289535852197
0.137,0.0057,-0.269,0.00784809881706668,1.0037970300337873,0.038917795679392284,0.06611289535852197
0.138,0.0093,0.731,0.007852475250514319,0.9903846862885086,0.03895635111639745,0.06311073720034172
0.139,0.0032,-0.269,0.007890606351842168,0.9903846862885086,0.03929227791450203,0.06311073720034172
0.14,-0.0044,-1.269,0.007831199169818403,0.9920862624639657,0.03876891342339869,0.06349161028963395
0.14100000000000001,-0.0069,-0.2690000000000278,0.007729018629014836,1.000430820614193,0.037868724844904424,0.06535941831803561
0.14200000000000002,-0.0025,-1.2689999999999444,0.007773995007316195,1.000430820614193,0.03826495706026091,0.06535941831803561
0.14300000000000002,0.0098,0.731,0.007830470169845212,0.9987434613051817,0.03876249109049236,0.06498172746761188
0.14400000000000002,0.0081,0.7309999999999722,0.007808214422706236,1.0070328575398728,0.03856642274692314,0.06683718830316696
0.14500000000000002,-0.0032,-0.269,0.007777044365929639,1.000430820614193,0.03829182125352088,0.06535941831803561
0.14600000000000002,-0.0017,-1.269,0.007781723074657037,0.9987434613051817,0.03833303967070074,0.06498172746761188
0.14700000000000002,-0.0027,0.731,0.00776631779513515,1.005356578945992,0.03819732247283648,0.06646197770973329
0.14800000000000002,-0.0016,1.731,0.007741107768501559,1.01359189297027,0.03797522756258618,0.0683053330287368
0.14900000000000002,0.0061,1.731,0.007752018806371476,1.0217608331503623,0.03807135145851369,0.07013383152766493
0.15000000000000002,-0.0069,-1.269,0.007770689864436622,1.0085874029999862,0.03823583946265294,0.06718515070436804
0.15100000000000002,-0.0051,0.731,0.00781458998477373,1.0069137123683058,0.03862259007692066,0.06681051938864906
0.15200000000000002,0.0061,0.731,0.007831955218777881,1.0069137123683058,0.03877557405205413,0.06681051938864906
0.15300000000000002,0.0076,0.731,0.007824038750988938,1.006913712368306,0.03870583167420428,0.0668105193886491
0.15400000000000003,0.004,0.731,0.007804720251348645,1.0003108890865828,0.03853563984909671,0.06533257338914952
0.15500000000000003,0.0004,-2.269,0.007836144555912162,1.0003108890865824,0.038812481210795745,0.06533257338914941
0.15600000000000003,-0.0119,-0.269,0.007795249831112939,1.0019956088527142,0.038452207484551755,0.06570967341627336
0.15700000000000003,-0.0231,0.731,0.007758252600732258,0.9936641915129348,0.03812626984551895,0.06384480676724882
0.15800000000000003,-0.0003,0.731,0.007730185696299433,0.9936641915129348,0.03787900645656615,0.06384480676724882
0.15900000000000003,-0.0035,0.731,0.0076456712129016535,0.9936641915129348,0.037134452042646204,0.06384480676724882
0.16000000000000003,0.0052,0.731,0.007697034117542346,0.9936641915129348,0.037586948180875955,0.06384480676724882
0.16100000000000003,-0.0082,-1.269,0.007650893630079067,0.9919653220552226,0.037180460414282024,0.0634645395373734
0.16200000000000003,-0.001200000000000122,-0.269,0.0077744838011135796,0.9919653220552226,0.03826926322844306,0.0634645395373734
0.16300000000000003,-0.0033999999999998944,-0.269,0.007939824415634265,0.9835489441278733,0.03972587846635682,0.06158065569598182
0.16400000000000003,-0.0014999999999996947,0.731,0.007939059987099005,0.971594154037642,0.03971914401544176,0.05890474973350945
0.16500000000000004,0.003999999999998996,0.731,0.007934942069878125,0.976788194116268,0.03968286605076992,0.06006736009394338
0.16600000000000004,-0.01409999999999945,-0.269,0.007935039557739812,0.9647496311634367,0.03968372489785512,0.05737270279407128
0.16700000000000004,-0.004200000000000383,0.731,0.00782085524594955,0.966496340481908,0.03867778567979577,0.05776367828127977
0.16800000000000004,-0.011099999999999135,-1.269,0.007932679096870201,0.966496340481908,0.039662929745489545,0.05776367828127977
0.16900000000000004,0.004500000000001226,0.731,0.008027933282663356,0.9802355976166068,0.0405020986266722,0.06083901124900153
0.17000000000000004,0.026599999999998507,0.731,0.008238918477440871,0.9664963404819088,0.04236083279539444,0.05776367828127994
0.17100000000000004,-0.0003000000000005995,-0.269,0.008235888142923727,0.9578562008463769,0.04233413620032949,0.05582970863456853
0.172,-0.0111,0.7310000000000277,0.008317367953356272,0.9491374119877416,0.043051955798390315,0.05387813450267103
0.173,-0.0013,1.7309999999999446,0.008327198366012834,0.8893715774858038,0.04313855961870416,0.04050042132755173
0.174,-0.0042,-0.26899999999997226,0.00831584253975645,0.8893715774858038,0.04303851723279612,0.04050042132755173
0.175,-0.0017,0.731,0.00837975409649403,0.887473085510008,0.043601564295930755,0.040075471499123626
0.176,0.0005,0.731,0.008364460705441414,0.8893715774858038,0.04346683281140597,0.04050042132755173
0.177,0.007,-1.269,0.00845413700190402,0.8893715774858038,0.044256861687769926,0.04050042132755173
0.178,0.0013,-0.269,0.00834584042640208,0.8912660254797777,0.0433027921595581,0.040924465969440604
0.179,-0.0041,-0.269,0.008240421078169656,0.8529996937306917,0.0423740703845034,0.032359103924899324
0.18,-0.0056,-0.269,0.008251275584035425,0.8529996937306917,0.04246969624563823,0.032359103924899324
0.181,-0.01,0.731,0.008264511962714768,0.8685361985401183,0.04258630589375779,0.035836724656148906
0.182,-0.0035,-1.269,0.00830870956782792,0.8818891390132054,0.04297567728489325,0.03882558625545627
0.183,0.0077,-1.269,0.00828301361284343,0.8893715774858036,0.042749301450427775,0.0405004213275517
0.184,0.0063,-0.269,0.00825292520979973,0.8986703942517822,0.04248422909367504,0.042581826274038614
0.185,0.0052,0.731,0.008254440517430631,0.9078739737263762,0.04249757862785754,0.044641913737412726
0.186,0.0041,-0.269,0.008232516267134482,0.9169851835415807,0.0423044307001461,0.04668132559540635
0.187,-0.0036,-0.269,0.008222911771255486,0.9097298926080488,0.04221981715803255,0.04505733419765074
0.188,-0.0083,-1.269,0.00821792431684766,0.9097298926080486,0.042175878757840325,0.04505733419765069
0.189,0.0055,0.731,0.008166296275208285,0.9224867494113852,0.04172104681970119,0.04791277113337311
0.19,-0.0003,-1.269,0.008170436009695805,0.924313327922148,0.04175751698979774,0.04832162417813449
0.191,0.0123,0.731,0.008160103211146798,0.9152750698612135,0.041666487257868846,0.0462985415097586
0.192,0.0109,-0.269,0.008167269794384948,0.9152750698612135,0.041729623314177386,0.0462985415097586
0.193,0.0094,-1.269,0.008164579899815025,0.920786853465149,0.041705925921795665,0.04753227413896473
0.194,-0.0055,0.731,0.00810873215157773,0.9333926048824164,0.04121391927647479,0.05035388833079182
0.195,-0.0113,-0.269,0.008087121380751388,0.9333926048824165,0.041023533035441595,0.05035388833079184
0.196,0.0014,-1.269,0.00808635142431864,0.9351978829018572,0.041016749884939085,0.05075797357023818
0.197,0.0029,-1.269,0.008087845075535168,0.9280849804053409,0.041029908630770724,0.04916585375405959
0.198,0.0043,-1.269,0.008084902422665028,0.9280849804053409,0.04100398449214959,0.04916585375405959
0.199,0.0054,-0.269,0.008100086347298089,0.9154061423865634,0.04113775160107178,0.04632788018902045
0.2,0.009,-0.269,0.00809717880329545,0.9006784969394923,0.04111213676401903,0.04303131086680375
0.201,0.0058,0.731,0.008129190433618247,0.8914006283283158,0.041394152339283605,0.040954594860224146
0.202,-0.0008,-1.269,0.008120582720513811,0.8895064670080726,0.04131832023893815,0.04053061438608222
0.203,0.0075,0.731,0.008102283010081573,0.8876082635454957,0.041157103727542686,0.040105729137143754
0.20400000000000001,-0.007,-1.2689999999999444,0.008071496691548804,0.8950428921813659,0.040885882885500345,0.04176986267234897
0.20500000000000002,-0.0012,0.7309999999999722,0.0081149588909551,0.8950428921813658,0.041268775510594206,0.041769862672348945
0.20600000000000002,0.0043,-0.269,0.008159124744121369,0.8667304972418953,0.04165786717390964,0.03543254467190081
0.20700000000000002,-0.0005,-0.269,0.008081163394777326,0.8686743234285885,0.040971044460978184,0.0358676419043677
0.20800000000000002,-0.0049,-0.269,0.007745004769119052,0.8820251728375154,0.03800955929951637,0.03885603544936276
0.20900000000000002,-0.0139,-0.269,0.007801617441691837,0.8895064670080723,0.038508304763645654,0.04053061438608217
0.21000000000000002,-0.0129,-0.269,0.007795751000815652,0.8969253615431536,0.03845662268179697,0.04219122607156879
0.21100000000000002,-0.0139,0.731,0.007783467614105658,0.8950428921813658,0.03834840868787398,0.041769862672348945
0.21200000000000002,-0.0165,-0.269,0.007749270671118975,0.8876082635454956,0.03804714097824998,0.04010572913714373
0.21300000000000002,-0.0082,0.731,0.007748473820317311,0.9171160116606754,0.038040120894144144,0.04671060956788117
0.21400000000000002,0.0063,1.731,0.00777241901430853,0.9261363039582516,0.03825107290096667,0.04872967086131631
0.21500000000000002,0.0005,0.731,0.007787099752086255,0.9261363039582515,0.038380407041963084,0.04872967086131629
0.21600000000000003,0.0096,0.731,0.007776950510425237,0.9261363039582515,0.0382909944067218,0.04872967086131629
0.21700000000000003,0.0143,-0.269,0.007662328260951505,0.9404653657521456,0.03728119705190126,0.05193702302739472
0.21800000000000003,0.0128,1.731,0.007652822243838716,0.9404653657521456,0.03719745108652852,0.05193702302739472
0.21900000000000003,0.0194,-0.269,0.007745441427115166,0.9458303654377543,0.03801340616250729,0.053137900210434005
0.22000000000000003,0.0005,-0.269,0.007987229770425461,0.9581066775255503,0.0401435094419507,0.05588577419776133
0.22100000000000003,-0.0128,-0.269,0.007595410564355589,0.9563446450857117,0.03669166654343986,0.055491368852602925
0.22200000000000003,-0.0059,-0.269,0.007595781316934404,0.9702276695982145,0.036694932793885124,0.0585988820577501
0.22300000000000003,0.0006,0.731,0.007546701928091131,0.9770338173185796,0.03626255393849106,0.0601223392769007
0.22400000000000003,0.010399999999999078,-0.269,0.007555188340424138,0.9649983185732421,0.03633731740514027,0.05742836785532852
0.22500000000000003,-0.006200000000000361,0.731,0.007599166310045539,0.9649983185732423,0.03672475385485194,0.05742836785532854
0.22600000000000003,-0.012700000000000105,-0.269,0.007633061184665227,0.9649983185732423,0.03702336040715815,0.05742836785532854
0.22700000000000004,-0.014599999999999074,0.731,0.007633152286617014,0.9649983185732424,0.037024162995751175,0.057428367855328566
0.22800000000000004,0.0021000000000003663,0.731,0.0077129437514602715,0.9581066775255513,0.03772710863244837,0.05588577419776155
0.22900000000000004,0.0087000000000001,0.731,0.007720330084531999,0.966744578564637,0.03779218063750759,0.05781924276720329
0.23000000000000004,0.0104999999999999,1.731,0.0077754152748848926,0.9684876899161139,0.03827746931194496,0.058209412901807464
0.23100000000000004,0.008699999999999172,1.731,0.007799557451174129,0.9956012027158186,0.03849015669042874,0.06427837856466649
0.23200000000000004,-0.006199999999999456,-1.269,0.007740128754408787,0.9939056441706384,0.03796660265908139,0.06389885243442718
0.23300000000000004,0.0035999999999997002,-1.269,0.007807395395961377,0.9855058370447052,0.0385592072975293,0.0620186777260256
0.23400000000000004,-0.0017999999999997335,-1.269,0.007769526217596766,0.9855058370447045,0.038225587984373394,0.06201867772602545
0.235,0.003,-1.2689999999999444,0.007773962991507873,0.9855058370447043,0.03826467500787837,0.0620186777260254
0.236,-0.0013,0.7309999999999722,0.007910251107198616,0.9855058370447036,0.03946534398226913,0.062018677726025255
0.237,-0.0049,-0.2689999999999445,0.007964158857543657,0.993905644170637,0.039940259663584755,0.06389885243442686
0.238,0.0013,1.7309999999999723,0.00797034539981137,1.0022350543556708,0.03999476176981723,0.0657632698110417
0.239,-0.0041,0.7309999999999722,0.007928946180669002,0.9939056441706362,0.03963004355696118,0.06389885243442668
0.24,-0.0016,-0.269,0.00791818748798194,0.9922071881312462,0.03953526178931483,0.0635186777422324
0.241,-0.0077,-0.269,0.00793711281773646,0.9972938785453931,0.03970198987232632,0.06465725944092648
0.242,0.0014,1.731,0.008019106578627623,1.021995647827971,0.040424337263341874,0.07018639137950229
0.243,-0.0022,1.731,0.008150364444939603,1.021995647827971,0.04158069082305455,0.07018639137950229
0.244,-0.0055,0.731,0.008226485639704031,1.015490893533359,0.04225130217008202,0.06873039669703664
0.245,-0.003,0.731,0.00822907360660774,1.021995647827971,0.04227410160165596,0.07018639137950229
0.246,-0.0023,0.731,0.008155363361809213,1.0300979462383084,0.041624730205068745,0.07199997308711158
0.247,-0.0016,0.731,0.008178587105120632,1.0219956478279708,0.04182932638663536,0.07018639137950224
0.248,-0.0052,0.731,0.008268322036761266,1.01382859967267,0.04261987182630133,0.06835831638281731
0.249,0.0057,-0.269,0.00831737593985914,1.0055952241579014,0.04305202615776215,0.0665153949709854
0.25,0.01,-0.269,0.008305651721770424,1.0055952241579014,0.04294873831907741,0.0665153949709854
0.251,0.0035,-0.269,0.008296654196679576,1.0055952241579014,0.04286947205900674,0.0665153949709854
0.252,-0.0027,-0.269,0.008299737527467224,1.0039165450943852,0.04289663553981173,0.06613964706732199
0.253,0.0028,-1.269,0.008304358189557132,1.0089442033725387,0.04293734257860508,0.06726501528058554
0.254,0.0093,0.731,0.008532660561290473,1.020461528355665,0.04494863735020538,0.06984300103871806
0.255,0.0085,0.731,0.008621316146333673,1.0254080684580067,0.045729673978588826,0.07095021212762548
0.256,-0.0039,0.731,0.008774829889264838,1.0318503070644085,0.04708209702256351,0.07239221358214093
0.257,0.0015,1.731,0.0088280617464205,1.0318503070644085,0.04755105823031131,0.07239221358214093
0.258,0.0094,-1.269,0.008830207852554142,1.0334836145405728,0.047569964963575274,0.07275780571558961
0.259,0.0018,-1.269,0.008816741689912854,1.0414965464123795,0.04745133096819315,0.07455138402276319
0.26,0.0028,-0.269,0.008714502572289264,1.049448298323448,0.04655062634051834,0.0763312680851623
0.261,0.0038,0.731,0.00862256683022546,1.049448298323448,0.04574069223456828,0.0763312680851623
0.262,0.0005,-2.269,0.008516716450700488,1.055743851596643,0.044808173166570396,0.07774043616035675
0.263,0.007,-1.269,0.008365212561388575,1.055743851596643,0.043473456500525094,0.07774043616035675
0.264,-0.005,0.731,0.008326170192317614,1.055743851596643,0.04312950162967937,0.07774043616035675
0.265,-0.0003,0.731,0.00830707742147594,1.0509401049438145,0.042961298426718024,0.07666518730918584
0.266,-0.0047,1.731,0.008320867522451455,1.0493339691653858,0.04308278624912351,0.07630567716525201
0.267,0.0018,0.731,0.008267387630552101,1.0477253712254226,0.042611639908652924,0.07594561590225372
0.268,-0.0163,1.731,0.008147199868685718,1.0493339691653858,0.041552811587173444,0.07630567716525201
0.269,-0.02,1.731,0.008110791927075657,1.0365110362048815,0.0412320654554137,0.07343545004236549
0.27,-0.0098,-0.269,0.007883972708496582,1.044500743340848,0.03923383694397536,0.07522382983006339
0.271,-0.0008,1.731,0.007944661631798033,1.0524297969483052,0.03976849329994537,0.07699863320718796
0.272,-0.007,-1.269,0.00787752967869274,1.0540312153060667,0.03917707523773751,0.07735708742508747
0.273,-0.0038,0.731,0.008045993650922578,1.0618891079131807,0.040661206585022175,0.07911596244682674
0.274,0.0092,-0.269,0.00816180702998136,1.0681113363478476,0.041681497535194,0.08050871782291617
0.275,0.0074,0.731,0.008099577513813409,1.0681113363478476,0.041133268887556446,0.08050871782291617
0.276,-0.0006,0.731,0.008075858144896857,1.0912111852569997,0.04092430635105139,0.08567928317468432
0.277,0.0131,0.731,0.007978440923484879,1.0912111852569997,0.040066081591483,0.08567928317468432
0.278,-0.0036,-1.269,0.007849648372859576,1.0896644095752843,0.03893144693251284,0.08533305992542028
0.279,-0.0101,0.731,0.007976347213510577,1.0881154351263105,0.04004763645710884,0.08498634451407121
0.28,-0.0083,-2.269,0.007929140766740889,1.1360025963088236,0.039631757818385814,0.09570518935927447
0.281,-0.0028,-0.269,0.007918060790125121,1.1241686920344838,0.03953414560845758,0.09305634192924646
0.28200000000000003,-0.0108,-0.26900000000005553,0.007913005379918786,1.1122088821263099,0.039489608532302406,0.09037931235350595
0.28300000000000003,-0.0003,-1.2689999999999444,0.007917088247341254,1.1062347165726278,0.03952557771579183,0.0890420822469767
0.28400000000000003,-0.0068,-0.2689999999999445,0.007908987977945422,1.1002281121751016,0.03945421608533351,0.08769759117685016
0.28500000000000003,-0.0155,0.730999999999889,0.007952324695322765,1.0926459738430014,0.03983600324075201,0.08600043974064583
0.28600000000000003,-0.0101,-1.269,0.007947208515498665,1.0850108522453845,0.03979093079734,0.08429142877072847
0.28700000000000003,0.0048,-1.2689999999999444,0.007966635821737367,1.0850108522453847,0.03996208118516785,0.08429142877072851
0.28800000000000003,-0.0018,-0.269,0.007951619887902333,1.0926459738430023,0.03982979403903003,0.08600043974064603
0.28900000000000003,-0.0036,-0.269,0.007963228800610095,1.0803372498833215,0.03993206606211859,0.0832453108270024
0.29000000000000004,0.0055,1.731,0.007962220799591028,1.086453829122799,0.0399231857900302,0.084614418166681
0.29100000000000004,0.0168,-2.269,0.008004643439287864,1.086453829122799,0.04029692011776372,0.084614418166681
0.29200000000000004,0.0182,-0.269,0.007972359831893844,1.086453829122799,0.04001250848302245,0.084614418166681
0.29300000000000004,0.0146,0.731,0.007982280478229617,1.0817864608187668,0.040099907242634736,0.08356969562621416
0.29400000000000004,0.0059,-1.269,0.008017373758099147,1.069352746356845,0.040409071487333574,0.08078658940576092
0.29500000000000004,0.0027,-1.269,0.008009484273396579,1.0677743070546295,0.040339566824668785,0.08043327871537491
0.29600000000000004,-0.0063,-0.269,0.00800445561119093,1.0677743070546295,0.04029526539264434,0.08043327871537491
0.29700000000000004,0.0125,-0.269,0.008091891190126427,1.0677743070546295,0.041065554029725226,0.08043327871537491
0.29800000000000004,0.01,-0.269,0.008154163582900758,1.0677743070546295,0.04161416041103931,0.08043327871537491
0.29900000000000004,0.0031,-0.269,0.0082209741679559,1.0677743070546293,0.04220274728987348,0.08043327871537487
0.30000000000000004,-0.0081,-0.269,0.008243307414504583,1.0677743070546288,0.04239949838656683,0.08043327871537477
0.30100000000000005,-0.0062,-0.269,0.008202509821998159,1.0802261899601662,0.042040080374922635,0.08322045167779778
0.30200000000000005,0.0029,1.731,0.008203057006055933,1.081786460818765,0.04204490094873511,0.08356969562621376
0.30300000000000005,0.021,1.731,0.008203649425753889,1.0817864608187648,0.042050120038804324,0.08356969562621372
0.30400000000000005,0.0142,1.731,0.00821229941253508,1.074074146484181,0.042126324561146046,0.08184340618435745
0.30500000000000005,0.0164,-1.269,0.00818536509955968,1.0725026558525574,0.041889039059235696,0.08149165085286342
0.30600000000000005,0.0106,-0.269,0.00814265591096636,1.0709288592039417,0.041512780297380314,0.08113937935299063
0.30700000000000005,-0.002,0.731,0.00813324746522483,1.0693527463568433,0.041429893914794125,0.08078658940576053
0.30800000000000005,-0.0006,-1.269,0.00815771981591261,1.0816755496918617,0.041645490058686105,0.08354486978288694
0.30900000000000005,0.0038,-1.269,0.008120762058955344,1.1239552233658268,0.04131990017202016,0.0930085600711838
0.31000000000000005,-0.0027,-0.269,0.008121477520379493,1.1180438250807485,0.04132620323322249,0.09168537950521839
0.31100000000000005,0.0035,-1.269,0.008129232857292418,1.1254548722477762,0.04139452608272483,0.09334423467145157
0.31200000000000006,-0.0041,-0.269,0.008154848175392325,1.1474008425399815,0.041620191523587605,0.09825652106995059
0.31300000000000006,-0.0015,0.731,0.008154864383349985,1.1474008425399815,0.04162033431220716,0.09825652106995059
0.31400000000000006,0.0028,-1.269,0.008184811940671053,1.1474008425399815,0.041884165848449006,0.09825652106995059
0.31500000000000006,-0.0048,-0.269,0.008242991990173365,1.1474008425399815,0.042396719566078024,0.09825652106995059
0.31600000000000006,0.0018,-0.269,0.00825740530342209,1.1474008425399813,0.042523697754515144,0.09825652106995054
0.31700000000000006,-0.0026,0.731,0.008248741727405168,1.1371698941347885,0.042447373513930596,0.0959664720073933
0.31800000000000006,-0.010199999999999269,-0.269,0.008263904461576396,1.1371698941347885,0.042580953939443555,0.0959664720073933
0.31900000000000006,-0.003600000000000688,-1.269,0.008101923996123667,1.1253482649636335,0.04115394089182185,0.09332037218075728
0.32000000000000006,-0.009799999999999755,-1.269,0.007850914902130334,1.1149149708034811,0.03894260478287162,0.09098503096266318
0.32100000000000006,-0.007600000000001088,0.731,0.007791628323981094,1.1268460599352483,0.038420302785952744,0.09365563181014888
0.32200000000000006,-0.01739999999999959,-1.269,0.007810499763276471,1.1149149708034811,0.038586556105614685,0.09098503096266318
0.32300000000000006,-0.013699999999998191,-1.269,0.007797761447795955,1.1194442228742467,0.038474334287109536,0.09199883819225274
0.32400000000000007,0.0025999999999997666,-0.269,0.00794933847543384,1.1253482649636335,0.03980969528606962,0.09332037218075728
0.32500000000000007,0.0005000000000001998,-2.269,0.007898097135752324,1.1253482649636335,0.039358270108973324,0.09332037218075728
0.32600000000000007,0.0022999999999994006,-0.269,0.007873578420643504,1.1238484738263104,0.039142265504508125,0.09298466573869221
0.32700000000000007,-0.0031000000000012433,-0.269,0.007897609738745965,1.1297294992394689,0.03935397624621956,0.09430104777884044
0.32800000000000007,-0.014299999999998479,-0.269,0.007800771718591126,1.1282355321992512,0.038500854125100965,0.09396664497624148
0.32900000000000007,-0.0006000000000009991,-3.269,0.007816920672726026,1.1223466785208542,0.038643122936290866,0.09264851069272727
0.33000000000000007,-0.009599999999999843,-0.269,0.00776599060207041,1.1223466785208542,0.03819443997233761,0.09264851069272727
0.33100000000000007,-0.008199999999999834,-0.269,0.00772879144304064,1.0983663858005943,0.03786672338535491,0.08728087079377066
0.33199999999999996,-0.0067,0.731,0.0077299415569690695,1.0983663858005943,0.03787685564159663,0.08728087079377066
0.33299999999999996,-0.0002,0.731,0.0076833204183427125,1.098366385800594,0.03746613344167675,0.08728087079377062
0.33399999999999996,0.0085,-0.269,0.0076837683095187966,1.0907713063660933,0.0374700792665662,0.0855808226799322
0.33499999999999996,0.0009,-0.269,0.007660992043699921,1.0923165146268399,0.03726942526542604,0.0859266950847996
0.33599999999999997,-0.0057,0.731,0.0075261288608637405,1.0983663858005954,0.03608130964288399,0.0872808707937709
0.33699999999999997,0.0005,-1.269,0.007474037799292103,1.0923165146268405,0.0356223985987687,0.08592669508479973
0.33799999999999997,0.0045,-0.269,0.007463897756501511,1.08623294867924,0.035533067003596576,0.0845649772905592
0.33899999999999997,-0.0039,-1.269,0.007462138123378427,1.08623294867924,0.03551756501439899,0.0845649772905592
0.33999999999999997,0.0084,-0.269,0.007485377593542533,1.093859540097111,0.03572229974615386,0.08627207890375255
0.34099999999999997,-0.0028,-0.269,0.007474470530513174,1.0938595400971112,0.03562621086771642,0.0862720789037526
0.34199999999999997,-0.0042,-1.269,0.007309135602846622,1.0692405454954135,0.03416964572976395,0.08076147487411016
0.34299999999999997,-0.0078,-0.269,0.007099922665288799,1.070816823488622,0.032326524765814116,0.08111430178689612
0.344,-0.0042,-0.2689999999999445,0.006949901539386785,1.0692405454954135,0.03100487092636675,0.08076147487411016
0.345,-0.001,0.731,0.006954558424290997,1.061437077487998,0.03104589708036013,0.07901478200778635
0.346,0.0121,0.731,0.006962126605576621,1.061437077487998,0.03111257112905586,0.07901478200778635
0.347,0.0102,0.731,0.006981920160788573,1.0692405454954135,0.03128694809153298,0.08076147487411016
0.348,0.0117,0.7309999999999445,0.00686996007143969,1.070816823488622,0.03030060379460062,0.08111430178689612
0.349,-0.0083,-0.268999999999889,0.006805548738692959,1.0832337329201527,0.029733153812361184,0.08389364644560855
0.35,-0.0057,1.7309999999999446,0.00684215964325121,1.0955099136046167,0.03005568800402334,0.08664149102021035
0.351,-0.0036,0.7309999999999445,0.006797491370767978,1.0955099136046167,0.029662170134630045,0.08664149102021035
0.352,0.0029,-0.269,0.006769036119231126,1.1030723663799495,0.02941148549125065,0.08833423613072174
0.353,0.0047,-0.269,0.006781981157432414,1.0908812927175877,0.029525528492445694,0.08560544152572815
0.354,0.0065,-0.269,0.006453147426729848,1.080115118617577,0.026628574079460492,0.08319558997251891
0.355,-0.0015,-0.269,0.006296642684132073,1.067661940314628,0.02524980097199047,0.0804081270542178
0.356,-0.0,-0.269,0.0060891005579093065,1.084679073948356,0.02342139949639731,0.08421716502234505
0.357,0.0065,-2.269,0.0059997396925347245,1.0923165146268414,0.022634149500048165,0.08592669508479994
0.358,0.0053,-3.269,0.006023516785280821,1.1029635957099688,0.022843620571071185,0.08830988939755899
0.359,0.0021,0.731,0.006026568223171675,1.1075417235780602,0.022870503082317747,0.0893346367638216
0.36,-0.0045,-1.269,0.006056265532736466,1.1015422461876463,0.023132129989672106,0.08799174097062441
0.361,0.0075,-2.269,0.0060503806733290645,1.109063566618789,0.023080285644526476,0.08967527920387251
0.362,-0.0005,-2.269,0.006042409167852005,1.1030723663799467,0.023010058396486673,0.0883342361307211
0.363,0.0099,-1.269,0.0060285895991468285,1.1046003670133318,0.022888310969723373,0.08867625685836882
0.364,0.011,0.731,0.006056614740680548,1.1030723663799462,0.02313520643652109,0.08833423613072099
0.365,0.0049,0.731,0.006078771474642234,1.0955099136046134,0.023330402495302847,0.08664149102020961
0.366,-0.0028,0.731,0.006060847841526849,1.097048447490319,0.023172499144149053,0.08698586946325644
0.367,-0.0053,0.731,0.006058294453649053,1.0970484474903188,0.02315000434635309,0.0869858694632564
0.368,-0.001,-0.269,0.006116103181751133,1.1076500446783053,0.02365928680234256,0.08935888286733487
0.369,-0.0003,0.731,0.006035771242066346,1.1151301700433536,0.022951579698584395,0.09103320018393331
0.37,0.0019,1.731,0.00611045714297655,1.1076500446783053,0.023609546415585502,0.08935888286733487
0.371,0.0055,-0.269,0.006212153984088611,1.1001190602888327,0.024505473703874295,0.08767318149750962
0.372,-0.0054,1.731,0.006183114559210574,1.0985848267092766,0.02424964261905449,0.08732976561547635
0.373,-0.0159,-1.269,0.005935619751726432,1.0925361651431578,0.022069266618088133,0.08597586065958919
0.374,0.0018,-0.269,0.005814779679481301,1.086453829122795,0.021004691582528226,0.0846144181666801
0.375,0.004,-0.269,0.005810678096183386,1.0986940308773183,0.02096855751620317,0.08735420938087785
0.376,0.0062,-1.269,0.005965541115212719,1.0741858424664308,0.02233286739228164,0.08186840770614333
0.377,0.0044,-0.269,0.0059996659269667555,1.0818973605755688,0.02263349964126635,0.0835945189245091
0.378,0.0062,0.731,0.006006193595044417,1.0818973605755688,0.0226910069924851,0.0835945189245091
0.379,0.0048,0.731,0.0062561374331400995,1.0818973605755688,0.024892958426186045,0.0835945189245091
0.38,0.0034,-0.269,0.006272095864712689,1.0315014300329954,0.02503354877459635,0.07231412253064762
0.381,-0.0031,-0.269,0.006199378392626334,1.0315014300329954,0.024392923491990424,0.07231412253064762
0.382,-0.0067,-0.269,0.006188971533277993,1.0315014300329954,0.02430124130035491,0.07231412253064762
0.383,0.0009,-0.269,0.006231386721858772,1.0379058480855807,0.024674909985359213,0.073747658404028
0.384,0.0034,0.731,0.006278582016269778,1.0379058480855807,0.025090690374201884,0.073747658404028
0.385,0.006,-1.269,0.0062220914385019655,1.0458849000512989,0.024593020539033512,0.0755336531867711
0.386,-0.0049,0.731,0.006238539554919694,1.0538035390054363,0.024737924905564975,0.0773061253951587
0.387,0.0028,0.731,0.006449065219472686,1.0538035390054366,0.02659261071188537,0.07730612539515876
0.388,-0.0008,-0.269,0.006453776820312583,1.0458849000512989,0.026634118901499016,0.0755336531867711
0.389,-0.0069,-1.269,0.0064525933934467825,1.0538035390054366,0.026623693165446934,0.07730612539515876
0.39,-0.0037,1.731,0.00646966328836674,1.0458849000512989,0.02677407526679618,0.0755336531867711
0.391,-0.0061,-0.269,0.006458919893001961,1.047496324332572,0.026679428265267643,0.07589434708518215
0.392,-0.0054,0.731,0.006481683309893145,1.047496324332572,0.026879969070119518,0.07589434708518215
0.393,-0.0014,-0.269,0.006498456961839197,1.0411509017237197,0.027027741334610677,0.07447401648420326
0.394,-0.0064,-0.269,0.006453029091563277,1.0491052734712478,0.026627531572104946,0.07625448695890656
0.395,-0.0042,-1.269,0.006445402576300346,1.0617761183484247,0.026560343613620755,0.079090671375403
0.396,-0.0082,-1.269,0.006445086387764255,1.060186398780948,0.02655755806065145,0.07873483576163123
0.397,-0.0009,0.731,0.006380001997519716,1.060186398780948,0.025984178586676773,0.07873483576163123
0.398,-0.0034,1.731,0.006334896951772415,1.060186398780948,0.025586812838806663,0.07873483576163123
0.399,-0.0077,1.731,0.006364825341918385,1.0834552248041065,0.025850475516360064,0.08394322418377356
0.4,-0.0022,-0.269,0.0063293998809430966,1.095728923970333,0.025538384827594244,0.0866905133065943
0.401,0.0,-1.269,0.006303749987164221,1.0850108522453832,0.025312414782439337,0.08429142877072816
0.402,0.0051,-0.269,0.006296605509738083,1.0850108522453834,0.025249473473578157,0.08429142877072822
0.403,0.0023,0.731,0.006294140096434328,1.0850108522453834,0.025227753712850187,0.08429142877072822
0.404,-0.0013,-0.269,0.0062842519450568915,1.092645973843001,0.025140641226828978,0.08600043974064574
0.405,0.0034,-2.269,0.006411876527299399,1.092645973843001,0.02626498633565616,0.08600043974064574
0.406,-0.002,-1.269,0.006688222114317241,1.0941885347097422,0.02869953149654916,0.08634571956485296
0.40700000000000003,-0.0057,1.731,0.006699083487279311,1.1017600574332507,0.02879521785532483,0.08804049485140418
0.40800000000000003,-0.002,1.7309999999999446,0.006667800986791098,1.101760057433251,0.02851962575701752,0.08804049485140424
0.40900000000000003,0.0071,0.730999999999889,0.006697036911408942,1.0507117588378456,0.028777187962264566,0.0766140753530697
0.41000000000000003,0.0005,-1.2689999999998889,0.006886717367384314,1.0507117588378456,0.030448231966238484,0.0766140753530697
0.41100000000000003,0.0016,0.731,0.007113643408896919,1.0443858725729611,0.032447401564736356,0.07519811767866781
0.41200000000000003,0.0005,0.7309999999999445,0.0070767229288682745,1.0316177354862204,0.032122140079790765,0.0723401558154986
0.41300000000000003,-0.006,-0.269,0.007090284787353693,1.0071519886166715,0.032241617134969,0.0668638540627759
0.41400000000000003,0.0059,-0.2689999999999445,0.007240364387112069,1.0005507377661476,0.03356378611650921,0.06538626002914019
0.41500000000000004,0.0012,0.7309999999999445,0.0071623402369559615,1.0005507377661476,0.0328764101419362,0.06538626002914019
0.41600000000000004,-0.0003,-0.268999999999889,0.007163920793896603,1.012163575801518,0.03289033450849793,0.06798562499544487
0.41700000000000004,0.0088,1.731,0.007160624633677113,1.012163575801518,0.03286129604619251,0.06798562499544487
0.41800000000000004,0.0026,-1.269,0.007140953956494231,1.012163575801518,0.032688001612712084,0.06798562499544487
0.41900000000000004,0.0102,-0.269,0.007141782868510088,1.025291058601986,0.03269530414921642,0.07092402117244934
0.42000000000000004,0.0149,-0.269,0.0071529812403869275,1.0252910586019854,0.032793959395919815,0.07092402117244918
0.42100000000000004,0.0047,-0.269,0.0071549076690549844,1.0203439512460382,0.03281093081797955,0.06981668311206889
0.42200000000000004,-0.0018,0.731,0.007144563570696899,1.021995647827969,0.03271980153716403,0.07018639137950185
0.42300000000000004,0.0068,0.731,0.007124131905177774,1.0088252839364429,0.03253980296018165,0.06723839689367112
0.42400000000000004,0.0014,1.731,0.006945722119571147,1.0088252839364413,0.03096805113706849,0.06723839689367077
0.42500000000000004,-0.0135,-0.269,0.006962769347181906,1.0104958084249402,0.03111823354430098,0.0676123195142681
0.42600000000000005,0.0068,-1.269,0.007013456551436858,1.0104958084249405,0.03156477690752148,0.06761231951426815
0.42700000000000005,0.0042,-0.269,0.007073955470898268,1.0104958084249382,0.032097759370543474,0.06761231951426766
0.42800000000000005,-0.0226,-0.269,0.007062123347564607,1.0236446793268805,0.03199352090986853,0.070555503106846
0.42900000000000005,-0.0045,0.731,0.007034976808328059,1.021995647827964,0.03175436574026178,0.0701863913795007
0.43000000000000005,-0.0013,-0.269,0.0070199010827226155,1.028459261959088,0.03162155184149192,0.07163317743446697
0.43100000000000005,0.0074,-0.269,0.007029625290661443,1.028459261959088,0.03170722002109438,0.07163317743446697
0.43200000000000005,0.0099,-1.269,0.007048425237865948,1.0365110362048724,0.03187284351081856,0.07343545004236345
0.43300000000000005,0.0077,0.731,0.00703356399764377,1.044500743340839,0.03174191918212488,0.07522382983006139
0.43400000000000005,0.0012,-1.269,0.0070793445466095575,1.0524297969482965,0.03214523596800316,0.07699863320718602
0.43500000000000005,-0.0046,-1.269,0.00707182832811091,1.0587076210336668,0.03207901970027996,0.07840383286143356
0.43600000000000005,-0.0173,0.731,0.00704660980979436,1.0634762822176926,0.031856849980129935,0.07947122834048696
0.43700000000000006,-0.0025,-0.269,0.007214013926661466,1.0634762822176929,0.033331644229715934,0.07947122834048702
0.43800000000000006,-0.0043,-1.269,0.007273774898441508,1.0634762822176929,0.03385812553244783,0.07947122834048702
0.43900000000000006,-0.0061,-0.269,0.007315165869829049,1.0650610912874898,0.0342227710843585,0.07982596481074218
0.44000000000000006,-0.0075,0.731,0.0073072097130638235,1.0572267748735045,0.0341526790551674,0.0780723669770831
0.44100000000000006,-0.0061,-0.269,0.007377444723976003,1.0445007433408393,0.03477143438897511,0.07522382983006144
0.44200000000000006,0.0063,0.731,0.007450763688209746,1.0445007433408393,0.03541735868797765,0.07522382983006144
0.44300000000000006,0.0014999999999995225,-1.269,0.007434591048917182,1.0428846904162667,0.035274881215645024,0.0748620998771392
0.44400000000000006,-0.0027999999999996,1.731,0.0074335006952939075,1.0445007433408393,0.03526527543483321,0.07522382983006144
0.44500000000000006,0.0007999999999990341,-0.269,0.007408448695309848,1.0461142997658042,0.03504457270536301,0.07558500097784071
0.44600000000000006,-0.00789999999999988,0.731,0.007396489348502834,1.0381370109525194,0.03493921343326224,0.07379940085113704
0.44700000000000006,-0.00680000000000071,0.731,0.007440364710687695,1.0381370109525194,0.03532574593353584,0.07379940085113704
0.44800000000000006,-0.013199999999999079,-2.269,0.007514751295688047,1.0365110362048726,0.035981075741774365,0.07343545004236349
0.44900000000000007,-0.0048999999999994005,1.731,0.00775079262760791,1.0235274678798965,0.03806054908744113,0.0705292670284634
0.45000000000000007,0.0004999999999997225,0.731,0.00773475217671551,1.0363952798835494,0.03791923616647123,0.07340953967270542
0.45100000000000007,-0.0019999999999995226,0.731,0.007773761538647839,1.038021435953918,0.03826290025152768,0.07377353106793413
0.45200000000000007,0.002300000000000089,-0.269,0.007775183080742507,1.031617735486212,0.0382754237315113,0.07234015581549672
0.45300000000000007,0.0031000000000012433,-1.269,0.007758588751414116,1.033251410598908,0.03812923126069724,0.07270583023903829
0.45400000000000007,0.014300000000000533,-0.269,0.0077580965797638905,1.0316177354862117,0.038124895334358366,0.07234015581549666
0.45500000000000007,0.019099999999997456,0.731,0.007764936838418677,1.0316177354862117,0.038185156541302084,0.07234015581549666
0.45600000000000007,-0.0037999999999996335,-1.269,0.00777372913218156,1.0137102532304942,0.03826261475753259,0.06833182625226168
0.4570000000000001,-0.0004999999999990341,-2.269,0.007772231312662849,1.0186895766176425,0.03824941928985562,0.06944637540286834
0.4580000000000001,0.008200000000000889,-0.269,0.0077512677739213585,1.007151988616663,0.038064735024226325,0.06686385406277401
0.45899999999999996,0.0162,0.731,0.007754407157699349,0.9937849251747758,0.038092392319815406,0.06387183124222101
0.45999999999999996,0.0184,0.731,0.007723856331012893,1.000430820614184,0.037823246110268764,0.06535941831803362
0.46099999999999997,-0.0019,1.731,0.007724103657900299,1.0004308206141856,0.03782542500692998,0.06535941831803396
0.46199999999999997,-0.0044,0.731,0.007724103657900299,1.0004308206141856,0.03782542500692998,0.06535941831803396
0.46299999999999997,0.0177,0.731,0.007724193686064093,0.9987434613051747,0.037826218135681836,0.06498172746761031
0.46399999999999997,0.0029,0.731,0.007713236602728743,0.9987434613051747,0.03772968858911137,0.06498172746761031
0.46499999999999997,-0.0051,1.731,0.00769083693747908,1.0004308206141863,0.03753235235795358,0.06535941831803412
0.46599999999999997,0.0018,0.731,0.007718079121412755,1.0120450346549348,0.037772350136762334,0.06795909128313826
0.46699999999999997,-0.0003,0.731,0.007718680610530462,1.0202263605861082,0.03777764912646811,0.06979036215238137
0.46799999999999997,0.0015,1.731,0.007688107875993272,1.0202263605861082,0.037508309913470386,0.06979036215238137
0.469,-0.004,0.730999999999889,0.00768408583101729,1.012045034654935,0.03747287656264745,0.06795909128313832
0.47,-0.0025,-1.2689999999998889,0.007621457312820045,1.012045034654935,0.03692113279298429,0.06795909128313832
0.471,-0.0039,0.7309999999999445,0.007502977315688248,1.012045034654935,0.03587734951136015,0.06795909128313832
0.472,0.0004,-0.26900000000005553,0.007522985732446013,1.020226360586108,0.03605361935782455,0.06979036215238132
0.473,0.0015,-1.2689999999998889,0.007588491840396882,1.0267011133552497,0.03663071407405182,0.07123964142953389
0.474,0.0052,0.7309999999999445,0.007560256728252883,1.0331352890570737,0.03638196881135651,0.07267983812007843
0.475,-0.0093,-0.26900000000005553,0.007564596386440882,1.0201087563711906,0.036420200266237095,0.06976403815860695
0.476,-0.0111,-1.2689999999998334,0.007453731092011168,1.033135289057074,0.03544350087697777,0.07267983812007847
0.477,0.0016,1.730999999999889,0.0074546482651632155,1.02670111335525,0.035451580975100976,0.07123964142953393
0.478,0.0001,-0.26900000000005553,0.007443223499146103,1.0283425992828668,0.03535093124473454,0.07160706419044159
0.479,-0.0013,-1.2689999999999444,0.007185439122724171,1.0299814691705749,0.03307990635541249,0.0719739013888478
0.48,-0.005,-0.269,0.007180215468536961,1.0283425992828668,0.03303388708598653,0.07160706419044159
0.481,-0.006,-1.269,0.00718204674131083,1.0299814691705746,0.03305002020509296,0.07197390138884774
0.482,-0.0049,-1.269,0.007144785565802247,1.0316177354862162,0.032721757266275894,0.07234015581549766
0.483,0.0081,-1.269,0.007079427678435704,1.0251740353908572,0.032145968341504204,0.07089782722792634
0.484,-0.0009,-1.269,0.007058158701290435,1.0251740353908572,0.03195859322925818,0.07089782722792634
0.485,0.0005,1.731,0.007130303298487849,1.0170325108739187,0.032594171607356906,0.06907546532662512
0.486,-0.0162,0.731,0.007124532320180471,1.0104958084249402,0.03254333053019891,0.0676123195142681
0.487,-0.0097,0.731,0.006931362681012243,1.0104958084249402,0.030841547573056582,0.0676123195142681
0.488,-0.0078,0.731,0.006936609378040518,1.0104958084249402,0.030887769844954248,0.0676123195142681
0.489,-0.006,-0.269,0.0069237887665118516,1.0104958084249402,0.03077482301597236,0.0676123195142681
0.49,-0.0108,-0.269,0.006916423423335084,1.0121635758015137,0.03070993592737138,0.06798562499544393
0.491,0.0121,-0.269,0.006887787321819268,1.0236446793268843,0.030457658034590447,0.07055550310684684
0.492,0.0023,-0.269,0.006897109888097381,1.0317340278285418,0.030539787837582447,0.07236618616566445
0.493,-0.0006,0.731,0.00687404902684347,1.0300979462383049,0.03033662661189547,0.07199997308711079
0.494,0.002,0.731,0.006874763320966658,1.0477253712254184,0.030342919389427493,0.07594561590225278
0.495,-0.0002,-0.269,0.007105689229734613,1.042884690416271,0.03237732695780146,0.07486209987714014
0.496,-0.0115,-1.269,0.0072007248278102695,1.042884690416271,0.03321457012822605,0.07486209987714014
0.497,0.0106,-0.269,0.00723246838317802,1.0412661293683323,0.033494224020817816,0.07449980851726559
0.498,0.0193,-0.269,0.00732053896481026,1.0476108540387705,0.03427010689502473,0.07591998289487717
0.499,0.0059,-2.269,0.007219153410079392,1.0299814691705746,0.033376921972775364,0.07197390138884774
0.5,0.0081,0.731,0.007204389722051354,1.0169145372964778,0.03324685705792194,0.06904905865641968
0.501,0.0015,0.731,0.0072043437716156145,1.0152545743950019,0.03324645224447014,0.06867750009353264
0.502,-0.0003,0.731,0.0072049303986258485,1.0152545743950019,0.03325162030220693,0.06867750009353264
0.503,-0.0021,-0.269,0.007212474432257312,1.0169145372964778,0.03331808161526531,0.06904905865641968
0.504,-0.0035,-0.269,0.007216886414760028,1.0169145372964778,0.033356950231796675,0.06904905865641968
0.505,-0.005,-1.269,0.007122431860420368,1.0185717949657955,0.032524825931664184,0.06942001169241685
0.506,-0.0013,1.731,0.0068622933250858265,1.0169145372964778,0.03023306140886176,0.06904905865641968
0.507,-0.0003,0.731,0.006886478719608614,1.0103770716097904,0.03044612953068394,0.06758574200439747
0.508,0.003,-0.269,0.006927954095103738,0.9971735697332273,0.030811518664621354,0.0646303300623776
0.509,-0.0017,-1.269,0.00688173232300561,0.9988635810306834,0.030404314797884257,0.06500861452185998
0.51,0.0008,-1.269,0.00704471889152443,0.9988635810306834,0.031840191397037004,0.06500861452185998
0.511,0.0016,0.731,0.006800993807532786,0.9988635810306834,0.029693025848915602,0.06500861452185998
0.512,-0.0006,-0.269,0.006801585817993141,0.9853840889924977,0.029698241333689604,0.06199142619451711
0.513,0.0044,-0.269,0.0068621845223055394,0.9920862624639597,0.03023210287977831,0.0634916102896326
0.514,0.0004,0.731,0.006677390486163917,1.0037970300337804,0.028604107183138414,0.06611289535852043
0.515,0.0066,1.731,0.00667923932539179,1.0037970300337795,0.028620395058924886,0.06611289535852023
0.516,-0.001,-1.269,0.006664379240658554,0.9903846862885,0.02848948090984016,0.06311073720033977
0.517,0.0055,1.731,0.0067607371255032035,0.9886801816056786,0.029338373142185743,0.06272920860724882
0.518,-0.0007,-0.269,0.0067607371255032035,0.9869727332428719,0.029338373142185743,0.062347021114188474
0.519,-0.0028,-0.269,0.006798266931122964,0.9818325723666464,0.02966900265448168,0.061196470829913856
0.52,-0.0065,-0.269,0.006873179358532277,0.9885588244966719,0.030328965021198667,0.06270204458269225
0.521,-0.0072,-1.269,0.006874341699296982,0.9885588244966703,0.030339204993237157,0.06270204458269191
0.522,-0.0101,-1.269,0.006863266142954332,0.9885588244966707,0.030241631724963993,0.06270204458269198
0.523,-0.0018,-1.269,0.006974041151545939,0.9902635380670999,0.031217535715416227,0.06308361993223716
0.524,-0.0029,-0.269,0.007014699639417693,0.9818325723666463,0.03157572824515985,0.06119647082991383
0.525,-0.004,1.731,0.007097451195377001,0.981832572366646,0.032304751647672485,0.06119647082991375
0.526,0.0069,0.731,0.007042110596200735,0.9818325723666458,0.03181721287645701,0.0611964708299137
0.527,-0.0007,0.731,0.006987886905264883,0.9733285804367623,0.03133951382651664,0.05929297586779079
0.528,0.0116,0.731,0.007093309163322495,0.9681159793590062,0.03226826123650514,0.05812621089754214
0.529,0.0036,-0.269,0.007097754728716285,0.9766653593505373,0.0323074257110809,0.060039865317411394
0.53,0.0021,0.731,0.007110249057882511,0.976665359350538,0.032417498062655224,0.060039865317411546
0.531,0.0011,0.731,0.007097366217971691,0.9902635380671054,0.03230400301501612,0.06308361993223839
0.532,0.0022,0.731,0.007083798767078146,0.9902635380671054,0.032184476691925604,0.06308361993223839
0.533,0.0054,0.731,0.007463588547250635,0.9818325723666508,0.03553034293662829,0.06119647082991482
0.534,0.0102,-0.269,0.007437941235280596,0.9733285804367647,0.03530439563665372,0.05929297586779134
0.535,-0.0036,0.731,0.007443893563396425,0.9664963404819046,0.03535683436660349,0.057763678281279
0.536,-0.0053,0.731,0.00746267275153695,0.9543279576906362,0.03552227497344068,0.05503996269789886
0.537,0.0037,-0.269,0.007319069547261037,0.9664963404819046,0.03425716164258775,0.057763678281279
0.538,-0.0009,-1.269,0.007310109027548923,0.9647496311634333,0.03417822139194135,0.05737270279407051
0.539,-0.0052,0.731,0.007271523260180532,0.9647496311634333,0.033838289083849185,0.05737270279407051
0.54,-0.0041,1.731,0.007312405475538363,0.9647496311634334,0.03419845260460614,0.05737270279407053
0.541,0.0071,-1.269,0.007232339444929409,0.9733285804367648,0.03349308810259094,0.05929297586779136
0.542,0.0028,-0.269,0.0071519078822493195,0.9733285804367648,0.032784503341679844,0.05929297586779136
0.543,0.0018,-2.269,0.00736928260879019,0.9750599216612181,0.03469952791041431,0.05968051143057589
0.544,0.0182,-1.269,0.0073772720124028355,0.9818325723666508,0.03476991283717751,0.06119647082991482
0.545,0.0117,-0.269,0.007392999773050336,0.9801131949041303,0.03490847102437081,0.06081161318130929
0.546,-0.0104,-0.269,0.007397946100922117,0.9936641915129314,0.03495204710862959,0.06384480676724805
0.547,-0.0132,-1.269,0.0073197920914598895,0.9852623258959924,0.03426352710151123,0.061964171295561254
0.548,-0.0052,-1.269,0.007245285093233719,0.9936641915129315,0.03360713647866233,0.06384480676724807
0.549,0.0017,-0.269,0.006993588484996218,0.9953601613637049,0.03138974351715205,0.06422442496226483
0.55,-0.0004,-0.269,0.006990335159083856,0.9682398987337005,0.03136108241587585,0.05815394844802255
0.551,-0.0022,0.731,0.007017729726011804,0.9750599216612181,0.03160242265607621,0.05968051143057589
0.552,-0.004,0.731,0.007069726105586382,0.9750599216612181,0.03206049957216994,0.05968051143057589
0.553,0.004,-1.269,0.007449586280210594,0.9869727332428763,0.03540698597684568,0.062347021114189445
0.554,0.0083,0.731,0.007509328628456816,0.9953601613637049,0.03593330321025181,0.06422442496226483
0.555,-0.0007,-0.269,0.007588547373720647,0.9953601613637049,0.036631203310685194,0.06422442496226483
0.556,-0.0069,0.731,0.007571992910596492,0.9869727332428763,0.03648536205255253,0.062347021114189445
0.557,0.0076,1.731,0.007608042822588021,0.9750599216612181,0.036802954020409534,0.05968051143057589
0.558,0.0018,0.731,0.007634960910694278,0.9750599216612181,0.03704009658471381,0.05968051143057589
0.559,-0.0221,0.731,0.007629180850744102,0.9750599216612181,0.03698917550023683,0.05968051143057589
0.56,0.0008,0.731,0.007627662786564051,0.9936641915129315,0.036975801681449455,0.06384480676724807
0.561,-0.0021,-0.269,0.007627257112700379,0.9936641915129315,0.03697222778199855,0.06384480676724807
0.562,-0.0101,-1.269,0.007625915615560931,0.9936641915129314,0.036960409480847306,0.06384480676724805
0.5630000000000001,-0.0079,1.730999999999889,0.007640844144046157,0.9936641915129314,0.037091926604660146,0.06384480676724805
0.5640000000000001,0.0033,0.730999999999889,0.007628294898392419,1.0019956088527109,0.03698137045064712,0.06570967341627261
0.5650000000000001,-0.0025,-0.269,0.007701674550075206,1.0019956088527109,0.03762782939301775,0.06570967341627261
0.5660000000000001,-0.0115,-0.269,0.007673464797668063,0.9885588244966754,0.03737930754414753,0.06270204458269305
0.5670000000000001,-0.0003,-0.26900000000011104,0.007702108073748073,0.9936641915129315,0.037631648643295275,0.06384480676724807
0.5680000000000001,0.0073000000000004,-1.269,0.007685108587043663,0.9801131949041303,0.03748188682317541,0.06081161318130929
0.5690000000000001,0.010899999999998479,-1.269,0.007685899596204116,0.9885588244966754,0.03748885544367911,0.06270204458269305
0.5700000000000001,-0.0027999999999997224,-1.2689999999997779,0.007690711500555343,0.9885588244966754,0.03753124728564547,0.06270204458269305
0.5710000000000001,-0.00029999999999858997,0.731,0.007676955198854956,0.9969329085526848,0.03741005722758133,0.06457646155585521
0.5720000000000001,0.012399999999999477,0.730999999999889,0.007653003905637004,0.9885588244966754,0.037199051487883626,0.06270204458269305
0.5730000000000001,0.007700000000000477,-0.268999999999889,0.007587822366384074,0.9801131949041303,0.036624816152048385,0.06081161318130929
0.5740000000000001,0.011999999999998345,0.730999999999889,0.0075863322354148156,0.9801131949041303,0.03661168841883776,0.06081161318130929
0.5750000000000001,-0.0028999999999989117,-0.269,0.007594002937669151,0.9885588244966754,0.036679265655208605,0.06270204458269305
0.5760000000000001,0.006900000000000599,-0.26900000000011104,0.007586838289459258,0.9749368691460912,0.03661614664608264,0.059652967914007225
0.5770000000000001,0.012299999999998357,-1.269,0.007555522006512388,1.0001909431781433,0.03634025693158348,0.06530572524132383
0.5780000000000001,-0.002500000000000211,-1.269,0.007609633512135348,1.0118079106977356,0.036816967653055956,0.06790601453263698
0.5790000000000001,-0.004399999999999801,-1.269,0.0075895778719897306,1.0101395561087505,0.03664028177870555,0.06753257761249973
0.5800000000000001,-0.0026000000000001664,1.731,0.007705439373213206,1.0232930047085487,0.03766099667479396,0.07047678585619235
0.5810000000000001,-0.0041000000000022095,-1.269,0.0077040479322589015,1.034650616788287,0.037648738379380146,0.07301902220281414
0.5820000000000001,-0.023999999999997912,-0.269,0.007703286239630021,1.034650616788287,0.03764202803121161,0.07301902220281414
0.5830000000000001,-0.0051999999999997664,-0.269,0.007736748868668273,1.0330191544620313,0.037936826592950806,0.07265384307934765
0.5840000000000001,-0.003100000000000244,0.731,0.007732802963034694,1.039414220999301,0.0379020640133517,0.07408528575197733
0.5850000000000001,-0.0053000000000001995,0.731,0.007692192784082162,1.0394142209993007,0.037544297074791885,0.07408528575197727
0.5860000000000001,-0.007100000000000211,1.731,0.00768461846556216,1.0377902473431952,0.03747756895838183,0.07372178285845331
0.5870000000000001,-0.008999999999998756,-0.269,0.0077056731058258885,1.0361637284453251,0.037663055808819915,0.07335771024956315
0.588,0.0022,0.731,0.007698483821040517,1.0377902473431952,0.037599719756764995,0.07372178285845331
0.589,0.0098,-0.269,0.007707380861842839,1.029748475510201,0.03767810077187476,0.07192174914524446
0.59,0.0007,-1.269,0.0077156017608054975,1.0361637284453251,0.037750525122861193,0.07335771024956315
0.591,-0.0055,-0.269,0.007713572764451805,1.023175752974948,0.03773265010156029,0.07045054076023631
0.592,-0.0179,0.731,0.007734823024220268,1.0166785490732642,0.03791986031774403,0.0689962361234597
0.593,0.0035,-1.269,0.007760654056403657,1.01833619079391,0.03814742615326751,0.06936727512376333
0.594,-0.0052,-0.269,0.007782643492124387,0.9918443668996244,0.03834114835054368,0.06343746548424373
0.595,-0.0027,1.731,0.007604369365487308,0.9834269538127628,0.03677059165376275,0.06155334993744451
0.596,0.0042,-0.269,0.007580453138137278,0.9834269538127627,0.036559894836816396,0.06155334993744448
0.597,0.0019,-1.269,0.007511288122792154,0.9969329085526848,0.03595056593372561,0.06457646155585521
0.598,0.0037,0.731,0.007500521922348449,0.9885588244966754,0.03585571802435866,0.06270204458269305
0.599,0.0055,-0.269,0.0074879495121075714,0.9801131949041303,0.03574495779531721,0.06081161318130929
0.6,0.0102,-1.269,0.007500706290375613,0.9801131949041303,0.03585734226700786,0.06081161318130929
0.601,0.0087,0.731,0.0075074719464308295,0.9936641915129315,0.03591694624110148,0.06384480676724807
0.602,0.0235,1.731,0.00751702004356674,1.005356578945988,0.036001062922423645,0.06646197770973239
0.603,0.0097,-1.269,0.007586278740490985,1.005356578945988,0.03661121714006921,0.06646197770973239
0.604,0.0115,-0.269,0.007716844990935631,0.9987434613051774,0.037761477712804296,0.06498172746761094
0.605,0.0002,-0.269,0.007675933575937115,0.9987434613051775,0.03740105694949574,0.06498172746761095
0.606,-0.0075,0.731,0.0076762365044386665,0.9987434613051775,0.03740372568441387,0.06498172746761095
0.607,-0.0064,0.731,0.00764521517358675,0.9970532464040793,0.037130434434406986,0.06460339743441329
0.608,-0.0003,-0.269,0.007614149865731276,0.98354894412787,0.0368567557564612,0.061580655695981076
0.609,0.0008,-2.269,0.007612165246597244,0.98354894412787,0.03683927168891695,0.061580655695981076
0.61,0.0,-1.269,0.00728961254548131,0.9818325723666509,0.03399765179511325,0.06119647082991485
0.611,0.0007,0.731,0.0072892443529356185,0.9801131949041303,0.03399440809800897,0.06081161318130929
0.612,-0.0048,-0.269,0.007286297677605674,0.9885588244966754,0.03396844852238247,0.06270204458269305
0.613,0.0003,-1.269,0.007233679269244462,0.9936641915129315,0.033504891666519196,0.06384480676724807
0.614,-0.0106,0.731,0.007190266158353636,0.9885588244966773,0.03312243150068435,0.06270204458269348
0.615,-0.0001,-0.269,0.007245128603120582,0.9868511661620109,0.03360575783443726,0.0623198100904849
0.616,-0.0067,1.731,0.0072536035389722696,1.0134735188871264,0.033680420195755414,0.06827883671115234
0.617,0.002,-0.269,0.0072105896979853595,1.0216434055728651,0.03330147751186396,0.07010754707160911
0.618,-0.0013,-1.269,0.007219940886473399,1.0232930047085507,0.033383859470366824,0.0704767858561928
0.619,-0.0039,-0.269,0.007193189880527249,1.02822592337008,0.033148188863942364,0.07158094798360344
0.62,-0.0046,-1.269,0.007149912212364744,1.0282259233700797,0.03276692191940108,0.07158094798360339
0.621,-0.0039,-0.269,0.007173102278247021,1.020108756371198,0.032971221410063256,0.06976403815860859
0.622,-0.0017,-0.269,0.0071926850361909685,1.0265842508802314,0.033143741293966085,0.07121348346345246
0.623,-0.001,-1.269,0.007085409522944317,1.026584250880232,0.03219866710452341,0.07121348346345262
0.624,0.0045,-1.269,0.007094534278592605,1.0395296411479542,0.032279054238429174,0.07411112087427053
0.625,0.0023,-0.269,0.006992570461934501,1.0379058480855874,0.03138077495302433,0.07374765840402948
0.626,0.0001,-2.269,0.007006473722112161,1.0379058480855874,0.03150325968365249,0.07374765840402948
0.627,0.0091,1.731,0.007038503800262001,1.0458849000513053,0.031785437780303925,0.07553365318677255
0.628,0.0102,-0.269,0.006969967244168035,1.0395296411479544,0.0311816454679915,0.07411112087427059
0.629,0.0138,1.731,0.00708965245262929,1.0443858725729653,0.03223604640210522,0.07519811767866875
0.63,0.0015,1.731,0.00716735811362782,1.0443858725729653,0.03292061655572866,0.07519811767866875
0.631,0.0001,0.731,0.0072308680020478685,1.0315014300330019,0.03348012500741202,0.07231412253064906
0.632,-0.0075,-0.269,0.0072409494255750335,1.023410243008668,0.033568940179486355,0.07050302794525888
0.633,0.0048,-1.269,0.006864085909891969,1.0315014300330019,0.03024885369529694,0.07231412253064906
0.634,-0.0064,-0.269,0.0070156661636019526,1.0331352890570822,0.03158424311525807,0.07267983812008032
0.635,0.0012,-0.269,0.0070097599835121215,1.0315014300330019,0.03153221093948776,0.07231412253064906
0.636,0.0078,-0.269,0.0071110527377629025,1.0298649789293715,0.03242457830947526,0.07194782674189427
0.637,0.0016,0.731,0.007077901660454888,1.0249399488850046,0.03213252445144348,0.07084543036675041
0.638,-0.0038,-0.269,0.007029435335873363,1.0330191544620375,0.031705546560283585,0.07265384307934905
0.639,-0.0063,-1.269,0.007028304694595794,1.0313851114644466,0.03169558585390606,0.07228808631012205
0.64,-0.0037,-0.269,0.0069663513063402595,1.0330191544620357,0.031149789833762997,0.07265384307934865
0.641,-0.0091,0.731,0.00696788048991578,1.0330191544620344,0.03116326161203192,0.07265384307934834
0.642,-0.0069,0.731,0.006946224642645535,1.0330191544620344,0.03097247825722695,0.07265384307934834
0.643,-0.0061,-0.269,0.006713460684518885,1.0313851114644434,0.028921877869492338,0.07228808631012136
0.644,-0.0075,-0.269,0.006704680319434785,1.024939948885001,0.028844524742355233,0.07084543036674962
0.645,-0.01,-0.269,0.006684382064240281,1.0265842508802285,0.02866570148162713,0.07121348346345181
0.646,-0.002,1.731,0.006693438053112851,1.0134735188871258,0.028745482795035235,0.06827883671115219
0.647,0.0126,-0.269,0.006712985023063078,1.0151363941955713,0.02891768739441381,0.06865104717399867
0.648,0.0029,-0.269,0.006725990944285961,1.0085874029999833,0.02903226676192903,0.06718515070436738
0.649,0.0047,-0.269,0.00689893148120319,1.0069137123683025,0.030555835680896034,0.0668105193886483
0.65,-0.0032,1.731,0.006897369676315927,1.020108756371188,0.030542076515889725,0.06976403815860635
0.651,0.0044,1.731,0.006822994096711801,1.0201087563711877,0.029886843662823945,0.0697640381586063
0.652,0.011,0.731,0.006767503316085349,1.0265842508802185,0.029397981825346583,0.07121348346344958
0.653,0.0147,0.731,0.006348232584118544,1.0151363941955607,0.025704296890374387,0.0686510471739963
0.654,0.0024,0.731,0.006381812301204339,1.0069137123682927,0.026000126972618835,0.06681051938864613
0.655,0.001,-0.269,0.006282911819949816,1.008587402999973,0.025128835012987714,0.06718515070436511
0.656,-0.0005,-0.269,0.006286781002260099,1.01025832083936,0.025162921676616993,0.06755916137084018
0.657,0.0032,-0.269,0.00627666133051329,1.0217608331503494,0.025073769545957386,0.07013383152766205
0.658,-0.0004,0.731,0.00624837188419606,1.0217608331503494,0.024824545610886886,0.07013383152766205
0.659,0.0029,-0.269,0.0062769089380274685,1.0298649789293561,0.02507595091488008,0.07194782674189085
0.66,0.0003,-0.269,0.006276604585317471,1.0053565789459789,0.02507326963299197,0.06646197770973036
0.661,-0.0004,-1.269,0.006280160845822541,1.0053565789459789,0.025104599522848096,0.06646197770973036
0.662,0.0051,1.731,0.00628160821868809,1.0169145372964707,0.025117350566365222,0.06904905865641808
0.663,0.0,-1.269,0.00626366860749892,1.0299814691705678,0.024959306451819343,0.0719739013888462
0.664,0.0095,-0.269,0.006270846575231957,1.023527467879894,0.02502254280307825,0.07052926702846286
0.665,-0.0043,-2.269,0.006192133655664293,1.0348825067801468,0.024329098918190583,0.07307092740626582
0.666,0.0084,-1.269,0.00619279667737565,1.0477253712254115,0.024334939996806568,0.07594561590225124
0.667,0.0037,0.731,0.006173562630956349,1.0477253712254115,0.02416549218640431,0.07594561590225124
0.668,-0.0038,1.731,0.006179652536539404,1.0477253712254115,0.024219142944238065,0.07594561590225124
0.669,-0.0075,-1.269,0.006182125868776926,1.0413813442631341,0.024240932469068624,0.07452559769646815
0.67,-0.0064,-0.269,0.006171286674398527,1.0493339691653745,0.024145441498842977,0.07630567716524948
0.671,-0.0053,-1.269,0.006166281883517728,1.05414503501613,0.0241013503680541,0.07738256431246958
0.672,-0.0005,0.731,0.0061829050801711525,1.05414503501613,0.02424779715379038,0.07738256431246958
0.673,0.0085,1.731,0.006181167197857274,1.05414503501613,0.024232486784541818,0.07738256431246958
0.674,-0.0002,-0.269,0.006180364933505955,1.05414503501613,0.02422541900822833,0.07738256431246958
0.675,0.0053,-0.269,0.0061654556948101905,1.0589342429319948,0.024094071823310092,0.07845455887873588
0.676,-0.0096,-1.269,0.006172839492808115,1.0589342429319948,0.024159121494914573,0.07845455887873588
0.677,-0.0074,0.731,0.006199216129264157,1.033483614540561,0.02439149398668353,0.07275780571558697
0.678,-0.0132,1.731,0.0061358977586976875,1.0221130349373744,0.023833672766081677,0.07021266677736365
0.679,-0.0114,-1.269,0.006059272527023438,1.0221130349373742,0.023158620962331306,0.0702126667773636
0.68,-0.0099,-0.269,0.005980956524274634,1.0089442033725275,0.022468673829213987,0.06726501528058305
0.681,-0.0056,-0.269,0.00601894188883396,0.9972938785453822,0.022803316717745777,0.06465725944092406
0.682,-0.0067,-1.269,0.006081298222899218,0.9956012027158055,0.023352662603771446,0.06427837856466356
0.683,-0.0154,0.731,0.0060357349390278495,0.9972938785453821,0.022951259876626495,0.06465725944092403
0.684,0.0012,-0.269,0.006017115594488515,0.9972938785453821,0.02278722745752255,0.06465725944092403
0.685,0.0131,-0.269,0.006099782170286687,0.9972938785453821,0.023515502203100596,0.06465725944092403
0.686,0.0019,-1.269,0.00611367508531837,0.9989836863127567,0.023637895795218637,0.0650354983431566
0.687,0.0036,-1.269,0.006067564592605114,1.0637018881522944,0.0232316722759185,0.07952172694907929
0.6880000000000001,0.0018,-0.268999999999889,0.006078577601077565,1.0699135741679746,0.02332869451091351,0.08091212255794468
0.6890000000000001,-0.003,0.7309999999997779,0.0061102104218408474,1.0776556643260207,0.023607372855466456,0.08264507688500082
0.6900000000000001,-0.0016,-1.2689999999998889,0.00612377241704239,1.0945174304317973,0.02372685111508432,0.08641933809073557
0.6910000000000001,-0.0005,-0.269,0.006123612695702018,1.0960573574653643,0.023725444004442573,0.08676402836967752
0.6920000000000001,-0.0017,-0.268999999999889,0.00608022803674801,1.0960573574653643,0.023343234494049146,0.08676402836967752
0.6930000000000001,-0.0005999999999999334,0.731,0.006051006048469345,1.0945174304317973,0.023085795064951613,0.08641933809073557
0.6940000000000001,-4.884981308350684e-16,0.730999999999889,0.006068922985852652,1.0945174304317973,0.023243639428146518,0.08641933809073557
0.6950000000000001,-0.004400000000000245,-0.268999999999889,0.006052183877536671,1.0945174304317973,0.0230961714856036,0.08641933809073557
0.6960000000000001,-0.006599999999998756,0.731,0.006019696680384117,1.1066684490798906,0.02280996626889565,0.08913916696310659
0.6970000000000001,0.004600000000001244,0.730999999999889,0.006309615045709787,1.1066684490798906,0.02536408468625271,0.08913916696310659
0.6980000000000001,0.015799999999998836,-0.268999999999778,0.00619500135957074,1.1081914913605064,0.024354362772568194,0.08948007783557164
0.6990000000000001,0.005299999999999267,1.730999999999667,0.006216459450509781,1.1081914913605064,0.0245434039366461,0.08948007783557164
0.7000000000000001,-0.0012999999999998779,-1.269,0.006259705292694063,1.1097124433197803,0.02492439050116717,0.08982052081999348
0.7010000000000001,-0.00020000000000012214,-1.2689999999997779,0.00628127192199643,1.0975951239819217,0.025114387864871992,0.08710823504829657
0.7020000000000001,-0.0012999999999985567,0.730999999999889,0.006320841254660571,1.0853425291211176,0.02546298517158791,0.08436566981742938
0.7030000000000001,0.01169999999999899,-0.268999999999889,0.00626712950648079,1.0853425291211176,0.02498979622717482,0.08436566981742938
0.7040000000000001,0.002599999999999467,0.731,0.006097387357461799,1.0960573574653643,0.02349440441740048,0.08676402836967752
0.7050000000000001,-0.0022000000000004885,0.731,0.0061292981567446616,1.0945174304317973,0.023775531692898838,0.08641933809073557
0.7060000000000001,-0.006599999999999001,1.731,0.006182943683629455,1.1020866935881637,0.024248137241951795,0.08811360760603172
0.7070000000000001,0.0024000000000003996,0.731,0.006194935792044885,1.1096043235537423,0.02435378513677345,0.08979631978221544
0.7080000000000001,0.0059999999999993895,-1.269,0.006186800148237977,1.1096043235537423,0.024282111865364997,0.08979631978221544
0.7090000000000001,0.0004999999999997114,0.731,0.00647439891458586,1.1155604439828852,0.02681579511483129,0.09112951074995738
0.7100000000000001,-0.002099999999999933,-1.269,0.006563988667266787,1.1155604439828852,0.027605061559100103,0.09112951074995738
0.7110000000000001,-0.0014999999999999224,1.731,0.006577909229799716,1.1274847027118187,0.027727698719755268,0.09379858271106942
0.7120000000000001,-0.0008000000000002443,1.731,0.006612970713463048,1.1200870859821976,0.028036582846719026,0.09214273375299746
0.7130000000000001,-0.003000000000000089,0.731,0.0067129397882992395,1.1096043235537423,0.02891728888587747,0.08979631978221544
0.7140000000000001,-0.003799999999999678,1.731,0.006799471711121478,1.1096043235537423,0.029679616507038455,0.08979631978221544
0.715,-0.0009,1.731,0.006759764265924159,1.1215919068533904,0.02932980245862264,0.09247956602786676
0.716,-0.0046,1.731,0.006787699083023866,1.1051433078356658,0.02957590218659163,0.08879778626815249
0.717,0.0034,-0.269,0.006776069892556721,1.099130739049647,0.02947345152080603,0.0874519601563724
0.718,0.0022,0.731,0.0068281160856853845,1.099130739049647,0.02993196728359297,0.0874519601563724
0.719,0.0014,-1.269,0.006825999087367585,1.088446165958101,0.029913316983923497,0.0850603738025892
0.72,0.0039,1.731,0.0068290642865362836,1.0930850983311817,0.029940320729066883,0.08609873137331528
0.721,0.006,-0.269,0.006804295771441904,1.1006642116734586,0.02972211544047788,0.08779520570952508
0.722,0.0009,-0.269,0.006785437558542489,1.0930850983311817,0.02955597864251846,0.08609873137331528
0.723,0.0002,-1.269,0.0068289432681945,1.0930850983311817,0.029939254583515047,0.08609873137331528
0.724,-0.0013,1.731,0.006777922695504706,1.0807813754519566,0.02948977431611383,0.08334472187882574
0.725,0.0038,-0.269,0.006778083458498939,1.0930850983311817,0.029491190603501964,0.08609873137331528
0.726,-0.0057,-0.269,0.006784792103865267,1.1006642116734586,0.029550292325693336,0.08779520570952508
0.727,-0.0021,0.731,0.006955615104155355,1.0930850983311817,0.03105520620260141,0.08609873137331528
0.728,-0.0032,-0.269,0.006915997781115019,1.0915409780941603,0.030706186110997204,0.08575310250674101
0.729,0.0098,-0.269,0.006823445752042217,1.0915409780941603,0.029890822649103126,0.08575310250674101
0.73,-0.0069,0.731,0.006741130103064018,1.0854530655577064,0.029165639493300817,0.08439041179177655
0.731,0.0087,-0.269,0.0066725766310826015,1.0854530655577064,0.028561698155659714,0.08439041179177655
0.732,-0.0011,0.731,0.006820748978676986,1.0870058338682251,0.029867064656014845,0.08473797640387715
0.733,0.0007,-1.269,0.006798902592195122,1.0793308149953322,0.02967460269175345,0.08302003500891746
0.734,0.0119,-0.269,0.006643169917451964,1.0777669891324169,0.028302631335958294,0.08266999532446803
0.735,0.0043,0.731,0.006746342940055465,1.0777669891324169,0.02921156346555962,0.08266999532446803
0.736,-0.0021,3.731,0.006625513224524687,1.0777669891324169,0.028147079670424725,0.08266999532446803
0.737,0.004,-1.269,0.006660634420479218,1.0716008275162077,0.028456489849825774,0.08128978969058866
0.738,0.0073,-1.269,0.006659587356037808,1.0653989788822247,0.028447265437391744,0.07990159603659994
0.739,-0.0075,-2.269,0.006725863650497248,1.0669809321343195,0.029031145331040023,0.08025569327358048
0.74,0.0037,0.731,0.006749396786532318,1.0653989788822265,0.029238467195930585,0.07990159603660034
0.741,0.0055,0.731,0.006758086231141747,1.065398978882228,0.02931501933324902,0.07990159603660069
0.742,-0.0035,-0.269,0.006773439402340715,1.0731736387315711,0.029450277468000396,0.08164184061555417
0.743,0.0077,-0.269,0.0067779735163580775,1.0747441482526408,0.029490222036897006,0.08199337633971414
0.744,-0.006,-0.269,0.006800900434803052,1.0731736387315713,0.029692203255257472,0.08164184061555423
0.745,-0.0078,1.731,0.006901031776881779,1.0731736387315722,0.030574338833907932,0.08164184061555442
0.746,-0.019,1.731,0.006952300896530442,1.0808923783307156,0.03102600874653743,0.08336956825947157
0.747,0.0039,0.731,0.006995730083813141,1.0793308149953367,0.03140861054192555,0.08302003500891846
0.748,-0.0059,-0.269,0.00698115082776996,1.0793308149953373,0.03128017043317486,0.0830200350089186
0.749,-0.0087,0.731,0.006803002706473424,1.079330814995338,0.029710723816331802,0.08302003500891875
0.75,-0.0061,-0.269,0.006783846753730074,1.0746325103000154,0.029541963994411405,0.08196838780701605
0.751,-0.0083,-0.269,0.006825169753567796,1.0684482593291913,0.029906010731593474,0.08058413313408992
0.752,0.0073,0.731,0.0068260016491169225,1.0622280044950099,0.02991333955238396,0.07919181951977687
0.753,-0.0024,1.731,0.006828326033967951,1.0622280044950105,0.02993381688278822,0.07919181951977702
0.754,0.0067,-0.269,0.006741859250994337,1.0700257044569164,0.029172063129677604,0.08093722129296957
0.755,0.0082,-1.269,0.006739536423464847,1.0700257044569164,0.029151599518941015,0.08093722129296957
0.7560000000000001,0.0038999999999992005,-1.269,0.00682491478489554,1.0700257044569164,0.029903764512452004,0.08093722129296957
0.757,0.0003,-0.269,0.006810354016428534,1.057453714130625,0.029775487275269477,0.07812316403053736
0.7580000000000001,0.019099999999998243,-1.269,0.006816696541808315,1.057453714130625,0.029831363559156686,0.07812316403053736
0.759,0.0112,-0.269,0.006791575235143553,1.049562615027606,0.02961005025274208,0.07635685621744716
0.7600000000000001,0.004299999999997535,1.731,0.006905717246406247,1.049562615027606,0.030615616812255275,0.07635685621744716
0.761,-0.0068,-0.269,0.006968740045796297,1.0543726375757225,0.031170834114390332,0.07743350983653904
0.7620000000000001,-0.012599999999999601,0.731,0.00699911209936048,1.0543726375757225,0.03143840537119601,0.07743350983653904
0.763,-0.0108,-1.269,0.007010561666405513,1.0432297606632266,0.03153927359328201,0.07493933883527584
0.7640000000000001,-0.006000000000000333,1.731,0.007032241211033656,1.043229760663226,0.03173026571671115,0.07493933883527569
0.765,-0.0075,-1.269,0.007021927427743044,1.0303308608711976,0.03163940350511724,0.0720521076415614
0.7660000000000001,0.0074000000000004,0.731,0.007085133420785531,1.0511684014459808,0.03219623470391286,0.07671628816221189
0.767,0.0092,0.731,0.007081900576137459,1.0383681223576888,0.03216775403816815,0.07385113177927717
0.7680000000000001,-0.003399999999997513,0.731,0.007095825125142869,1.0383681223576882,0.0322904263187881,0.07385113177927702
0.769,0.0078,1.731,0.007104219305951972,1.0495626150275934,0.03236437724555699,0.07635685621744431
0.7700000000000001,-0.002699999999999756,-1.269,0.007222419198968792,1.0432297606632146,0.03340569287019763,0.07493933883527315
0.771,-0.0016,-0.269,0.007212305808992963,1.0432297606632128,0.03331659608058873,0.07493933883527276
0.7720000000000001,-0.007699999999998645,0.731,0.007188236945411125,1.044845279870832,0.03310455457128258,0.0753009493234142
0.773,-0.0016,-0.269,0.007210946892221135,1.0464583050476914,0.03330462431622436,0.07566200155902836
0.7740000000000001,-0.0004999999999985345,1.731,0.007213202047405493,1.04645830504769,0.03332449174816127,0.07566200155902807
0.775,0.0061,-1.269,0.007350727437109827,1.0335996969491708,0.03453606084038996,0.07278378907514346
0.7760000000000001,0.018099999999995984,-0.269,0.007450238625865193,1.0352302443748198,0.035412733001698775,0.07314876341141004
0.777,-0.0,-0.269,0.007446571251842581,1.0352302443748198,0.035380424225661185,0.07314876341141004
0.7780000000000001,0.006899999999997513,1.731,0.007578055292028975,1.0335996969491694,0.03653877032854206,0.07278378907514317
0.779,-0.0043,0.731,0.0076145858265560425,1.0352302443748178,0.036860596477522566,0.07314876341140958
0.7799999999999999,-0.0025,-0.269,0.00760742662833294,1.0432297606632057,0.03679752548160757,0.07493933883527117
0.781,-0.0152,0.731,0.007580806662059169,1.041611735820251,0.03656300930650122,0.07457716749708691
0.7819999999999999,-0.0039,-0.269,0.007709791903495913,1.0416117358202508,0.03769934153005927,0.07457716749708686
0.783,-0.0053,-0.269,0.007728489276964117,1.0416117358202506,0.037864061367237224,0.07457716749708682
0.7839999999999999,-0.0118,-0.269,0.007732512156123731,1.035230244374816,0.03789950206703846,0.07314876341140919
0.785,-0.0031,-0.269,0.00780605921200742,1.0480688477090652,0.038547435804399,0.07602249811964197
0.7859999999999999,0.0071,0.731,0.007804469214847674,1.0591608163414754,0.03853342827153819,0.07850527404251464
0.787,0.0034,0.731,0.007803653552772306,0.9941470381857045,0.038526242464158596,0.06395288497530369
0.7879999999999999,0.0096,0.731,0.007801712280682239,0.9941470381857045,0.03850914027474478,0.06395288497530369
0.789,0.0064,-0.269,0.007820885487174037,0.9941470381857046,0.03867805209847655,0.06395288497530371
0.7899999999999999,0.0038,-1.269,0.007797212984610893,0.9687354177164206,0.038469502444460874,0.05826486316842925
0.791,0.0046,-1.269,0.007794318536803557,0.9807250556976408,0.03844400298207086,0.06094856932467944
0.7919999999999999,-0.003,0.731,0.007775203968649271,0.992569876738194,0.03827560774947548,0.06359986031411591
0.793,-0.0056,-0.269,0.007773105208379343,0.9925698767381941,0.038257118123083515,0.06359986031411592
0.7939999999999999,-0.0117,0.731,0.0077480068721802195,0.994267713215614,0.03803600718152867,0.06397989632637043
0.795,-0.0095,-1.269,0.007794509196782466,0.9942677132156141,0.03844568265546112,0.06397989632637045
0.7959999999999999,-0.0102,-0.269,0.007765117041289024,0.9807250556976409,0.03818674408981594,0.060948569324679465
0.797,-0.0008,0.731,0.007531711306098402,0.9687354177164205,0.03613048978423764,0.05826486316842923
0.7979999999999999,-0.0019,-0.269,0.007560106824007986,0.9687354177164205,0.036380648187213566,0.05826486316842923
0.799,0.0014,-1.269,0.007561697432444532,0.9704749532435861,0.03639466110529146,0.05865423290674682
0.7999999999999999,-0.0076,0.731,0.007512800524378799,0.9824433623410938,0.035963889866283495,0.06133318728600432
0.801,0.0011,0.731,0.00750514563691098,0.9824433623410938,0.03589645195477903,0.06133318728600432
0.8019999999999999,-0.0022,0.731,0.007467708390110732,0.9824433623410938,0.0355666378657673,0.06133318728600432
0.803,0.0044,-1.269,0.0074470021327576585,0.9891654611530912,0.035384220193811225,0.06283783137892328
0.8039999999999999,0.0019,0.731,0.007462749748362787,0.9755519765078341,0.03552295329890905,0.059790650754477453
0.805,0.011,0.731,0.007433565477905426,0.9772793787874964,0.03526584615570154,0.06017730464173506
0.8059999999999999,0.0049,-0.269,0.007389145591943253,0.9704749532435861,0.034874516518113935,0.05865423290674682
0.807,0.0038,0.731,0.0074396500075610585,0.9704749532435861,0.035319449552771436,0.05865423290674682
0.8079999999999999,0.0013,-0.269,0.007693113175781516,0.97221137630048,0.03755240552762434,0.059042905963843303
0.809,-0.0125,0.731,0.007467301851007772,0.9774021363864889,0.03556305634374444,0.060204782145614553
0.8099999999999999,0.0096,1.731,0.00741147349489815,0.9858709909911842,0.035071220538895796,0.06210041212832197
0.811,0.0067,1.731,0.007445326183388859,0.9858709909911842,0.03536945544048281,0.06210041212832197
0.8119999999999999,0.0041,0.731,0.007446002982900749,0.9858709909911842,0.03537541789855695,0.06210041212832197
0.8130000000000001,0.0063,0.730999999999889,0.007347283940150385,0.9858709909911842,0.034505724373107706,0.06210041212832197
0.814,-0.0002,-0.26899999999966695,0.0073190113081034085,0.977402136386489,0.034256648568140244,0.060204782145614574
0.8150000000000001,0.0095,2.730999999999667,0.007354755285418373,0.9722113763004802,0.03457154531732407,0.05904290596384333
0.816,0.0041,-0.269,0.007320944611691149,0.9636224808206826,0.03427368055676313,0.05712040657640342
0.8170000000000001,0.0056,-0.268999999999778,0.007294486190794631,0.9704749532435861,0.03404058756167097,0.05865423290674682
0.818,0.0041,1.730999999999889,0.007364702249623265,0.9824433623410938,0.03465917593170052,0.06133318728600432
0.8190000000000001,0.0131,0.731000000000111,0.007518027870714387,0.9807250556976409,0.03600994166274223,0.060948569324679465
0.82,-0.0007,1.730999999999889,0.007489871045605212,0.9669927529217965,0.03576188609197885,0.05787479298908452
0.8210000000000001,0.0011,0.731,0.007490519870867716,0.9669927529217965,0.035767602102935066,0.05787479298908452
0.822,0.0058,0.7309999999997779,0.0074891221130014025,0.9669927529217966,0.035755288156885646,0.057874792989084545
0.8230000000000001,-0.0018,-1.2689999999998889,0.007480388500006485,0.9669927529217965,0.03567834690559468,0.05787479298908452
0.824,-0.0142,-0.268999999999889,0.007500439716060962,0.9755519765078341,0.03585499380465407,0.059790650754477453
0.8250000000000001,-0.0127,0.730999999999889,0.007504723609711411,0.9617458126753013,0.03589273398595759,0.056700341695137865
0.826,-0.0052,-0.269,0.007507441694564937,0.9530626073524282,0.0359166797286722,0.05475673242040583
0.8270000000000001,-0.0142,-0.268999999999889,0.007305659896282399,0.9530626073524283,0.03413902550279407,0.05475673242040586
0.828,-0.0081,0.7309999999997779,0.007338992852580994,0.9530626073524283,0.03443268167559832,0.05475673242040586
0.8290000000000001,-0.0092,-1.2689999999998889,0.007355731991775282,0.9389258132906683,0.03458014989017246,0.0515924165909695
0.83,-0.0027,-0.269,0.007354438973771522,0.9371277167646948,0.03456875867977547,0.05118993882443095
0.8310000000000001,-0.0165,-0.268999999999889,0.007350304726848935,0.9371277167646948,0.03453233685394523,0.05118993882443095
0.832,0.0055,0.731,0.007270508236392379,0.9495165521798674,0.033829346942676225,0.05396299952272282
0.8330000000000001,0.0026,0.731,0.007284612067835646,0.9634979675813585,0.03395359866299785,0.05709253609795928
0.834,0.016,1.731,0.0072838895203142595,0.9634979675813585,0.03394723317480356,0.05709253609795928
0.8350000000000001,0.004,1.731,0.0073405426243738055,0.9634979675813585,0.03444633483163164,0.05709253609795928
0.836,0.0018,-0.269,0.007356940923882779,0.9720879632000777,0.034590800321915985,0.05901528173550293
0.8370000000000001,0.0036,-1.269,0.0073354204593049565,0.9703513192980895,0.034401209659501227,0.05862655924544274
0.838,-0.0091,-1.269,0.007388753670091662,0.9686115617359777,0.03487106377093047,0.058237139807830414
0.8390000000000001,-0.0044,0.731,0.00733768592313075,0.9668686737058332,0.034421167908351084,0.057847019660459825
0.84,-0.003,1.731,0.007331155855948998,0.9940263485058185,0.03436363942154151,0.06392587034505269
0.8410000000000001,0.0006,1.731,0.007367293828115054,0.9873373446769229,0.03468200718058837,0.06242863408296489
0.842,-0.003,-0.269,0.00740181649299498,0.9924489952629685,0.0349861444300069,0.06357280275326649
0.8430000000000001,0.0045,0.731,0.007400655923080963,0.9924489952629685,0.034975920058781945,0.06357280275326649
0.844,-0.0104,-0.269,0.007428282082588934,0.9924489952629685,0.03521930057978098,0.06357280275326649
0.8450000000000001,-0.0039,-0.269,0.007341537637203517,0.9907480420689928,0.03445510068056645,0.06319206910932194
0.846,-0.0021,0.731,0.00728159420667022,0.9840367541577951,0.03392701195547767,0.06168984487937771
0.8470000000000001,-0.0076,0.731,0.007233821776761702,0.9924489952629686,0.033506147127083025,0.06357280275326652
0.848,-0.0061,0.731,0.007240381212990741,1.0041555325413534,0.03356393434887992,0.06619314093291656
0.8490000000000001,0.0015,1.731,0.0074043393807360115,1.0124006164550057,0.03500837052816061,0.06803868309962142
0.85,0.0051,-0.269,0.0074103332857281086,1.0041555325413531,0.03506117554144428,0.0661931409329165
0.8510000000000001,-0.0036,-0.269,0.007379971681317459,1.0286925476198463,0.03479369633943292,0.07168539503811126
0.852,-0.0047,-1.269,0.007448150287481426,1.0286925476198463,0.035394335189881436,0.07168539503811126
0.8530000000000001,-0.0054,-0.269,0.007444927161857365,1.035114344823191,0.035365940146647026,0.07312282098173033
0.854,-0.0011,0.731,0.00743347879878864,1.0270516209975409,0.03526508253133323,0.07131809746956635
0.8550000000000001,0.0011,0.731,0.007438027643294029,1.0270516209975409,0.035305156872659824,0.07131809746956635
0.856,0.0095,-1.269,0.007393429980197041,1.025408068457989,0.03491226105676644,0.07095021212762151
0.8570000000000001,0.0196,0.731,0.00750682541077793,1.0334836145405548,0.035911250401113225,0.07275780571558559
0.858,0.0047,1.731,0.00750208094662706,1.0318503070643907,0.03586945269280104,0.07239221358213695
0.8590000000000001,0.0065,-1.269,0.007517051116092955,1.0318503070643907,0.03600133666469379,0.07239221358213695
0.86,0.0083,1.731,0.007414088194289314,1.0302144101370085,0.03509425547793224,0.07202604183767869
0.8610000000000001,0.0069,-0.269,0.007357125886729687,1.0171504707682528,0.03459242980479915,0.06910186893406607
0.862,-0.0036,0.731,0.007326855028764266,1.0039165450943681,0.03432575005944452,0.06613964706731816
0.8630000000000001,0.0087,-0.269,0.00731814592239745,1.0022350543556533,0.034249024706274084,0.06576326981103778
0.864,-0.0094,-1.269,0.007296040802460777,1.0088252839364282,0.03405428335594699,0.06723839689366783
0.8650000000000001,-0.0026,-0.269,0.00729624560397113,1.0170325108739073,0.034056087613186466,0.06907546532662259
0.866,0.004,-1.269,0.007235452132378374,0.9903846862884998,0.033520510209265504,0.06311073720033974
0.8670000000000001,0.0137,1.731,0.0072240652827621115,0.9920862624639569,0.03342019451423218,0.06349161028963198
0.868,0.0155,-0.269,0.00725374888859981,1.0185717949657935,0.03368170069469946,0.0694200116924164
0.8690000000000001,0.0043,-0.269,0.00728109465434818,1.0053565789459857,0.033922611007008184,0.0664619777097319
0.87,0.0029,-1.269,0.007214123349258114,1.0036775007416683,0.033332608219248154,0.06608614046420284
0.8710000000000001,-0.0007,-0.269,0.007395924520541571,0.9902635380671044,0.03493423742045643,0.06308361993223817
0.872,-0.0068,0.731,0.007402544335626947,0.9885588244966744,0.03499255656698606,0.06270204458269282
0.8730000000000001,-0.0057,-1.269,0.007397583661213022,0.9952396187955861,0.03494885409277789,0.06419744326084421
0.874,0.0026,-0.269,0.007424871237326113,0.9952396187955876,0.03518925176692037,0.06419744326084456
0.8750000000000001,-0.0064,-0.269,0.00729791944377363,1.0298649789293675,0.03407083378168969,0.07194782674189339
0.876,-0.0053,-0.269,0.007300963013278899,1.0282259233700806,0.034097646974152275,0.07158094798360358
0.8770000000000001,0.007,-0.269,0.007284055419941463,1.0282259233700806,0.033948694714822925,0.07158094798360358
0.878,0.0085,-0.269,0.007168252924071113,1.0538035390054397,0.03292849964319947,0.07730612539515945
0.8790000000000001,0.0041,-0.269,0.007138258884733003,1.0538035390054412,0.03266425861038893,0.0773061253951598
0.88,0.0005,-0.269,0.007079386776411127,1.058594291891466,0.03214560800346848,0.07837846578053559
0.8810000000000001,-0.01069999999999629,1.731,0.007103864098955121,1.058594291891466,0.03236124794834391,0.07837846578053559
0.882,0.006,1.731,0.0069201945388088415,1.0664185620525657,0.030743158643271717,0.08012981490653906
0.8830000000000001,-0.005200000000002153,-0.269,0.006912511084371034,1.0648357733262575,0.03067546906290835,0.07977553066080202
0.884,-0.0149,-0.269,0.006908374081284346,1.0632506284128853,0.03063902295586541,0.07942071901684507
0.8850000000000001,-0.0057999999999996665,-1.269,0.006731102442054618,1.0505975671733347,0.029077297957440015,0.07658851520909202
0.886,-0.0043,-0.269,0.006749570775413816,1.050597567173335,0.02924000000053974,0.07658851520909206
0.8870000000000001,0.009499999999998801,-0.269,0.006752552683237855,1.0584809506153603,0.029266269966858306,0.07835309598363943
0.888,0.0041,-0.269,0.00677226358041757,1.0584809506153603,0.02943991872985677,0.07835309598363943
0.8890000000000001,0.0055999999999969356,-2.269,0.0067306815285439695,1.0522017741314944,0.029073589799978334,0.07694759361464987
0.89,-0.0082,0.731,0.006742827643394498,1.0632506284128829,0.029180594458355944,0.07942071901684451
0.8910000000000001,0.008499999999997513,1.731,0.006737960272346844,1.050597567173332,0.02913771396672873,0.07658851520909142
0.892,-0.0027,0.731,0.006748486627318667,1.0377902473431995,0.02923044888909548,0.07372178285845425
0.8930000000000001,-0.00849999999999878,-0.269,0.006768520133713913,1.0457701813236597,0.029406939769867593,0.07550797506737462
0.894,-0.003,-0.269,0.0067538079769129435,1.045770181323659,0.029277328834036772,0.07550797506737447
0.8950000000000001,0.0016999999999983125,0.731,0.006698963601243445,1.0457701813236586,0.028794161685144492,0.07550797506737437
0.896,-0.0059,-1.269,0.006697679022810229,1.047381782102711,0.028782844825548062,0.07586870847224739
0.8970000000000001,0.0031999999999958255,1.731,0.006719537363314182,1.0473817821027103,0.028975412102171926,0.07586870847224723
0.898,-0.0156,-1.269,0.006711966726227411,1.0457701813236582,0.02890871641839651,0.07550797506737428
0.8990000000000001,0.003299999999998468,-0.269,0.006731931342009661,1.0520877441904968,0.02908460038769118,0.07692206967012949
0.9,-0.0036,-2.269,0.006736056408779713,1.0392987880325764,0.029120941338352867,0.07405944776054521
0.9010000000000001,-0.010099999999997824,0.731,0.006755161050137001,1.0392987880325766,0.02928924911800263,0.07405944776054525
0.902,-0.0003,-1.269,0.006772897212133184,1.0472672273450778,0.02944550088893405,0.07584306705515295
0.9030000000000001,0.0014999999999989564,-0.269,0.006775798283964311,1.0392987880325752,0.02947105870754838,0.07405944776054496
0.904,-0.0032,0.731,0.006786439390544233,1.0392987880325757,0.02956480456689161,0.07405944776054506
0.9050000000000001,0.007400000000001444,-0.269,0.006807886803473227,1.0456554500102384,0.029753751659998565,0.07548229413083378
0.906,0.0139,-1.269,0.006867752111836651,1.0519737018890944,0.030281152145580154,0.0768965429589122
0.9070000000000001,0.0026999999999983127,-0.269,0.006878163032969566,1.0440411844372701,0.030372870120663798,0.07512096425058357
0.908,-0.0049,-0.269,0.0066038311604894534,1.04404118443727,0.027956065351561216,0.07512096425058351
0.9089999999999999,0.0017,-0.269,0.006663959672878159,1.0327868460947027,0.028485784607972454,0.07260184422862967
0.91,0.0028,-0.269,0.0066826498585235185,1.0247058089037928,0.02865044112197774,0.07079302153589274
0.9109999999999999,-0.0005,-0.269,0.0066617573800891675,1.011570731155914,0.02846638288236443,0.06785292534032605
0.912,0.002,-0.269,0.006794019472545841,1.0197558623496004,0.0296315834583345,0.06968504796226165
0.9129999999999999,0.0027,-1.269,0.00678441415144853,1.018100532099578,0.02954696264622516,0.06931452635105283
0.914,0.0006,-1.269,0.006858502706974346,1.018100532099578,0.030199666878919427,0.06931452635105283
0.9149999999999999,0.0013,-1.269,0.00688346862166144,1.0099019847472215,0.030419611215446174,0.0674794007170436
0.916,0.0005,0.731,0.006893782486128897,1.0099019847472215,0.030510474142190616,0.0674794007170436
0.9169999999999999,-0.0086,-2.269,0.0068878845941707095,1.001636333272366,0.03045851498307675,0.06562925480077543
0.918,-0.0075,-0.269,0.006751252579423502,0.9899000044430637,0.029254816331994626,0.0630022482155633
0.9189999999999999,-0.0086,-0.269,0.006575929432701507,0.9899000044430637,0.02771025713330907,0.0630022482155633
0.92,-0.0163,-0.269,0.006596945280661613,0.9916024123262864,0.027895402231899104,0.06338330747054748
0.9209999999999999,-0.0033,-0.269,0.006598326131065694,0.9916024123262864,0.027907567226844204,0.06338330747054748
0.922,-0.0051,-1.269,0.00660481761521881,1.0049985048750951,0.02796475580547333,0.06638182803465847
0.9229999999999999,-0.0066,-1.269,0.006581829195469833,1.0049985048750951,0.027762232773857722,0.06638182803465847
0.924,0.0039,2.731,0.006561700077866129,1.004998504875095,0.027584899578911568,0.06638182803465843
0.9249999999999999,0.0129,-0.269,0.006556599363573151,1.0132367292327313,0.027539963383501058,0.06822583478947365
0.926,0.0016,-0.269,0.0065614007191735525,1.014899992512157,0.027582262293242392,0.06859813209398367
0.9269999999999999,0.0059,-2.269,0.00655155014569746,1.0165605344179505,0.027495480860446456,0.06896982025856961
0.928,0.0048,0.731,0.006514303800303621,1.0165605344179505,0.027167348571749312,0.06896982025856961
0.9289999999999999,0.0011,1.731,0.006487650843776704,1.0182183682644124,0.02693254175961119,0.06934090226344403
0.93,0.0065,-0.269,0.006479261665275242,1.0182183682644121,0.026858634902096282,0.06934090226344398
0.9309999999999999,0.0039,-1.269,0.0066007116793960815,1.0198735072576282,0.027928583394341195,0.0697113810645972
0.932,-0.0044,-0.269,0.006614167079248989,1.00834946594474,0.0280471225718735,0.0671318919536898
0.9329999999999999,0.001,-0.269,0.006608410797975304,0.9949984898486913,0.02799641097242001,0.06414347005162428
0.934,-0.0037,-0.269,0.006590891242008059,1.003318827425382,0.027842067453996838,0.06600585665675945
0.9349999999999999,0.0064,1.731,0.006420221957491395,1.011570731155914,0.02633850777997791,0.06785292534032605
0.936,0.0027,-1.269,0.006404622928360455,1.003318827425382,0.02620108368974662,0.06600585665675945
0.9369999999999999,0.0063,-1.269,0.006436465927411129,1.011570731155914,0.026481613659787847,0.06785292534032605
0.9380000000000001,0.0052,0.731000000000111,0.006376264837880797,1.0132367292327313,0.02595125501437516,0.06822583478947365
0.939,0.006,1.730999999999778,0.006377756172721865,1.014899992512157,0.025964393353437393,0.06859813209398367
0.9400000000000001,0.0016,-0.269,0.0063788761487638,0.9883160655736819,0.02597426010138381,0.06264770652702008
0.941,-0.0038,-0.26900000000011104,0.006359980234539663,0.9883160655736819,0.025807791162865707,0.06264770652702008
0.9420000000000001,-0.006,-1.2689999999997779,0.0063244067650070155,0.9883160655736819,0.025494396550556266,0.06264770652702008
0.943,0.0005,0.730999999999889,0.006446667631322604,0.9883160655736819,0.026571488476167457,0.06264770652702008
0.9440000000000001,0.0059,-0.268999999999889,0.006401419536246374,0.9883160655736819,0.02617286249448912,0.06264770652702008
0.945,0.0037,0.731,0.006412969962248786,0.9900211971498264,0.02627461926228802,0.06302937544106763
0.9460000000000001,-0.0058,0.730999999999889,0.006462814052744866,0.9900211971498264,0.02671373497470397,0.06302937544106763
0.947,-0.0069,-0.26900000000011104,0.0064967725173984674,0.9833049483633454,0.02701290174152643,0.06152604079131262
0.9480000000000001,-0.008,-1.2689999999998889,0.0065067786130979495,0.9696091845717919,0.027101053291647016,0.058460443176145946
0.949,0.0028,-0.269,0.006351203728089165,0.9609970323267957,0.02573047202946038,0.05653273809992412
0.9500000000000001,0.0072,-0.26900000000011104,0.006360181095907444,0.9627505499743126,0.025809560708296913,0.05692523753260971
0.951,0.0061,-1.2689999999998889,0.006419301892425355,0.9435369345239084,0.02633040220471468,0.05262454904236175
0.9520000000000001,-0.0051,-0.269,0.006358929832584273,0.9417476421397848,0.02579853734765164,0.052224041954981336
0.953,-0.0066,-0.26900000000011104,0.006486141045977934,0.9609970323267971,0.02691924076586424,0.056532738099924436
0.9540000000000001,-0.0055,-1.269,0.006570290717269026,0.9748138010978147,0.027660581263620178,0.05962542092056882
0.955,-0.0091,-1.2689999999998889,0.0066170784526106245,0.9748138010978147,0.02807277114475505,0.05962542092056882
0.9560000000000001,-0.0102,-0.268999999999889,0.006825257933901131,0.9748138010978155,0.02990678758135657,0.059625420920568994
0.957,-0.0037,0.731,0.006745706210842281,0.9748138010978155,0.02920595401819524,0.059625420920568994
0.9580000000000001,0.0101,0.730999999999889,0.006746111906000608,0.9748138010978155,0.029209528105247472,0.059625420920568994
0.959,0.0082,-0.269,0.006728687986899661,0.9748138010978155,0.029056027127038392,0.059625420920568994
0.9600000000000001,0.0064,-0.269,0.0067385346184235095,0.9765425091339892,0.02914277383208324,0.06001236708243856
0.961,-0.015,-1.269,0.006733689906544653,0.99014237502269,0.0291000929628576,0.06305649934621928
0.9620000000000001,-0.0001,-0.269,0.00674318168475432,0.9918443668996175,0.029183713486557596,0.06343746548424219
0.963,0.0133,-0.269,0.006741735534256005,0.9918443668996176,0.02917097321183279,0.06343746548424221
0.9640000000000001,0.0111,-0.269,0.006782698584887449,0.9851405477495951,0.0295318488739571,0.06193691302790589
0.965,0.0046,-0.269,0.0068079438198065225,0.9902635380671002,0.029754253961626804,0.06308361993223723
0.9660000000000001,0.0028,-0.269,0.006839752468524458,0.995360161363696,0.030034481312627693,0.06422442496226284
0.967,0.001,0.731,0.006860185642097725,0.995360161363696,0.030214493175242572,0.06422442496226284
0.9680000000000001,0.0025,-0.269,0.006838928628410716,0.9682398987336913,0.030027223458489676,0.058153948448020486
0.969,0.0068,0.731,0.006801722410382756,0.9682398987336914,0.0296994446832518,0.058153948448020513
0.9700000000000001,0.0032,-1.269,0.006755969889484637,0.9699803229111191,0.02929637481861893,0.05854351709778003
0.971,-0.003,1.731,0.006572085231689712,0.9699803229111192,0.027676390549544298,0.05854351709778006
0.9720000000000001,-0.004,0.731,0.006567044755298148,0.9699803229111177,0.02763198503708397,0.058543517097779704
0.973,0.0025,-1.269,0.006547238684099978,0.9751829586490707,0.02745749781146132,0.05970805147158994
0.9740000000000001,-0.0,-1.269,0.00652868691414192,0.9666204674920191,0.027294060709878526,0.05779146230792961
0.975,0.0069,0.731,0.006517497128475668,0.9385423947988484,0.027195481105842932,0.05150659393572928
0.9760000000000001,-0.0039,0.731,0.006395343015897921,0.9385423947988484,0.026119329657692137,0.05150659393572928
0.977,0.0004,-0.269,0.006398208685138117,0.9403377862075364,0.02614457558709787,0.051908466201090575
0.9780000000000001,-0.0061,0.731,0.006391344604719831,0.9115820329732024,0.026084104515543396,0.045471908891898206
0.979,-0.0024,-0.269,0.006396968095378445,0.9115820329732024,0.026133646258250407,0.045471908891898206
0.9800000000000001,-0.0126,0.731,0.006397605933559535,0.8986703942517654,0.02613926547538343,0.04258182627403486
0.981,-0.0115,0.731,0.006377275070591452,0.8986703942517654,0.02596015494718625,0.04258182627403486
0.9820000000000001,-0.0053,-0.269,0.006382845032688021,0.9042833922556703,0.026009225114779284,0.04383821427521507
0.983,-0.002,-1.269,0.00648552997477012,0.9189532655033598,0.02691385736000638,0.04712185213049478
0.9840000000000001,0.0006,-1.269,0.006614060773342634,0.9207868534651336,0.02804618603971214,0.04753227413896127
0.985,-0.0037,-0.269,0.006686792764394389,0.929771533323799,0.028686939231279237,0.049543364105681324
0.9860000000000001,-0.0077,-1.269,0.006656334092932881,0.9152750698611989,0.02841860488943553,0.04629854150975533
0.987,0.0036,0.731,0.006662411593995256,0.9080061146155838,0.028472146366111152,0.0446714915543922
0.9880000000000001,-0.0043,0.731,0.00665160246635184,0.8988038882393765,0.02837692027735131,0.042611706962420566
0.989,-0.0057,-0.269,0.00666014647160611,0.8988038882393756,0.028452191125244684,0.042611706962420365
0.9900000000000001,0.0066,0.731,0.0066346896831738535,0.8857059919517845,0.0282279222966434,0.0396799332961935
0.991,0.0052,1.731,0.006677184636844863,0.8950428921813532,0.02860229369492974,0.041769862672346135
0.9920000000000001,0.0128,0.731,0.0067611613671650665,0.8969253615431407,0.029342110619943518,0.04219122607156591
0.993,0.0038,-0.269,0.006782748391198386,0.8969253615431441,0.029532287656839736,0.042191226071566654
0.9940000000000001,0.0049,0.731,0.006804730266707962,0.8969253615431448,0.029725943250282362,0.04219122607156683
0.995,0.0082,0.731,0.006780257844224298,0.9061466651951928,0.02951034647388409,0.0442552808343892
0.9960000000000001,0.0089,0.731,0.006770985073508789,0.9061466651951928,0.02942865535908422,0.0442552808343892
0.997,-0.0048,-0.269,0.006809967994097757,0.9061466651951936,0.029772086501594998,0.04425528083438937
0.9980000000000001,-0.0066,-0.269,0.0067860792096205375,0.9061466651951933,0.029561631450453266,0.044255280834389295
0.999,-0.0047,0.731,0.006739061120400605,0.8969253615431474,0.029147412201215056,0.0421912260715674
1.0,-0.0094,-1.269,0.006735737582573692,0.8969253615431474,0.029118132548079028,0.0421912260715674
1.001,-0.005,-0.2690000000004441,0.006722241506170281,0.8969253615431471,0.028999235018889086,0.04219122607156733
1.0020000000000002,0.0128,-2.269,0.006714126268930376,0.8895064670080672,0.02892774152494509,0.040530614386081035
1.0030000000000001,0.0106,1.730999999999778,0.006704917707858771,0.8895064670080672,0.02884661608329215,0.040530614386081035
1.004,0.0085,0.731,0.006672233749862889,0.9044160577516517,0.028558677445891124,0.0438679095177941
1.005,0.0183,-0.26900000000022206,0.006707568528039076,0.9044160577516517,0.02886996923870889,0.0438679095177941
1.0060000000000002,-0.009199999999997335,-1.269,0.006654131707420286,0.9044160577516533,0.02839920234695251,0.04386790951779448
1.0070000000000001,0.0028,-0.269,0.006576543833024639,0.9044160577516538,0.02771566986795656,0.043867909517794575
1.008,-0.0008000000000007106,-0.269,0.006607472628361394,0.9172468211195804,0.02798814589998556,0.04673988936354383
1.009,-0.004,0.731000000000222,0.00669979844723744,0.9172468211195812,0.028801516498719416,0.046739889363544
1.0100000000000002,-0.0011000000000005552,1.731,0.00665226762995355,0.9190838134734558,0.028382780225560435,0.047151073395689067
1.0110000000000001,-0.0036,0.7309999999997779,0.006710437769508055,0.9280849804053383,0.02889524663868158,0.04916585375405899
1.012,-0.0014000000000014433,-0.269,0.006540467536066047,0.9209171415083136,0.027397845454216932,0.04756143722329424
1.013,-0.0079,0.731000000000222,0.006558144403857509,0.9209171415083136,0.027553574855962985,0.04756143722329424
1.0140000000000002,0.005899999999997202,1.731,0.006423285067256543,0.9299005625274728,0.02636549311792559,0.04957224541709186
1.0150000000000001,-0.0067,1.730999999999778,0.006326916956766256,0.9299005625274728,0.02551651079984217,0.04957224541709186
1.016,-0.0053000000000003105,0.731,0.006311851096199896,0.931712606721538,0.025383783809944008,0.04997784516636097
1.017,-0.0067,-0.269,0.006306632512737825,0.9335211335897952,0.025337809212515452,0.05038265761338297
1.0180000000000002,0.002400000000000244,-0.269,0.006327983640786403,0.959865475394327,0.02552590805654337,0.05627945553121183
1.0190000000000001,0.0035,0.7309999999997779,0.0063244046498162195,0.9872158224948135,0.025494377916180474,0.062401433109194146
1.02,0.004599999999999445,-0.269,0.006327990881767452,0.9939056441706351,0.025525971848028385,0.06389885243442643
1.021,0.0021,-0.2689999999995559,0.006550180247992854,0.9855058370447017,0.027483412356427057,0.06201867772602483
1.0220000000000002,-0.0004000000000008882,1.731,0.006594591411624735,0.9735750764652129,0.02787466515216156,0.05934815042019014
1.0230000000000001,-0.0044,-0.26900000000022206,0.006585759912624102,0.9855058370447017,0.027796861546222188,0.06201867772602483
1.024,-0.0006999999999992006,-1.269,0.006657914432352992,0.9855058370447017,0.028432527339688197,0.06201867772602483
1.025,0.0029,-0.269,0.006679670434537107,0.9906269382840228,0.028624193037734228,0.06316496178766817
1.0260000000000002,0.0025000000000005773,0.731,0.0066480996613792155,0.9906269382840228,0.028346061319234114,0.06316496178766817
1.0270000000000001,0.0051,-0.269,0.006651901060291621,0.9906269382840228,0.028379550825712904,0.06316496178766817
1.028,0.005499999999998468,0.731,0.006661059875854444,0.9989836863127667,0.028460238020137123,0.06503549834315883
1.029,-0.0014,0.731,0.006710716043127563,1.023644679326887,0.028897698169393863,0.07055550310684744
1.0300000000000002,-0.004000000000000155,-0.269,0.006707256115322618,1.0366267796001178,0.028867216949898123,0.07346135751870693
1.0310000000000001,-0.0047,1.731,0.006612958536791992,1.04783987589662,0.02803647557286705,0.07597124610822768
1.032,-0.012300000000000156,1.731,0.006514774199991629,1.0541450350161397,0.027171492691785693,0.07738256431247172
1.033,-0.013,0.731,0.006500059605763339,1.0541450350161397,0.027041860282744634,0.07738256431247172
1.0340000000000003,-0.01049999999999758,-1.269,0.006561941646937771,1.04783987589662,0.027587027750454792,0.07597124610822768
1.0350000000000001,0.0004,-0.269,0.006573337640795881,1.0398758247281148,0.027687424004291254,0.07418860903585847
1.036,-0.0039,0.731,0.006564362858762733,1.0526577703716642,0.02760835810566534,0.07704966174371994
1.037,-0.005,-0.269,0.0065252783589606015,1.0447304469856213,0.027264032072143198,0.07527524565150494
1.0379999999999998,0.0062,0.731,0.006551708579934601,1.0762008908789484,0.027496876631985686,0.0823194469984294
1.0390000000000001,-0.0014,0.731,0.006539246527270788,1.0762008908789484,0.027387088629452754,0.0823194469984294
1.04,0.0077,-1.269,0.0065312694629216204,1.0777669891324262,0.02731681240894577,0.08266999532447011
1.041,0.0113,0.731,0.006497970874692675,1.0777669891324262,0.027023459011440223,0.08266999532447011
1.0419999999999998,0.0081,-1.269,0.006492254093980594,1.0777669891324262,0.02697309540343521,0.08266999532447011
1.0430000000000001,0.0055,0.731,0.00650695132533984,1.0777669891324262,0.027102574849335915,0.08266999532447011
1.044,0.0012,-1.269,0.006513730800061116,1.0793308149953416,0.027162300562904175,0.08302003500891955
1.045,-0.001,0.731,0.006538379128891604,1.0793308149953416,0.02737944703636854,0.08302003500891955
1.0459999999999998,-0.0093,0.731,0.006514490248424093,1.0854530655577155,0.027168991139573,0.08439041179177859
1.0470000000000002,-0.0039,-0.269,0.006469168905213956,1.0915409780941694,0.0267697198575956,0.08575310250674305
1.048,0.0008,-0.269,0.0065017256360294625,1.0915409780941694,0.027056537650912742,0.08575310250674305
1.049,-0.0018,-0.269,0.006505631493193179,1.0930850983311908,0.027090947412109507,0.08609873137331732
1.0499999999999998,0.0058,-0.269,0.006488825571857479,1.0930850983311908,0.0269428908612389,0.08609873137331732
1.0510000000000002,-0.0051,0.731,0.0064277283635098435,1.1097124433197891,0.026404637601861885,0.08982052081999546
1.052,-0.0037,-0.269,0.0064084419937840125,1.1112313135408425,0.0262347288343874,0.09016049783758104
1.053,-0.0001,1.731,0.006336668326522691,1.087005833868233,0.025602418269213393,0.08473797640387888
1.0539999999999998,-0.0088,-1.269,0.006247641189230227,1.0870058338682365,0.02481810834546009,0.08473797640387967
1.0550000000000002,-0.0034,-1.269,0.006199692943600753,1.0870058338682362,0.024395694618393738,0.08473797640387963
1.056,0.0013,-0.269,0.005930537102100289,1.0870058338682356,0.022024489568505497,0.08473797640387948
1.057,0.0074,1.731,0.005858574160596877,1.0870058338682356,0.02139051153798444,0.08473797640387948
1.0579999999999998,0.015,0.731,0.005867089706586003,1.0870058338682356,0.021465531665875427,0.08473797640387948
1.0590000000000002,0.0019,0.731,0.00588706424700485,1.0885563872388564,0.021641503069083055,0.08508504523388481
1.06,0.0109,-1.269,0.00590380233214638,1.087005833868234,0.021788961997679216,0.08473797640387913
1.061,-0.0004,0.731,0.005993441581016321,1.0762008908789482,0.02257866449272325,0.08231944699842934
1.0619999999999998,-0.0048,-0.269,0.005995152990673058,1.0762008908789498,0.02259374164355846,0.0823194469984297
1.0630000000000002,-0.0012,-1.269,0.006408493474735636,1.0777669891324275,0.026235182370494145,0.08266999532447042
1.064,-0.0002,-0.269,0.006529095491403476,1.088556387238855,0.02729766018764007,0.08508504523388451
1.065,-0.0014,0.731,0.006550157192129389,1.0777669891324262,0.027483209239230817,0.08266999532447011
1.0659999999999998,0.0011,0.731,0.006540434338573031,1.065286361591904,0.027397552991446503,0.0798763882933964
1.0670000000000002,0.0053,-2.269,0.006567883606949636,1.065286361591904,0.027639375139639523,0.0798763882933964
1.068,0.0013,-2.269,0.006753891047729133,1.0652863615919037,0.029278060670053216,0.07987638829339636
1.069,-0.0071,-1.269,0.006862867958960613,1.073061837388127,0.030238123809655792,0.08161681551019671
1.0699999999999998,-0.0172,-0.269,0.006900688126131323,1.0838980727880825,0.030571311344739067,0.08404234926684453
1.0710000000000002,-0.0082,0.731,0.006899387616561051,1.0915409780941743,0.03055985413525305,0.08575310250674414
1.072,-0.0021,1.731,0.007004830700511193,1.0915409780941756,0.031488785016873674,0.08575310250674444
1.073,0.0101,-1.269,0.007006134275758259,1.0792196515023822,0.03150026923431261,0.08299515267711999
1.0739999999999998,0.0054,1.731,0.007004153806088557,1.086895455347012,0.03148282172265628,0.08471326977659104
1.0750000000000002,-0.0023,0.731,0.007004059116300474,1.0792196515023815,0.031481987525997485,0.08299515267711984
1.076,-0.0045,0.731,0.007001002742862738,1.0792196515023815,0.03145506153364487,0.08299515267711984
1.077,-0.0035,-1.269,0.0069971807312528035,1.0792196515023815,0.031421390433736034,0.08299515267711984
1.0779999999999998,0.0102,-2.269,0.00698422838860642,1.0807813754519713,0.03130728308195138,0.08334472187882903
1.0790000000000002,0.0011,1.731,0.007098341220583587,1.0792196515023817,0.032312592578237535,0.08299515267711989
1.08,0.0058,1.731,0.007099512677459023,1.0776556643260355,0.03232291286125006,0.08264507688500414
1.081,-0.0019,-1.269,0.007208438514428045,1.0899946704107468,0.03328252604758993,0.08540698401209307
1.0819999999999999,-0.003,-0.269,0.007210278888442747,1.085342529121122,0.03329873934666981,0.08436566981743036
1.0830000000000002,-0.0092,0.731,0.007203119077772021,1.0729500243949712,0.03323566295522304,0.08159178779722062
1.084,-0.0039,-0.269,0.007084927867866713,1.0791084765579886,0.03219442382692649,0.08297026778208336
1.085,-0.0014,1.731,0.007007375973204767,1.0791084765579833,0.03151120832164276,0.08297026778208216
1.0859999999999999,0.0029,-0.269,0.007037474122513587,1.080670361171354,0.03177636654089412,0.08331987294604298
1.0870000000000002,0.0069,2.731,0.007044446948263008,1.0867850656152516,0.031837795635417374,0.08468856063998688
1.088,-0.0015,0.731,0.00705670810843043,1.0883359335146845,0.03194581381828274,0.08503569987269416
1.089,-0.0047,0.731,0.007035162290364234,1.0883359335146816,0.03175599979709067,0.08503569987269352
1.0899999999999999,-0.0,0.731,0.0070358288606177785,1.0944078095067704,0.031761872137599796,0.08639480104034179
1.0910000000000002,-0.0044,1.731,0.007003423815850671,1.0867850656152487,0.03147639066573107,0.08468856063998623
