time_sec,bts_raw,diy_raw,bts_rms,diy_rms,bts_norm_rms,diy_norm_rms
0.0,-0.0105,0.812,0.019508298472094607,1.0423253118484783,0.022347438828090538,0.02109689424484607
0.001,-0.0302,0.812,0.019551222780616672,1.0304857902651454,0.022426101300564386,0.02020324036097798
0.002,-0.0121,-0.188,0.019558274677477037,1.0126896050043923,0.022439024505661136,0.018859974084180418
0.003,-0.0024,1.812,0.019559248373684668,1.016720512240786,0.022440808887373223,0.01916422927574038
0.004,0.006,-0.188,0.01979329262042794,1.016720512240786,0.022869715018910348,0.01916422927574038
0.005,0.0136,-0.188,0.020687017602509673,1.0207355014588153,0.024507542609448128,0.019467282966138758
0.006,0.0201,-0.188,0.02142242069622079,1.016720512240785,0.025855231776915934,0.019164229275740293
0.007,0.0133,0.812,0.021740421475305968,1.034447353839522,0.026437995446098653,0.020502261453132227
0.008,0.0034,-0.188,0.021996223782698558,1.038393803810867,0.026906775087678032,0.02080014176185589
0.009000000000000001,0.01980000000000002,-0.188,0.022072618504262925,1.020735501458812,0.027046774959291926,0.01946728296613851
0.01,0.0305,0.812,0.022096863472419723,0.9991304678533236,0.02709120594038235,0.017836522630364025
0.011,0.0204,-0.188,0.02210599030385026,0.9973075852750868,0.02710793164082803,0.01769893040719767
0.012,0.0254,0.812,0.022458791701069177,1.014929223081876,0.027754470423932764,0.019029021741996426
0.013000000000000001,0.010299999999999962,-0.188,0.023083788436060484,1.0362049025222486,0.028899830481095377,0.020634922236370035
0.014,-0.0119,1.812,0.023426963433124153,1.0322500840803686,0.029528728061270885,0.02033641027068769
0.015,-0.009,-1.188,0.023828345728766093,1.0282800553140732,0.030264295502414253,0.0200367502209892
0.016,-0.0115,0.812,0.024046961130157047,1.0322500840803686,0.030664926953132554,0.02033641027068769
0.017,-0.0094,-1.188,0.02404831486269297,1.0362049025222484,0.030667407783972016,0.020634922236370017
0.018000000000000002,-0.0028999999999999664,-0.188,0.024048813322945523,1.0497147059741314,0.03066832125508537,0.021654649954259027
0.019,0.0067,-1.188,0.024398305392930156,1.0724184481188168,0.031308795412540044,0.023368341441126192
0.02,0.0231,-1.188,0.025601070357482478,1.076225669547417,0.033512965244838454,0.023655712699539543
0.021,0.0293,-2.188,0.025973863772091575,1.076225669547417,0.034196141112425124,0.023655712699539543
0.022,0.0387,-2.188,0.025977503392283212,1.0817029758050827,0.03420281102821404,0.02406914291932043
0.023,0.0364,-1.188,0.026001428248078235,1.0817029758050827,0.03424665537597912,0.02406914291932043
0.024,0.0281,-0.188,0.02600943110093863,1.083383865493271,0.03426132128940949,0.024196017437655527
0.025,0.0052,0.812,0.026081322088899083,1.079601887773418,0.03439306768338226,0.023910551588865892
0.026000000000000002,0.0019000000000000707,0.812,0.02612587766912422,1.0796018877734181,0.034474719600994734,0.02391055158886591
0.027,0.0223,-1.188,0.026193085349694417,1.0796018877734181,0.034597883432979745,0.02391055158886591
0.028,0.0034,0.812,0.02628324664251266,1.0996269859500079,0.0347631117257285,0.025422057491734616
0.029,0.0012,-0.188,0.026396739874619542,1.0959010650155807,0.034971097795952234,0.02514082284128019
0.03,-0.0189,-1.188,0.026485388550741666,1.0975602108530789,0.03513355408902717,0.025266056121286292
0.031,-0.0589,1.812,0.026525333286227887,1.0921624331458528,0.035206756238667966,0.0248586287621344
0.032,-0.0526,-0.188,0.026576302736362613,1.0904950748304638,0.035300162122333376,0.02473277559958392
0.033,-0.0258,1.812,0.026577527636609293,1.0702991339265524,0.03530240685696639,0.023208374389609515
0.034,-0.0116,0.812,0.026580928103126584,1.0647631661600352,0.035308638503159996,0.02279051636547439
0.035,0.0101,0.812,0.026586724972135326,1.0591982646975764,0.035319261762206795,0.022370474409364408
0.036000000000000004,0.03760000000000007,-0.188,0.026591517541754588,1.0796018877734181,0.03532804455658915,0.02391055158886591
0.037,0.048,-0.188,0.026598624583803018,1.077915100524321,0.03534106881996704,0.023783231919248783
0.038,0.0314,-2.188,0.026654491038830514,1.0779151005243208,0.035443448884599944,0.023783231919248766
0.039,0.0225,-0.188,0.026718950446388726,1.0741138673395583,0.03556157627085992,0.023496312656916967
0.04,0.0191,-1.188,0.026726023601224794,1.0758066146648817,0.035574538433018214,0.023624082196508172
0.041,-0.0104,-1.188,0.02672641605788616,1.0758066146648817,0.03557525764346993,0.023624082196508172
0.042,-0.0537,-0.188,0.0267279373169202,1.0758066146648817,0.03557804548096833,0.023624082196508172
0.043000000000000003,-0.08229999999999967,0.812,0.0267537593847515,1.0741138673395583,0.03562536663231439,0.023496312656916967
0.044,-0.0341,0.812,0.02681192722499974,1.0724184481188168,0.035731964182512274,0.023368341441126192
0.045,-0.0021,-0.188,0.026813663792092247,1.0724184481188168,0.03573514659047217,0.023368341441126192
0.046,0.027,-1.188,0.026821904746592226,1.076225669547417,0.03575024884555403,0.023655712699539543
0.047,0.0423,-1.188000000000111,0.026826107515679362,1.076225669547417,0.03575795077993605,0.023655712699539543
0.048,0.0279,-2.187999999999889,0.026872293465984933,1.072418448118817,0.03584259049038643,0.02336834144112621
0.049,0.0148,-1.188,0.02688434337623016,1.076225669547417,0.03586467298316533,0.023655712699539543
0.05,-0.013,-1.187999999999889,0.026884549057418914,1.074533582372936,0.03586504991156338,0.02352799298851279
0.051000000000000004,0.005199999999999977,-0.18799999999988898,0.026868981261401838,1.076225669547417,0.035836520591748196,0.023655712699539543
0.052000000000000005,0.0018999999999997758,0.812,0.02677004487810607,1.0724184481188168,0.03565521119398202,0.023368341441126192
0.053,-0.0304,0.812,0.026759958599734724,1.0779151005243208,0.03563672722482636,0.023783231919248766
0.054,-0.0602,0.811999999999889,0.026823136584767995,1.064763166160035,0.03575250629453643,0.022790516365474373
0.055,-0.0557,-0.18799999999977796,0.0268261033836787,1.0702991339265524,0.03575794320769087,0.023208374389609515
0.056,-0.0371,1.811999999999889,0.026791356553918063,1.0702991339265524,0.03569426666557035,0.023208374389609515
0.057,-0.0335,0.811999999999889,0.026718238241422713,1.0702991339265524,0.03556027109424873,0.023208374389609515
0.058,-0.0184,-0.188,0.026779140227537235,1.0719979049557415,0.03567187920096694,0.023336598601825537
0.059000000000000004,-0.010399999999999883,-0.18799999999988898,0.02701321159796075,1.0719979049557415,0.03610083503897166,0.023336598601825537
0.06,0.0063,0.811999999999667,0.027042919987162666,1.0758066146648817,0.036155278207150754,0.023624082196508172
0.061,0.0396,-2.188,0.026923207055637638,1.0888251632305015,0.03593589400493325,0.024606729713648502
0.062,0.0533,-2.187999999999778,0.026910827240198654,1.0888251632305015,0.0359132069326255,0.024606729713648502
0.063,0.0399,-0.188,0.02679514555644903,1.0888251632305013,0.03570121033729291,0.024606729713648485
0.064,0.0435,-0.188,0.026787844615656142,1.0888251632305015,0.035687830737855496,0.024606729713648502
0.065,0.0323,0.812,0.026825853387998106,1.0774967026874303,0.035757485069190326,0.023751651010399746
0.066,0.0025,0.812,0.026852027590467436,1.0719979049557415,0.035805451537426154,0.023336598601825537
0.067,-0.0016,1.812,0.026852469818794966,1.0681756149165194,0.035806261958719804,0.023048089956034495
0.068,-0.0412,2.812,0.026878912670104473,1.0626285843273269,0.03585472074896904,0.022629396903694834
0.069,-0.0776,0.812,0.0270023701444463,1.0796018877734181,0.036080967146674255,0.02391055158886591
0.07,-0.0439,0.812,0.027150845720008535,1.0741138673395585,0.03635306135803935,0.023496312656916984
0.07100000000000001,-0.004399999999999785,-1.188,0.02724113478090694,1.1074484438202985,0.03651852379674023,0.026012425620556272
0.07200000000000001,0.011099999999999935,-1.188,0.027242178834572632,1.0913217433468667,0.03652043711452138,0.02479517301363103
0.073,0.0064,-1.188,0.027101471542047662,1.0879818947071236,0.036262578947291374,0.024543079321548096
0.074,0.0193,-0.188,0.0269708501628085,1.0825363583444747,0.0360232040801665,0.024132047111675967
0.075,0.0152,0.812,0.026824935253716736,1.0863081197638778,0.03575580250946782,0.024416741828244447
0.076,0.0187,-1.188,0.026826176971797226,1.0863081197638778,0.03575807806422199,0.024416741828244447
0.077,0.0217,-2.188,0.026894459183806067,1.0863081197638778,0.035883211067117955,0.024416741828244447
0.078,0.0244,-0.188,0.026886333000168114,1.0846317618986459,0.03586831913947259,0.02429020937450694
0.079,0.0216,-1.188,0.027028002099246492,1.0846317618986459,0.03612793989960479,0.02429020937450694
0.08,0.0145,-0.188,0.02711671020168073,1.0846317618986459,0.03629050509648743,0.02429020937450694
0.081,0.0164,0.812,0.027056222161728993,1.0846317618986459,0.03617965558157318,0.02429020937450694
0.082,0.0025,-0.188,0.026408775720380497,1.0732590400913085,0.03499315451435887,0.02343178980562962
0.083,0.0042,-0.188,0.025998779866091084,1.1168455020082562,0.03424180198911425,0.026721720965599997
0.084,0.0055,-0.188,0.025955663671750718,1.1004467944892404,0.034162787869440485,0.025483937110767935
0.085,-0.0051,-2.188,0.025934132039754813,1.1004467944892404,0.034123329309302605,0.025483937110767935
0.08600000000000001,-0.006200000000000154,0.812,0.025963284729894544,1.1004467944892404,0.03417675411134633,0.025483937110767935
0.08700000000000001,-0.017300000000000017,0.812,0.025799285832489145,1.1004467944892404,0.03387621208289963,0.025483937110767935
0.088,-0.0186,-0.188,0.025759159321270184,1.105804134363057,0.033802676813656785,0.025888312199046606
0.089,-0.0062,-1.188,0.02568883896572375,1.105804134363057,0.033673808738130785,0.025888312199046606
0.09,-0.0015,0.812,0.025597287135839714,1.109496799230013,0.03350603216708874,0.026167036662442505
0.091,0.0028,-0.188,0.02560734174189408,1.1205017801339219,0.03352445809401031,0.026997698936880764
0.092,0.0117,0.812,0.025688266449679507,1.1188766541213186,0.033672759553435176,0.026875033492781874
0.093,0.0176,0.812,0.025140721231570882,1.138210981884856,0.03266933603583754,0.028334399648436943
0.094,0.003,0.812,0.023864982853860284,1.139808541566898,0.030331436172665496,0.028454984370084615
0.095,-0.0067,0.812,0.02387072251896982,1.1362143932822029,0.030341954600666632,0.028183695994856924
0.096,-0.0048,-0.188,0.02406707415006526,1.141403865235452,0.03070178578509446,0.02857540031615096
0.097,-0.0158,-0.188,0.023914789195556688,1.155258594275418,0.030422710560480095,0.029621163215382936
0.098,-0.0081,0.812,0.02353851853506085,1.1536824292246295,0.029733162341928007,0.029502193372780743
0.099,0.001,0.812,0.023385822231858266,1.138210981884857,0.02945333328559371,0.028334399648437012
0.1,-0.0051,-1.188,0.023339199884017513,1.13300688577365,0.02936789383927615,0.027941591487307436
0.101,-0.0195,-0.188,0.02336055235252637,1.1277787757967968,0.02940702406697599,0.02754697074581721
0.10200000000000001,-0.009600000000000124,-1.188,0.023542128227840173,1.127778775796797,0.029739777413170132,0.027546970745817228
0.10300000000000001,-0.018599999999999842,0.812,0.023606658169981993,1.124146166301566,0.02985803406009691,0.02727277929634521
0.10400000000000001,-0.007299999999999896,-1.188,0.023493104086698347,1.1241461663015657,0.02964993647487894,0.027272779296345192
0.105,0.0002,-0.188,0.02289897064815402,1.125763685395865,0.02856113605235703,0.027394870565884855
0.106,0.0038,-0.188,0.02233913258538556,1.1310011102686266,0.02753518484385478,0.02779019440106411
0.107,0.0224,-1.188,0.022172890474224875,1.1200992900842437,0.0272305319340368,0.02696731875694009
0.108,0.0356,-0.188,0.022016222093931347,1.135817471192262,0.026943423706165714,0.028153736087712697
0.109,0.0235,0.812,0.021941616383723023,1.1394128715232241,0.026806702351117272,0.028425118968111184
0.11,0.0169,1.812,0.02192057803499011,1.1445878419175983,0.02676814777481589,0.028815728703418836
0.111,0.0187,-0.188,0.021923703473217575,1.144587841917601,0.026773875408108116,0.028815728703419037
0.112,-0.0052,0.812,0.02168076897639212,1.1414038652354606,0.026328677131712885,0.028575400316151616
0.113,-0.0083,-0.188,0.02131264051794613,1.1221245525470371,0.02565405019591818,0.02712018672993956
0.114,0.0185,-1.188,0.02106685966538763,1.125763685395875,0.025203635728809327,0.02739487056588561
0.115,0.0148,-0.188,0.020618971339049684,1.129391092263135,0.024382842002480448,0.027668669318012557
0.116,0.0115,-0.188,0.020364720832985836,1.129391092263135,0.023916906169770914,0.027668669318012557
0.117,-0.0152,-0.188,0.02040176905418401,1.1257636853958748,0.023984800208849223,0.027394870565885594
0.11800000000000001,-0.026000000000000044,1.812,0.020726032479755935,1.114810649202123,0.024579040714207977,0.0265681291079813
0.11900000000000001,-0.029200000000000042,-0.188,0.021151583509500572,1.0762256695474306,0.025358899431007043,0.023655712699540567
0.12,-0.0321,2.812,0.01993322972894466,1.0762256695474306,0.023126161757967487,0.023655712699540567
0.121,-0.0295,0.812,0.019555386801742774,1.0892392095954084,0.022433732225988476,0.02463798217089487
0.122,-0.0272,1.812,0.019580644738789663,1.1004467944892538,0.022480019559345886,0.02548393711076894
0.123,-0.025,-0.188,0.019573154247155264,1.1115413799239815,0.022466292591753534,0.026321362786617886
0.124,-0.0028,0.812,0.01976828848611925,1.106211825651183,0.022823892800812682,0.025919084971450346
0.125,0.0058,0.812,0.020426296971668027,1.1099031341237575,0.024029749718820607,0.026197707053419873
0.126,0.0192,0.812,0.02139185781880996,1.1225263164242316,0.02579922268589435,0.027150512097964416
0.127,0.0213,0.812,0.021859994988109963,1.1334047921403005,0.02665712415156657,0.02797162568822259
0.128,0.0278,0.812,0.021858969928226356,1.1301893109366465,0.026655245641518194,0.02772891932159073
0.129,0.0219,-0.188,0.02172451741615854,1.1338025588622846,0.02640884989529115,0.028001649348678177
0.13,0.0052,-1.188,0.021616358306317078,1.1285781348271278,0.026210639061065914,0.02760730682418257
0.131,-0.0013,-1.188,0.02158505934666312,1.144573865796484,0.02615328103627737,0.028814673777776155
0.132,0.0247,-3.188,0.021522402895380675,1.1568187836439678,0.026038457721842833,0.029738927204321218
0.133,0.0209,-0.188,0.02152968053008737,1.1619162337553823,0.026051794610880794,0.030123685664181808
0.134,0.0046,0.812,0.021529294860931393,1.1619162337553823,0.026051087839114154,0.030123685664181808
0.135,-0.016,0.812,0.021545131250940305,1.1619162337553823,0.02608010938042846,0.030123685664181808
0.136,-0.0239,-0.188,0.021571250037740755,1.146555897479898,0.026127974294703888,0.02896427866673772
0.137,-0.0459,-1.188,0.021574013498296598,1.142982966679171,0.02613303857290408,0.028694591799376765
0.138,-0.0251,-2.188,0.021505022732743656,1.155244747248792,0.026006607084940372,0.029620118033866313
0.139,-0.0063,0.812,0.021424953331835157,1.155244747248792,0.02585987304863727,0.029620118033866313
0.14,0.0204,1.812,0.02142015315034353,1.1501177287448185,0.025851076304846732,0.02923312773476594
0.14100000000000001,0.022799999999999095,0.812,0.021432971196861706,1.146555897479894,0.025874566473148133,0.02896427866673742
0.14200000000000002,-0.009800000000000357,-2.188,0.02144202380139125,1.1623042432600639,0.025891156146439102,0.03015297284427568
0.14300000000000002,-0.022700000000000328,-1.188,0.021430648840723928,1.1623042432600639,0.025870310556581216,0.03015297284427568
0.14400000000000002,-0.0344999999999999,-0.188,0.02136186484655364,1.1743643037096982,0.025744257994889275,0.031063273128340514
0.145,-0.0308,-1.188,0.021415500785216122,1.189365556103724,0.025842550447206302,0.032195576268332145
0.146,-0.0011,-2.188,0.021533263917608486,1.2011539409972123,0.02605836147548382,0.03308537032550317
0.147,0.0028,0.812,0.021672143940362116,1.2011539409972125,0.026312871014324942,0.03308537032550318
0.148,-0.0081,0.812,0.021693463016974376,1.2011539409972125,0.026351940048513756,0.03308537032550318
0.149,0.0016,-0.188,0.02167855596294737,1.2128277511255874,0.02632462159499778,0.03396651621364844
0.15,0.0163,-0.188,0.021693987312600346,1.2094506149376811,0.026352900865162086,0.033711608036030655
0.151,0.0296,-0.188,0.021969481280058156,1.2045543382929431,0.02685776716069533,0.03334203426488922
0.152,0.0175,-0.188,0.022016065827605614,1.2094506149376811,0.026943137334737268,0.033711608036030655
0.153,0.0196,0.812,0.021995763723772137,1.2094506149376811,0.02690593199028446,0.033711608036030655
0.154,0.0293,-1.188,0.021921534797518013,1.2094506149376811,0.026769901124109253,0.033711608036030655
0.155,0.0237,-1.188,0.021920248650874965,1.2094506149376811,0.026767544150208225,0.033711608036030655
0.156,0.0251,-1.188,0.021938901471970047,1.2143271495136392,0.026801727042757264,0.034079691664490507
0.157,0.0206,-2.188,0.021936886571660007,1.2176907612251704,0.026798034565332855,0.034333579006869744
0.158,0.0029,0.812,0.021824265621605332,1.2128277511255874,0.026591647026693754,0.03396651621364844
0.159,-0.0039,-1.188,0.021537501690784673,1.2176907612251704,0.026066127557857657,0.034333579006869744
0.16,0.0073,0.812,0.02141163080499995,1.2191841789158462,0.025835458376938646,0.034446303031241514
0.161,-0.0227,1.812,0.021345609726720095,1.2075718190614964,0.025714469095300875,0.03356979544504628
0.162,-0.0356,-0.188,0.021271413620370577,1.2075718190614964,0.025578498374412374,0.03356979544504628
0.163,-0.0236,0.812,0.021286622948064403,1.20417994264324,0.025606370770317046,0.033313774666382176
0.164,-0.0055,0.812,0.02136122248119687,1.2221655396916768,0.02574308080534482,0.034671337853618436
0.165,-0.0022,0.812,0.021652286793585808,1.2173204057835645,0.026276481091796602,0.03430562436558857
0.166,0.0125,-0.188,0.022612103357554293,1.2173204057835645,0.028035427167871482,0.03430562436558857
0.167,0.0365,-1.188,0.023267803262504955,1.2221655396916768,0.029237053414169004,0.034671337853618436
0.168,0.0589,-0.188,0.0235579596167433,1.2369516297189138,0.029768789789529668,0.03578740041468214
0.169,0.0317,0.812,0.023414853006758402,1.2255076378126177,0.029506534667517022,0.03492360133783317
0.17,0.0207,1.812,0.023507660941739363,1.2303205299473172,0.029676613158753327,0.035286881198302124
0.171,0.0108,1.812,0.024042417102120708,1.1954695791312315,0.030656599632492197,0.03265631142957645
0.17200000000000001,-0.009800000000000518,1.811999999999778,0.02494572125264383,1.2071983592415203,0.03231198186979745,0.033541606483504106
0.17300000000000001,-0.028500000000000737,-0.18799999999988898,0.025961035975449537,1.1920432671262355,0.0341726330761865,0.032397691433062495
0.17400000000000002,-0.05500000000000029,0.8120000000001111,0.026669140454575052,1.1920432671262355,0.03547029519389274,0.032397691433062495
0.17500000000000002,-0.06539999999999954,1.812,0.027016138372274057,1.1886070783794682,0.036106198603622665,0.03213832593441132
0.176,-0.0488,1.812,0.02710459008425771,1.1851609269827286,0.03626829394304094,0.03187820844922263
0.177,-0.0217,1.811999999999889,0.027038872955917066,1.2000272209683065,0.036147861675704614,0.03300032485109134
0.178,-0.0035,0.811999999999889,0.026966460969747624,1.2358575465465502,0.0360151605078826,0.035704818388932566
0.179,-0.0002,-0.18799999999977796,0.026926323186434137,1.2373290376862693,0.03594160458156091,0.035815887384654375
0.18,-0.0088,1.812,0.026958059976133913,1.2406302879701285,0.03599976496741509,0.03606506765068341
0.181,-0.0008,1.811999999999667,0.02696747513233981,1.250481748451567,0.03601701904771093,0.03680866154162271
0.182,0.0061,-1.187999999999889,0.026991053810831563,1.2631406252999993,0.03606022899591251,0.03776416083113241
0.183,0.004,-0.188,0.02691349335280499,1.2395265462745628,0.035918092812368914,0.035981756594059465
0.184,0.0099,-0.18799999999988898,0.026840812489441337,1.2731720821244037,0.035784898904055173,0.03852134094933956
0.185,0.0117,0.811999999999889,0.02686997392363151,1.2731720821244037,0.03583833973032039,0.03852134094933956
0.186,0.007,-0.18799999999977796,0.02686999327109501,1.2746004953892651,0.035838375186204655,0.03862915840234451
0.187,-0.0006,1.811999999999778,0.026962388245858046,1.2746004953892653,0.03600769689246541,0.03862915840234452
0.188,0.0005,-0.188,0.026569919836317655,1.2746004953892653,0.03528846491121041,0.03862915840234452
0.189,0.0041,-0.188,0.026457831905931668,1.2606139435323584,0.035083054176775263,0.03757344544123612
0.19,0.0075,-0.18799999999977796,0.026498509255009434,1.2620565703540292,0.035157598903581846,0.03768233574166627
0.191,0.0068,1.811999999999889,0.02649394597227321,1.2508422853607726,0.0351492362970545,0.036835875074443414
0.192,0.0094,0.812,0.026426464190172125,1.2475680578306523,0.03502557015053325,0.03658873450137508
0.193,0.0041,1.812,0.026425733974918198,1.229953977502319,0.03502423196852661,0.03525921360938745
0.194,0.0154,-2.188,0.026330633557581928,1.2398902687558357,0.034849952306988896,0.03600921057568802
0.195,0.0234,1.812,0.02614825195267042,1.2778054573266524,0.034515722392284204,0.0388710707687215
0.196,0.0249,-0.188,0.02603373369876685,1.2731720821244037,0.034305857881809634,0.03852134094933956
0.197,0.0184,-0.188,0.02612506912314359,1.2559171463736845,0.03447323787122121,0.037218928496185036
0.198,-0.0004,1.812,0.02615609621374222,1.2573651620356712,0.03453009767267622,0.03732822554937491
0.199,-0.0083,-0.188,0.026189924366990806,1.2588115120408458,0.03459209066139007,0.037437396877832686
0.2,-0.0351,-0.188,0.026384804892030763,1.2634975500250667,0.03494922591794905,0.03779110171422131
0.201,-0.0242,-1.188,0.02645679545582213,1.280650354727986,0.03508115479316212,0.03908580525727439
0.202,-0.0014,-1.188,0.026475204965038142,1.2852567708974352,0.03511489179584948,0.03943350019338872
0.203,-0.0043,0.812,0.026543152572116886,1.2884352257932552,0.03523941160654714,0.03967341179305569
0.20400000000000001,-0.006900000000000061,-1.188,0.026481653283060853,1.2884352257932552,0.0351267088910207,0.03967341179305569
0.20500000000000002,-0.009099999999999817,-1.188,0.026387329972540848,1.28384021396439,0.03495385334429458,0.03932657766311366
0.20600000000000002,-0.002499999999999839,0.812,0.02665344931156806,1.2933625890575986,0.035441539830152025,0.0400453320000857
0.20700000000000002,0.003300000000000053,-0.188,0.027083374462609198,1.28878514528256,0.03622941449893565,0.03969982391692889
0.20800000000000002,0.005199999999999958,-1.188,0.027021753916047504,1.2749542119161117,0.03611648956864257,0.038655857128790494
0.209,0.0037,-1.188,0.02703597584771744,1.2763806307791592,0.03614255247674828,0.038763524043201936
0.21,0.0022,0.812,0.027384942752513772,1.2717420644751116,0.036782064224007156,0.03841340239647702
0.211,0.0059,-0.188,0.027469428616093736,1.2685217832690947,0.03693689180649161,0.03817033372291206
0.212,0.0095,-0.188,0.027378606999847854,1.2573651620356712,0.03677045341449516,0.03732822554937491
0.213,0.0196,-2.188,0.02716398655247944,1.2573651620356712,0.03637714305925055,0.03732822554937491
0.214,0.0399,-0.188,0.02710134047432465,1.2541079645603783,0.036262338754461054,0.03708237041461858
0.215,0.0668,-0.188,0.027516836124131566,1.2508422853607726,0.03702377012613099,0.036835875074443414
0.216,0.056,-1.188,0.02763996179517549,1.2475680578306523,0.037249408465868904,0.03658873450137508
0.217,0.0398,1.812,0.027667812603556417,1.2475680578306523,0.03730044745806404,0.03658873450137508
0.218,0.001,0.812,0.02745090616366839,1.2428219594320662,0.036902947825697884,0.036230496270441205
0.219,-0.0359,-1.188,0.026818932637724474,1.2573651620356712,0.03574480220144842,0.03732822554937491
0.22,-0.0598,-0.188,0.026631101738388674,1.2541079645603783,0.03540058598789788,0.03708237041461858
0.221,-0.0728,1.812,0.026592758300288538,1.2428219594320662,0.03533031835289209,0.036230496270441205
0.222,-0.0769,-0.188,0.026638109130055824,1.2314325230881902,0.03541342763341553,0.0353708150787534
0.223,-0.066,-0.188,0.026664494672150534,1.2199367586035514,0.03546178139961926,0.034503108177978595
0.224,-0.0433,-0.188,0.026577829318326827,1.2232849459219852,0.03530295971455731,0.034755831278314706
0.225,-0.0227,-0.188,0.02605127474104177,1.2199367586035508,0.03433800334443029,0.034503108177978546
0.226,-0.0039,-2.188,0.02522030814537718,1.209836601864274,0.032815185873193646,0.033740742550769635
0.227,0.008,-3.188,0.024750259812054812,1.1947149766183,0.03195378203573074,0.03259935359883039
0.228,0.0236,-1.188,0.02468337666203067,1.1793994859680244,0.03183121293377226,0.03144333157491417
0.229,0.0255,0.812,0.024681659903443495,1.1809413277750989,0.03182806682659529,0.03155971067938255
0.23,0.0088,1.812,0.024684356573434915,1.1859350976002012,0.03183300870536456,0.03193664329172969
0.231,-0.0114,-2.188,0.024683322710939017,1.1739939061991695,0.03183111406377509,0.031035315311672904
0.232,-0.014,1.812,0.024724299384216337,1.161930001276145,0.03190620732781894,0.030124724844550227
0.233,-0.007,2.812,0.024778155920774272,1.156832611829732,0.03200490404467688,0.029739970963718766
0.234,0.0133,0.812,0.024790284258911603,1.156832611829732,0.032027130263286574,0.029739970963718766
0.23500000000000001,0.015900000000000466,-1.188,0.024770414709636784,1.1755428379852308,0.031990717612117255,0.03115222957182418
0.23600000000000002,0.03259999999999906,-0.188,0.024750168936067796,1.1755428379852317,0.03195361549769965,0.031152229571824244
0.23700000000000002,-0.0011000000000001306,-1.188,0.024882192386057565,1.1805594436584539,0.032195559779583285,0.031530885847093064
0.23800000000000002,-0.005799999999999398,0.812,0.02512225796434952,1.1701194418646,0.03263550051700021,0.03074286852012596
0.23900000000000002,0.01590000000000011,-1.188,0.025332210488205015,1.175159199556515,0.03302025650253014,0.03112327232305277
0.24,0.0198,0.812,0.025418643725159742,1.1801774359710042,0.03317865281354542,0.03150205168760832
0.241,-0.0129,-0.188,0.025456203882219933,1.1801774359710044,0.03324748501894581,0.03150205168760834
0.242,-0.0096,-0.188,0.02581361086239616,1.1697340247224814,0.03390246392735667,0.03071377701304611
0.243,0.0033,1.812,0.026094725143222103,1.1712885898611947,0.03441762992860068,0.030831116481888562
0.244,0.0151,-3.188,0.026247176525890394,1.1556626812719173,0.03469701014707478,0.029651663933786158
0.245,0.0186,-0.188,0.026230752458544906,1.1366252507924617,0.03466691163669788,0.028214707755524353
0.246,0.0218,-0.188,0.026128259207044962,1.1205160565045897,0.03447908397324873,0.026998776525532054
0.247,0.013,-1.188,0.026026736281294986,1.139822576118831,0.03429303451485928,0.028456043706119018
0.248,0.0155,-1.188,0.026013935893751856,1.1556626812719173,0.03426957670814241,0.029651663933786158
0.249,0.032,-1.188,0.02616148634200365,1.1556626812719173,0.03453997554446016,0.029651663933786158
0.25,0.0254,-2.188,0.026695165941035916,1.1712885898611893,0.035517989127303314,0.03083111648188816
0.251,0.0312,-1.188,0.027078337426526225,1.1763233385476095,0.03622018369881634,0.031211142202205527
0.252,0.0258,0.812,0.027955295521007006,1.1747754358456015,0.03782728453149141,0.031094305617909195
0.253,0.0077,0.812,0.028341507920047786,1.173225490909848,0.03853505183758527,0.030977314884637706
0.254,-0.0191,-0.188,0.028338359592105778,1.1851744244826816,0.03852928225693031,0.03187922724826536
0.255,-0.0445,1.812,0.02833571356933986,1.1851744244826816,0.038524433193540444,0.03187922724826536
0.256,-0.0543,-0.188,0.028321263391387592,1.1851744244826805,0.03849795200456968,0.03187922724826528
0.257,-0.0097,0.812,0.028363422748786202,1.1817182627515912,0.038575212638580325,0.031618354177294895
0.258,0.0092,-1.188,0.028382195025710617,1.1851744244826807,0.038609614444169785,0.0318792272482653
0.259,-0.0438,-0.188,0.028417757074634467,1.1836380968447595,0.038674784945242575,0.03176326435644922
0.26,-0.0228,-0.188,0.02841714096907352,1.1939598971841239,0.03867365587902351,0.03254235976979507
0.261,-0.0039,0.812,0.028416284290065038,1.193959897184123,0.038672085941353136,0.032542359769795005
0.262,-0.0097,-0.188,0.028459375836124227,1.1939598971841232,0.038751054890940155,0.03254235976979502
0.263,-0.0147,-0.188,0.028556070028441835,1.1939598971841232,0.03892825528166176,0.03254235976979502
0.264,-0.048,-0.188,0.02849184865971947,1.1805594436584428,0.03881056412196005,0.031530885847092224
0.265,-0.0262,-0.188,0.028316124997064797,1.184018987997382,0.03848853545679305,0.03179201423924441
0.266,0.0176,-0.188,0.0276592963301974,1.1840189879973817,0.037284840657587824,0.031792014239244396
0.267,0.0118,-0.188,0.027147497945619707,1.1943374965728857,0.03634692627468501,0.03257086118836491
0.268,0.0067,1.812,0.026891174786537082,1.1943374965728804,0.03587719212776493,0.032570861188364504
0.269,0.002,-0.188,0.02689121435886503,1.1958600787155413,0.03587726464744586,0.032685786562309735
0.27,0.015,0.812,0.026683121122271336,1.1943374965728784,0.035495915965098865,0.03257086118836435
0.271,0.0189,0.812,0.026191458244995983,1.1992754861968768,0.03459490162423408,0.032943583479119645
0.272,0.0153,0.812,0.025174383553106364,1.1889998317960822,0.03273102512373117,0.03216797118770041
0.273,0.0186,0.812,0.024044427560185926,1.1939598971841128,0.030660283969122425,0.03254235976979423
0.274,0.0157,-0.188,0.023228206305755325,1.197380724753456,0.029164488598855447,0.03280056579795758
0.275,-0.0032,-1.188,0.02296351905424987,1.2007918070749508,0.028679426536061276,0.033058036249220484
0.276,-0.0053,-0.188,0.023105346971310236,1.2399031704760992,0.0289393383437506,0.03601018440493786
0.277,-0.0118,-0.188,0.023152431431712046,1.2221786285200342,0.029025624650923128,0.03467232580589459
0.278,-0.0019,-1.188,0.02315349414188218,1.1859350976001892,0.029027572158346875,0.03193664329172878
0.279,0.0036,-1.188,0.023090322371914176,1.1843997566592115,0.028911804478276317,0.031820754876364266
0.28,0.0084,0.812,0.02309700201662408,1.185935097600189,0.028924045499418398,0.03193664329172877
0.281,-0.0143,0.812,0.023088772610778456,1.173993906199157,0.02890896440823496,0.03103531531167195
0.28200000000000003,-0.01749999999999952,-0.188,0.023061692352590576,1.1552585942754048,0.0288593375152777,0.02962116321538193
0.28300000000000003,-0.008799999999999556,-0.188,0.0231229544178975,1.1584044906414712,0.02897160549796214,0.02985861727853761
0.28400000000000003,-0.000799999999999617,-2.188,0.0231836804478613,1.1249623265176025,0.02908289114996089,0.027334383537849907
0.28500000000000003,0.006100000000001133,0.812,0.023145791361818133,1.1374183926819152,0.029013456154021525,0.028274574560528235
0.28600000000000003,0.02650000000000045,-1.188,0.023128733342644613,1.1481557785391125,0.028982195872612315,0.029085038607266637
0.28700000000000003,0.03459999999999988,-1.188,0.023051645781629562,1.163882476733448,0.028840926313353013,0.030272098812602455
0.28800000000000003,0.03249999999999938,-1.188,0.023455451275502266,1.1587936760158812,0.02958093447283732,0.02988799321395343
0.289,0.0213,-1.188,0.023523238952623086,1.155258594275405,0.0297051611981867,0.029621163215381947
0.29,0.0157,-0.188,0.02347241742344466,1.1536824292246173,0.029612026392345347,0.02950219337277982
0.291,0.0433,-1.188,0.023393344665554778,1.1536824292246173,0.0294671187897512,0.02950219337277982
0.292,0.0393,-1.188,0.023370227799208356,1.1536824292246173,0.029424755151867033,0.02950219337277982
0.293,0.0285,-0.188,0.023354584072017487,1.153682429224617,0.02939608668167123,0.029502193372779803
0.294,0.0123,-0.188,0.023399995197890877,1.153682429224617,0.029479306459974375,0.029502193372779803
0.295,0.0036,-0.188,0.02341306552309907,1.115215047966298,0.029503258950586666,0.026598653358787607
0.296,-0.0097,-2.188,0.023349609469194458,1.115215047966298,0.029386970295849114,0.026598653358787607
0.297,-0.0166,1.812,0.023247722554598182,1.1572223258427174,0.029200253796717743,0.029769386801077637
0.298,-0.0278,1.812,0.023213191852073593,1.1572223258427174,0.0291369733262718,0.029769386801077637
0.299,-0.0538,1.811999999999667,0.023173336467840748,1.15210410786354,0.02906393492045708,0.029383060770639513
0.3,-0.0574,-1.187999999999778,0.023120155004732985,1.1469630505309478,0.028966475333526684,0.02899501081269805
0.301,-0.0736,0.812,0.023117926268447542,1.1437856857786408,0.02896239098335911,0.02875518149768907
0.302,-0.0467,0.8120000000001111,0.022906004866073495,1.154463852519324,0.028574026859280132,0.02956117565152686
0.303,0.0004,1.811999999999667,0.022760493842190227,1.150915471634014,0.028307365442824816,0.029293341825870876
0.304,-0.0057,-1.188,0.022808888032556762,1.1473561168701418,0.028396051942355605,0.029024679685563066
0.305,0.0,-1.187999999999889,0.022863582415627526,1.1473561168701418,0.028496284084722358,0.029024679685563066
0.306,0.0156,-0.18799999999988898,0.022498302857106297,1.1313997220544565,0.027826878002090535,0.027820281847423762
0.307,0.0108,0.812,0.021926364339437086,1.136611176760851,0.026778751673398243,0.028213645439541232
0.308,0.0151,0.8120000000001111,0.021929101708825567,1.1330068857736357,0.026783768137299144,0.027941591487306364
0.309,0.0032,1.811999999999889,0.021914948285238975,1.1277787757967814,0.02675783077612491,0.027546970745816055
0.31,-0.0005,0.811999999999889,0.021515286407262402,1.1277787757967814,0.026025416147732763,0.027546970745816055
0.311,-0.0168,-0.188,0.021545506751620643,1.1313997220544583,0.026080797517592413,0.027820281847423894
0.312,-0.0254,-0.18800000000011102,0.0218515855744599,1.1437856857786426,0.02664171318066114,0.028755181497689207
0.313,0.0044,-1.187999999999778,0.021908932014955917,1.1437856857786424,0.026746805445447937,0.02875518149768919
0.314,0.0244,0.811999999999889,0.021860688901142185,1.159571654899579,0.026658395806642116,0.029946715506580734
0.315,0.0281,-0.18799999999977796,0.02137329954662278,1.1595716548995787,0.025765213062318562,0.029946715506580717
0.316,0.0183,1.812,0.021228401999822653,1.1630936276902915,0.02549967589517156,0.030212556034100762
0.317,-0.0143,1.811999999999667,0.021164420217897197,1.1666049677165655,0.025382423798799368,0.03047759399445878
0.318,-0.0012,-1.187999999999778,0.02113701157365238,1.1716598426052478,0.02533219511026161,0.03085913885207342
0.319,-0.0131,0.812,0.02114691332104442,1.1595716548995734,0.025350340910589856,0.029946715506580315
0.32,-0.0312,-1.188,0.02116201183931599,1.1595716548995736,0.025378010238735763,0.029946715506580332
0.321,-0.0083,-1.188,0.021113540823726004,1.1560389521635166,0.025289182950401775,0.029680065076627737
0.322,0.0185,-1.188,0.021036177786879235,1.1576119086571683,0.025147408558082233,0.029798792735495835
0.323,0.0221,0.812,0.020990314172459543,1.1540732070097104,0.0250633595557556,0.02953168950426789
0.324,0.0254,0.812,0.020927302248987648,1.1505236213179038,0.0249478848080824,0.029263764739126105
0.325,0.0341,-3.188,0.020871310172068926,1.1540732070097102,0.02484527453057243,0.029531689504267874
0.326,0.0152,-0.188,0.020877411167023564,1.1524954208117735,0.02485645512646801,0.02941259729654856
0.327,0.0083,0.812,0.02087644390393998,1.1576119086571683,0.024854682534006835,0.029798792735495835
0.328,-0.0164,0.812,0.02084373412577282,1.162705881613092,0.024794739063435205,0.030183288737664415
0.329,-0.0262,-1.188,0.02090011043447218,1.1732118559404794,0.024898053478598373,0.03097628570932458
0.33,0.0063,0.812,0.02093826463227565,1.1681636969391398,0.024967974314549276,0.030595247770740852
0.331,0.0019,-0.188,0.020977448622418942,1.1646570563557774,0.025039782333179973,0.03033056452703084
0.332,0.0218,-2.188,0.020999166034429542,1.16621838909566,0.02507958135110961,0.030448414818293502
0.333,0.0181,0.812,0.0210130950553127,1.1662183890956592,0.025105107475106365,0.030448414818293454
0.334,0.0016,1.812,0.020999180639226477,1.2019178103541515,0.025079608115651113,0.033143027622953215
0.335,-0.0133,1.812,0.021112401563924663,1.1886070783794502,0.025287095159221225,0.03213832593440996
0.336,-0.0267,1.812,0.02135602097559341,1.2034308019126354,0.025733548600739956,0.033257229094100685
0.337,-0.0434,-0.188,0.021192660613608447,1.2165793566655954,0.025434176743151283,0.03424968955287262
0.338,-0.0188,-0.188,0.02129899198188681,1.2150827374789352,0.02562903808438882,0.034136723877746605
0.339,0.0039,0.812,0.021335354096182375,1.2150827374789352,0.025695674773792802,0.034136723877746605
0.34,-0.0049,0.812,0.021315362205770173,1.2135842726295245,0.025659037922008885,0.03402361889093693
0.341,-0.0076,-0.188,0.021306830521008933,1.2314325230881729,0.02564340287881788,0.035370815078752095
0.342,0.0042,-0.188,0.02086172247067531,1.2442852144874537,0.024827704246439024,0.03634094360179094
0.343,0.0149,1.812,0.02051283129669833,1.2395265462745457,0.02418833128239408,0.035981756594058174
0.34400000000000003,0.016999999999999453,0.812,0.020358955581313485,1.242821959432049,0.023906340852201547,0.036230496270439914
0.34500000000000003,0.007099999999999695,-0.188,0.02092391084494862,1.2428219594320493,0.024941669769656543,0.036230496270439935
0.34600000000000003,0.0015999999999997336,-3.188,0.022179213817699977,1.2573651620356543,0.027242120002643595,0.037328225549373636
0.34700000000000003,-0.0032000000000002443,-1.188,0.022574419897078857,1.25446745928693,0.027966368998399875,0.03710950528289445
0.34800000000000003,-0.007600000000001133,-0.188,0.022513844647598612,1.2446475463472226,0.027855359664553835,0.03636829261851029
0.34900000000000003,-0.02799999999999985,-0.188,0.022730795615695097,1.2299539775023018,0.028252940898676495,0.03525921360938616
0.35000000000000003,-0.02529999999999866,1.812,0.022391530146283204,1.2150827374789408,0.027631207862832217,0.03413672387774702
0.35100000000000003,-0.0011999999999998277,1.812,0.02188217401010435,1.2251396453878083,0.026697769109335277,0.03489582505841594
0.352,0.0019,-0.188,0.020622218529948437,1.2251396453878085,0.02438879275797274,0.03489582505841595
0.353,0.0167,-0.188,0.020369210037526182,1.2559171463736738,0.023925133021658416,0.03721892849618423
0.354,0.0247,-0.188,0.02057383676674108,1.2749542119161061,0.02430012903227571,0.03865585712879008
0.355,0.0178,-0.188,0.020712072404462822,1.2749542119161061,0.02455345768034471,0.03865585712879008
0.356,0.02,-1.188,0.02071494760084,1.2703104370231066,0.024558726724009335,0.03830534233478183
0.357,0.0102,-0.188,0.020768901022115607,1.2703104370231069,0.024657600990412035,0.03830534233478185
0.358,0.0048,-0.188,0.020977648130621068,1.2841913855139322,0.02504014794905122,0.03935308429321214
0.359,-0.0134,-0.188,0.02120460209827898,1.2810024007397396,0.025456060536776286,0.03911237789228245
0.36,-0.0255,0.8120000000002221,0.021202240913932007,1.2667306038959316,0.025451733464189802,0.03803513447585929
0.361,-0.0367,1.812,0.021473842800752766,1.2634975500250638,0.0259494671885409,0.03779110171422109
0.362,-0.0186,-0.1879999999995559,0.022124901134837213,1.2667306038959323,0.027142587358606318,0.03803513447585934
0.363,-0.0019,1.812,0.022269640948941377,1.2810024007397418,0.027407835467075807,0.03911237789228262
0.364,0.0138,-0.18799999999977796,0.02233581841839429,1.276380630779158,0.027529111348935445,0.03876352404320185
0.365,0.0081,0.812,0.022215799071622144,1.276380630779159,0.027309165614528567,0.03876352404320192
0.366,0.0063,0.811999999999556,0.02204249183479735,1.2795811340260603,0.026991565256697735,0.03900509986506217
0.367,0.0049,-1.188,0.021967816029094644,1.2652933061946503,0.026854715445651114,0.03792664642049454
0.368,0.0093,0.811999999999778,0.021943238670070992,1.2541079645603832,0.026809675329822945,0.037082370414618954
0.369,0.0082,-0.188,0.021955928741344246,1.24938670983047,0.026832930972525034,0.036726007398054414
0.37,0.0046,-0.18800000000022205,0.02192440686525149,1.2508422853607797,0.02677516443426628,0.03683587507444395
0.371,0.0057,-1.188,0.02171345670076476,1.2461086576915323,0.026388580186816824,0.03647857814131758
0.372,0.0065,-0.188,0.021711626456617363,1.2588115120408527,0.02638522610762901,0.03743739687783321
0.373,0.0091,-0.188,0.021738326014502193,1.2588115120408527,0.02643415533466827,0.03743739687783321
0.374,0.0037,0.812,0.021660413165419213,1.2555580667254556,0.026291373364326256,0.037191824958259186
0.375,-0.006,0.812,0.021537716281719355,1.2522961690399554,0.026066520814128375,0.03694561504893894
0.376,-0.0049,-1.188,0.02153140983759416,1.2184442633319663,0.026054963715027964,0.034390453778329166
0.377,-0.0013,-1.188,0.021692130024858376,1.2184442633319663,0.026349497226270533,0.034390453778329166
0.378,0.0154,1.811999999999556,0.021784910873538402,1.2150827374789601,0.02651952607954003,0.03413672387774848
0.379,0.0131,-0.188,0.021767598078133173,1.211711886131414,0.02648779889886083,0.033882290083487976
0.38,0.0153,-0.18800000000022205,0.02168521132242768,1.211711886131414,0.02633681811137624,0.033882290083487976
0.381,0.0171,-1.188,0.02171946442639347,1.2083316312440613,0.026399589858682727,0.03362714650464613
0.382,0.019,-0.18799999999933387,0.021740905003386865,1.211711886131414,0.02643888155272829,0.033882290083487976
0.383,0.0042,2.812,0.021686644392975137,1.1985099327579072,0.026339444335918318,0.032885799066191435
0.384,-0.0219,-1.188,0.021948216406252292,1.2343843012654143,0.026818797457792514,0.03559361698960991
0.385,-0.0328,-2.188,0.022072533020783425,1.2195670852216682,0.02704661830349281,0.03447520501895673
0.386,-0.0032,-2.188,0.022186220833602777,1.2435602340538248,0.027254960959540886,0.036286221662590885
0.387,0.0406,0.812,0.02204544325348703,1.2336535023815884,0.026996973984279603,0.03553845587044975
0.388,0.0348,-1.188,0.02167310540224474,1.248303525506833,0.0263146329755884,0.036644248023661626
0.389,0.0192,0.812,0.021616169291097838,1.2627835996904686,0.026210292674484683,0.037737212333226335
0.39,0.0145,-2.188,0.022360478010118597,1.273892767690606,0.027574302163232024,0.0385757387094814
0.391,0.0015,-2.188,0.02361978089793451,1.284905890523367,0.02988208258322725,0.03940701554138212
0.392,-0.0103,-0.188,0.024996156068338323,1.2849058905233672,0.032404407990051724,0.03940701554138214
0.393,-0.0137,0.812,0.025227468364549553,1.284905890523367,0.032828307588206575,0.03940701554138212
0.394,-0.0499,-0.188,0.025184514814446543,1.273892767690606,0.03274959152803067,0.0385757387094814
0.395,-0.0737,1.812,0.025169404208576784,1.275320373757121,0.03272190004832559,0.03868349523469192
0.396,-0.0432,1.812,0.025174458491977397,1.2894971049112256,0.032731162455631964,0.03975356303829761
0.397,0.0008,-1.188,0.025176421951737048,1.255198884353906,0.032734760663841136,0.037164713666718134
0.398,0.0418,-0.188,0.025174715241266778,1.2537483667537594,0.032731632970699163,0.037055227765800086
0.399,0.0368,-0.188,0.02519129055432466,1.2584532582541574,0.03276200865180049,0.037410355676409886
0.4,0.0321,1.812,0.02504871839351734,1.2584532582541574,0.0325007329536893,0.037410355676409886
0.401,-0.0074,0.812,0.024948368601116884,1.2486646913518702,0.032316833362659204,0.03667150902891984
0.402,-0.0338,2.812,0.024962415923836682,1.2373290376862764,0.032342576284905916,0.03581588738465491
0.403,-0.029,2.812,0.025020509670578873,1.242096124933345,0.03244903805240675,0.036175709865917845
0.404,-0.0246,-1.188,0.02496703981654465,1.2468449862140913,0.03235104996439864,0.03653415664078279
0.405,0.0034,-0.188,0.02485840692999748,1.2501211075629561,0.032151970893774154,0.036781440160376835
0.406,0.0216,-0.188,0.024794990416340493,1.2548395991708332,0.03203575469992758,0.037137594614904325
0.40700000000000003,0.031400000000000164,-2.188,0.024713783428647555,1.2501211075629561,0.031886935938390724,0.036781440160376835
0.40800000000000003,0.03439999999999804,-0.188,0.024693064027255816,1.2501211075629561,0.03184896586041464,0.036781440160376835
0.40900000000000003,-0.0008000000000018486,-0.188,0.024690438613045842,1.2548395991708332,0.03184415456396898,0.037137594614904325
0.41000000000000003,-0.034100000000001206,-0.188,0.024658908103291938,1.2580949024514931,0.03178637220378657,0.03738330677476267
0.41100000000000003,-0.05589999999999889,0.812,0.02455349564291628,1.2580949024514916,0.031593194839998916,0.03738330677476255
0.41200000000000003,-0.035899999999998995,1.812,0.02432444511413044,1.243560234053823,0.031173440124405198,0.03628622166259075
0.41300000000000003,-0.017799999999999455,-0.188,0.024407362130126557,1.2483035255068318,0.03132539265929706,0.03664424802366153
0.41400000000000003,-0.007999999999999839,0.812,0.02442381388480166,1.2336535023815869,0.03135554190907732,0.03553845587044963
0.41500000000000004,-0.0050999999999995615,0.812,0.02439469743702015,1.2717546430647355,0.03130218352425973,0.038414351835640737
0.41600000000000004,0.002800000000000383,-0.188,0.024398620840051326,1.2856199984346344,0.03130937349641234,0.03946091681635453
0.417,0.0097,0.812,0.024498102782631488,1.2870345964738665,0.03149168267830246,0.039567691488200364
0.418,0.0075,-0.188,0.024618852299785516,1.2824345661466954,0.03171296651248413,0.039220478559126054
0.419,0.0056,-1.188,0.024741815669991493,1.282434566146697,0.03193830742203301,0.03922047855912617
0.42,-0.0071,-0.188,0.02474727240602605,1.282434566146697,0.031948307358267154,0.03922047855912617
0.421,0.0077,-2.188,0.024764951027136932,1.2870345964738679,0.03198070494589039,0.03956769148820046
0.422,0.0214,-1.188,0.024770707622212673,1.285619998434639,0.031991254399504905,0.039460916816354885
0.423,0.0123,-0.188,0.024882442518917337,1.285619998434639,0.032196018169476426,0.039460916816354885
0.424,0.0108,-0.188,0.025342806711687645,1.2887975575327164,0.033039674989786626,0.039700760800694145
0.425,0.0337,-1.188,0.025474584932455118,1.2996843879302045,0.03328116986811286,0.040522505007100626
0.426,0.0304,-0.188,0.025631635293730276,1.2965335106746356,0.03356897810885515,0.04028467498354675
0.427,0.0217,-0.188,0.025762143293424772,1.2965335106746358,0.03380814519825178,0.040284674983546764
0.428,0.0138,-0.188,0.025779902119397343,1.2919673015326318,0.033840689768154804,0.03994001489693902
0.429,-0.0181,-1.188,0.02575558962316719,1.2778179762294386,0.03379613503608517,0.03887201570268846
0.43,-0.0138,-0.188,0.025789524541975268,1.2824345661467034,0.03385832368183284,0.03922047855912666
0.431,-0.0099,0.812,0.025796306168790407,1.2856199984346455,0.03387075159391906,0.03946091681635537
0.432,0.0155,-1.188,0.025742100292922225,1.2951292878152132,0.033771414682848964,0.040178683436227325
0.433,0.0383,-3.188,0.025966783278057425,1.3090915170495803,0.03418316550055763,0.041232560511827554
0.434,0.0234,-0.188,0.02618952415950363,1.2795936355565163,0.034591357246886084,0.03900604348775567
0.435,0.026,-3.188,0.026101068223041906,1.2891473786725807,0.03442925416574985,0.039727165501095126
0.436,0.0093,-1.188,0.025906701333083156,1.2753203737571301,0.034073060189477686,0.038683495234692604
0.437,0.0158,1.812,0.025906585572806708,1.2580949024515022,0.0340728480488545,0.037383306774763356
0.438,-0.0103,1.812,0.02565873110268715,1.2548395991708425,0.033618633499928746,0.037137594614905026
0.439,-0.0574,1.812,0.02551814004041322,1.2501211075629652,0.03336098833459062,0.03678144016037752
0.44,-0.0763,1.812,0.025623435101310807,1.2468449862141002,0.0335539505537777,0.036534156640783466
0.441,-0.0822,-0.188,0.025846147744407088,1.232543512996147,0.03396209055091087,0.035454673234608415
0.442,-0.0344,-0.188,0.026136062613993184,1.218074136992705,0.03449338438495953,0.03436251642982445
0.443,-0.0027,0.812,0.026168993976215808,1.218074136992705,0.03455373392729477,0.03436251642982445
0.444,0.0146,-1.188,0.026169534554298192,1.2147115868729124,0.03455472458293932,0.034108709216998885
0.445,0.0087,1.812,0.025690410175420876,1.2147115868729124,0.03367668811449832,0.034108709216998885
0.446,0.0035,0.812,0.02461354630816112,1.2045676184845977,0.03170324282829511,0.03334303666137687
0.447,-0.0012,0.812,0.024430490298909594,1.1928129709113833,0.031367777009864546,0.03245578911650213
0.448,0.0118,-1.188,0.025040663679879952,1.1878481163438592,0.032485972000942435,0.03208103904439161
0.449,0.008,-0.188,0.024736729167826137,1.1912864942694805,0.03192898597108023,0.032340569783519055
0.45,0.0116,-1.188,0.02448299467489046,1.1912864942694807,0.031463995776632295,0.032340569783519076
0.451,0.0084,0.812,0.024273712104589555,1.1759263512543803,0.031080467538382665,0.03118117737347968
0.452,0.0171,-1.188,0.024500372419753613,1.1774727409668564,0.031495841982757025,0.03129789975645783
0.453,0.0036,-1.188,0.024452192706805067,1.1445878419175928,0.031407548531467884,0.028815728703418416
0.454,-0.0085,0.812,0.024423892684205667,1.112366788499508,0.03135568631573551,0.026383665099604568
0.455,-0.002,-1.188,0.024303107954438997,1.1070412079430123,0.031134337951424694,0.02598168722282409
0.456,-0.0002,-0.188,0.0244097151257007,1.110729760117703,0.031329704725255834,0.0262601012578475
0.457,0.0016,-0.188,0.024547981252633567,1.1160377395428507,0.031583089247416075,0.026660750591132445
0.458,0.0032,-1.188,0.024732083193062224,1.0963124390146928,0.031920471824328334,0.025171873586822678
0.459,0.0047,0.812,0.02473764096150435,1.1000369665904683,0.031930656911104284,0.025453003065766425
0.46,0.0113,0.812,0.0248827978662054,1.1000369665904683,0.032196669373822595,0.025453003065766425
0.461,0.0149,-0.188,0.024648747185786125,1.1000369665904683,0.031767751452023055,0.025453003065766425
0.462,0.0273,-1.188,0.024140148739395424,1.1000369665904701,0.030835701229970335,0.02545300306576656
0.463,0.0091,-0.188,0.023888893613743384,1.1000369665904701,0.030375254688464446,0.02545300306576656
0.464,0.007,-3.188,0.02393999138385132,1.103748926066421,0.03046889572947328,0.02573318389732265
0.465,0.0092,-2.188,0.02406928538400316,1.1000369665904701,0.03070583806071082,0.02545300306576656
0.466,0.0229,-1.188,0.024105566259505898,1.1000369665904701,0.030772325873067642,0.02545300306576656
0.467,0.0248,-0.188,0.024111976859866747,1.1000369665904701,0.030784073847392422,0.02545300306576656
0.468,0.0263,0.812,0.02413434577209828,1.1127720754012378,0.03082506679528763,0.02641425638754322
0.46900000000000003,0.00969999999999888,-0.188,0.02439633603092933,1.1289917712929565,0.03130518638796831,0.02763852834201127
0.47000000000000003,-0.010499999999999857,-1.188,0.02470515624373507,1.1237449815569462,0.03187112588299155,0.027242497641579468
0.47100000000000003,-0.007900000000000922,0.812,0.024780441985875964,1.1273788837394623,0.0320090934548113,0.02751678666382964
0.47200000000000003,-0.02450000000000136,-0.188,0.024771304506040474,1.1115413799239682,0.03199234824025135,0.026321362786616884
0.47300000000000003,-0.04899999999999874,0.812,0.024733021731352896,1.1062118256511697,0.03192219177614579,0.025919084971449343
0.47400000000000003,-0.026200000000000157,1.812,0.024716614591181324,1.1062118256511697,0.03189212428626515,0.025919084971449343
0.47500000000000003,-0.028999999999999856,-0.188,0.02471531563769626,1.1099031341237435,0.03188974384272903,0.02619770705341882
0.47600000000000003,-0.026399999999999074,-1.188,0.02454307810279337,1.1045656753063275,0.03157410380530601,0.02579483259868709
0.47700000000000004,-0.009699999999998873,-0.188,0.02440114315639535,1.1045656753063275,0.03131399585718678,0.02579483259868709
0.47800000000000004,0.010600000000000444,-0.188,0.024323959370885162,1.1209041256589933,0.03117254995829707,0.027028068208021182
0.47900000000000004,0.018599999999999877,-1.188,0.024298844009794478,1.140204074306404,0.031126523907593167,0.02848483940826066
0.48,0.0164,0.812,0.02423267501636329,1.1350091167000105,0.03100526355876944,0.028092721026719045
0.481,-0.0039,1.812,0.024261640055460623,1.138607069589572,0.03105834447420286,0.028364296575705536
0.482,-0.0391,1.812,0.02426006197920608,1.1350091167000105,0.031055452514280643,0.028092721026719045
0.483,-0.0344,0.812,0.02423964706629178,1.1334047921402868,0.031018040437523448,0.027971625688221553
0.484,-0.0039,1.812,0.023939657569302452,1.1103093203129393,0.030468283985716285,0.02622836622009151
0.485,-0.0079,0.811999999999778,0.023847853076474114,1.113987051406342,0.030300044388184448,0.026505963473689026
0.486,0.003,-0.188,0.023709687803453252,1.0702841877196168,0.0300468446894576,0.023207246241332313
0.487,0.0193,-0.188,0.023695420148821197,1.0702841877196165,0.03002069799010696,0.023207246241332295
0.488,0.0222,-0.188,0.023694753275141173,1.05703731180854,0.03001947588696064,0.02220736444511874
0.489,0.0301,-0.18799999999977796,0.02398443919151959,1.039695701011116,0.03055035014464297,0.020898409709695715
0.49,0.0368,0.812,0.023661795295476764,1.0220598920056332,0.029959077565883147,0.019567248724686646
0.491,0.0388,0.811999999999778,0.02250019409848443,1.050573463975982,0.027830343863928995,0.021719469501084044
0.492,0.0166,-0.188,0.020963991428376558,1.0505734639759823,0.02501512087228794,0.02171946950108406
0.493,0.0137,-0.188,0.020997687287462947,1.0561838094211062,0.025076871420616594,0.022142941595086126
0.494,0.0003,-0.188,0.021075169346028388,1.0523040793212126,0.025218863930431587,0.02185009734055048
0.495,0.0026,-1.1879999999995559,0.021025080782531732,1.046672938067704,0.02512707234699152,0.021425055566996722
0.496,-0.0311,0.812,0.02101445104126811,1.0348831564488987,0.025107592435530072,0.020535156084197186
0.497,-0.055,-0.18799999999977796,0.021013665464861518,1.0366399662598422,0.025106152799468658,0.020667761096968763
0.498,-0.0155,0.812,0.02112666291488515,1.032686813956677,0.025313230306553712,0.020369374892392815
0.499,-0.0105,-0.188,0.02111592331566093,1.026948109520246,0.02529354907096849,0.019936214188061054
0.5,0.0036,-0.188,0.02111443592510774,1.0309232675492495,0.02529082330036259,0.020236261397452462
0.501,0.034,-1.1879999999995559,0.02109122623916194,1.025174691212008,0.02524828956261118,0.019802355556382004
0.502,0.03,0.812,0.02134279852377851,1.0251746912120079,0.02570931732508896,0.019802355556381986
0.503,0.0264,-1.187999999999778,0.022384865863176954,1.0233981998010673,0.02761899499314478,0.019668264965147262
0.504,0.0037,-0.188,0.02330240303185394,1.0216186192559795,0.029300460455487256,0.019533941204294244
0.505,-0.0231,0.811999999999556,0.02368345532360416,1.0216186192559795,0.029998771422931027,0.019533941204294244
0.506,-0.0339,-1.188,0.02368274352367575,1.0198359334054292,0.02999746698858594,0.019399383053202764
0.507,-0.0436,-0.18799999999977796,0.02369125477187382,1.0375095464232378,0.03001306458002424,0.020733397506758077
0.508,-0.0349,0.812,0.023691009679379257,1.0431901528446947,0.030012615427032124,0.02116217293957687
0.509,-0.0269,-0.188,0.023737824895095537,1.0375095464232378,0.030098408320253598,0.020733397506758077
0.51,-0.0001,-0.188,0.024019008727678905,1.0375095464232378,0.030613701781051227,0.020733397506758077
0.511,0.0252,0.8120000000002221,0.024339156621119025,1.0335597200898154,0.03120040022122175,0.020435262348287117
0.512,0.0088,1.812,0.02447835854768309,1.0335597200898157,0.031455499676371346,0.020435262348287134
0.513,0.0236,0.812,0.024410891263817236,1.0317976656527998,0.031331860099108155,0.020302261468129704
0.514,0.0261,-0.188,0.02442250397269511,1.0317976656527998,0.03135314138292856,0.020302261468129704
0.515,0.0141,0.812,0.024543603988758773,0.9844529011731391,0.031575067536387585,0.016728651473817913
0.516,-0.0063,-0.188,0.02456302167180651,0.9620333894842942,0.0316106521039867,0.015036413864878804
0.517,-0.0143,1.812,0.024481411702607685,0.9601400784974392,0.03146109484431892,0.014893505665010753
0.518,-0.0365,1.812,0.02469678469561382,0.9601400784974392,0.031855784303911415,0.014893505665010753
0.519,-0.0394,-0.188,0.024645840001316477,0.9620333894842942,0.031762423787438716,0.015036413864878804
0.52,-0.0206,0.812,0.024750581910237716,0.9807491882928422,0.031954372308243426,0.016449093100034548
0.521,-0.0039,0.812,0.024821360687260725,0.9788920768866698,0.03208408048039588,0.016308917265291527
0.522,0.0164,-0.188,0.02492717015294753,0.9788920768866698,0.032277985390425645,0.016308917265291527
0.523,0.0084,-0.188,0.024860142378927436,0.9830615759547887,0.032155151252605374,0.01662363344784862
0.524,0.0105,0.812,0.02439103468616599,0.9788920768866699,0.03129547121955025,0.016308917265291534
0.525,0.017,-0.188,0.024258784642885445,0.9643906543845618,0.031053111686050173,0.015214341572396619
0.526,0.0152,-0.188,0.024085530866413168,0.9643906543845618,0.030735609298895007,0.015214341572396619
0.527,0.0098,1.812,0.024107093908661427,0.9625019803193718,0.03077512542101108,0.01507178337003699
0.528,0.0083,-2.188,0.024210557302536132,0.9667421714427933,0.030964730953469133,0.015391835429498827
0.529,-0.0022,-0.188,0.024225048594801235,0.9667421714427933,0.03099128748794023,0.015391835429498827
0.53,0.0181,0.812,0.02422816114478922,0.9648581003962999,0.030996991502429537,0.015249624665632115
0.531,0.0094,-0.188,0.024172245679376356,0.9606095929008526,0.030894521622066972,0.014928944881636957
0.532,0.0119,0.812,0.024170050058955093,0.9414935273907687,0.030890497959557374,0.013486053286134315
0.533,0.005,-2.188,0.023957004490618872,0.926406875077845,0.030500073705051135,0.012347304111252844
0.534,-0.0106,0.812,0.02375347369909948,0.9414935273907687,0.030127086094144263,0.013486053286134315
0.535,-0.0047,-0.188,0.02376266796718293,0.9283689839374584,0.030143935378033358,0.012495405214040127
0.536,0.0044,-1.188,0.023762678734440653,0.9283689839374606,0.030143955109955513,0.012495405214040294
0.537,0.0157,0.812,0.023768424399119983,0.9327643508755508,0.03015448453268225,0.012827170033049468
0.538,0.0385,-0.188,0.023717178182241238,0.9327643508755508,0.03006057145024923,0.012827170033049468
0.539,0.0418,-0.188,0.023633948956695915,0.9390787881413747,0.029908046764613047,0.013303787381759635
0.54,0.0212,-3.188,0.023507946297550958,0.9434242599511038,0.029677136097723055,0.013631786087845064
0.541,-0.0085,-0.188,0.02322370159326947,0.9620333894842965,0.029156233327329313,0.015036413864878981
0.542,-0.0364,-1.188,0.022899824850437817,0.9577723521565203,0.028562701451217247,0.014714788321948714
0.543,-0.0183,-0.188,0.02284051915682511,0.9620333894842986,0.028454018687254865,0.01503641386487914
0.544,-0.002,-0.188,0.022801850427098796,0.9681569493400508,0.028383154927478022,0.015498623677131633
0.545,-0.0057,-1.188,0.022801823899016086,0.9723724813478877,0.02838310631249393,0.01581681445239716
0.546,0.003,-1.188,0.02280703987024263,0.9704993407195531,0.028392665026592295,0.015675428722766095
0.547,0.0218,-0.188,0.02260698646102562,0.9849108255391966,0.02802605001664419,0.016763215867772917
0.548,0.0097,-0.188,0.021929657581458893,1.0031999113430639,0.026784786821518497,0.01814368656044272
0.549,0.0076,0.812,0.021896458611757708,1.0171481829340039,0.026723946865554217,0.01919651010510672
0.55,-0.0062,-0.188,0.021995822362350682,1.0171481829340039,0.026906039450502912,0.01919651010510672
0.551,-0.0338,0.812,0.02199490808891907,1.0348676987423924,0.02690436396611833,0.020533989327638835
0.552,-0.0697,0.812,0.02189251478052904,1.0291411554435084,0.02671671945697972,0.020101746552948455
0.553,-0.0649,0.812,0.02168558187976686,1.0309077504671162,0.026337497189444045,0.02023509015918772
0.554,-0.0432,0.812,0.021609577200653585,1.025159087117892,0.026198212104034734,0.01980117775040285
0.555,0.0006,0.812,0.021722657210597133,1.0291411554435106,0.02640544090924552,0.02010174655294862
0.556,0.0063,1.812,0.021748301400652023,1.0427424810349037,0.026452436084328422,0.02112838241445285
0.557,0.0012,-1.188,0.021605537834623344,1.0409959700254634,0.026190809619752377,0.020996554761129264
0.558,0.0152,-0.188,0.02116227568750371,1.0466576544802229,0.025378493763142298,0.02142390195304232
0.559,0.0369,0.812,0.02091992814226832,1.0483947337847572,0.024934371125817017,0.021555017695866707
0.56,0.0409,-0.188,0.02119904830803808,1.0483947337847572,0.025445882740394873,0.021555017695866707
0.561,0.03,-0.188,0.021912207636102483,1.048394733784757,0.02675280830180482,0.02155501769586669
0.562,0.0204,0.812,0.022375230289993876,1.0617494439625679,0.027601336979856245,0.02256303888441996
0.5630000000000001,0.011800000000001499,-0.188,0.02246616841812789,1.044486071664143,0.027767988889868683,0.021259989635802848
0.5640000000000001,0.025299999999998678,-0.188,0.022342356242792957,1.0462267565140764,0.027541092472208165,0.02139137752726318
0.5650000000000001,0.013399999999997258,-0.188,0.022246041221447924,1.051860286406303,0.02736458694477545,0.021816599596638214
0.5660000000000001,-0.011300000000003297,0.812,0.02223700297108714,1.0535887880308525,0.02734802357672838,0.021947067891254578
0.5670000000000001,-0.040999999999997795,-0.188,0.02223155933195644,1.0535887880308523,0.0273380476416925,0.02194706789125456
0.5680000000000001,-0.02110000000000041,-1.188,0.022216954736435264,1.0401293046237594,0.027311283469298536,0.020931138359225224
0.5690000000000001,-0.02479999999999963,1.812,0.02194130629502216,1.0282644983443958,0.026806134087009218,0.02003557597198973
0.5700000000000001,-0.02150000000000031,0.812,0.02167303325661309,1.0322345869436202,0.02631450076253805,0.020335240537912046
0.5710000000000001,-0.02429999999999911,0.812,0.02160628760068672,1.0339958968140215,0.02619218363029216,0.0204681852177541
0.5720000000000001,-0.01629999999999922,0.812,0.021647201619349687,1.0300325969118735,0.026267162074387902,0.020169033066583186
0.5730000000000001,-0.009299999999998268,-0.188,0.021586220498579244,1.0339958968140197,0.026155408946633648,0.020468185217753964
0.5740000000000001,0.006299999999999367,0.812,0.021586601430612015,1.0339958968140197,0.02615610703721621,0.020468185217753964
0.5750000000000001,0.0006000000000030641,-0.188,0.021571355948499717,1.0339958968140177,0.026128168385242522,0.020468185217753815
0.5760000000000001,0.028199999999999566,0.812,0.021508672437841388,1.0339958968140177,0.026013295482183636,0.020468185217753815
0.577,0.0243,0.812,0.021472782340443853,1.0379440633075752,0.025947523804180576,0.020766195090559183
0.578,0.0135,-0.188,0.021468413354087838,1.024279021862805,0.02593951726241434,0.01973474991987523
0.579,0.019,0.812,0.0215279791921756,1.0207198295012525,0.026048676763412517,0.019466100037787707
0.58,0.0001,-0.188,0.021961060410679016,1.0207198295012525,0.02684233519618501,0.019466100037787707
0.581,-0.0021,-0.188,0.02214160058128376,1.0225009743186688,0.027173190524776247,0.01960054187081383
0.582,-0.0224,0.812,0.02241973140617658,1.026493354294046,0.027682889087445307,0.01990188900260128
0.583,-0.0145,1.812,0.02264233358384999,1.026493354294046,0.028090826647228055,0.01990188900260128
0.584,-0.0077,-1.188,0.022796578337978306,1.0090736832320448,0.02837349337253167,0.01858704223360881
0.585,0.0078,0.812,0.02277358655696182,1.0090736832320448,0.02833135896423003,0.01858704223360881
0.586,0.006,0.812,0.02297153028763244,1.0131189772769533,0.028694107807516446,0.018892383349732124
0.587,0.0114,-0.188,0.023219693056697285,1.0072687953301815,0.029148887340669845,0.018450808258942363
0.588,0.01,-1.188,0.023466930171499437,1.0090736832320453,0.029601970533090764,0.018587042233608846
0.589,0.0177,0.812,0.023153388388259588,1.0304702665953285,0.0290273783557741,0.020202068625471088
0.59,0.0054,-2.188,0.022833527448933796,1.0361894645333125,0.028441205783599984,0.020633756968105203
0.591,0.0039,-0.188,0.02276173367150268,1.0072687953301769,0.028309637536249755,0.018450808258942013
0.592,0.0024,0.812,0.02331184529912026,1.0483947337847275,0.029317764219123795,0.02155501769586446
0.593,0.0035,-1.188,0.024300674581981003,1.0466576544801927,0.03112987858794078,0.02142390195304004
0.594,-0.0,0.812,0.024358111036812954,1.0638857897050829,0.031235135811709246,0.02272429148712404
0.595,0.0055,0.812,0.024378896015246076,1.0677234367867092,0.031273226065231315,0.023013959291289233
0.596,-0.0075,1.812,0.024384359831980052,1.0660178541272427,0.03128323897745371,0.022885220933310645
0.597,0.0016,1.812,0.024420637786642347,1.0643095382324073,0.031349721437120205,0.022756276269157796
0.598,0.0096,1.812,0.02451882229037651,1.0643095382324073,0.03152965295118005,0.022756276269157796
0.599,0.0233,-0.188,0.024633346600561944,1.0643095382324075,0.03173952856030995,0.022756276269157813
0.6,0.003,1.812,0.024647614191627098,1.0604595368260243,0.03176567514316879,0.022465675953469773
0.601,-0.0267,-0.188,0.024760970956322074,1.0660178541272427,0.03197341112516974,0.022885220933310645
0.602,0.0011,-1.188,0.024615012680608395,1.0660178541272427,0.031705930081421405,0.022885220933310645
0.603,0.0192,-0.188,0.02361429139450838,1.0660178541272427,0.029872022597941028,0.022885220933310645
0.604,0.0224,0.812,0.022754269731155203,1.0660178541272427,0.0282959592261652,0.022885220933310645
0.605,0.0253,1.812,0.02234960402817737,1.0677234367867092,0.027554374659806005,0.023013959291289233
0.606,0.0229,0.812,0.022365851210188584,1.0808393504082079,0.027584149012654994,0.02400395597872557
0.607,0.0008,-1.188,0.02235751409144352,1.0638857897050829,0.02756887052835611,0.02272429148712404
0.608,-0.014,-1.188,0.022360649965128314,1.0753576453059936,0.02757461728551784,0.023590193731633638
0.609,-0.0436,-0.188,0.022309708569971727,1.0753576453059939,0.027481262815003203,0.023590193731633655
0.61,-0.0555,-0.1879999999995559,0.022011922045880834,1.0753576453059936,0.026935543499749904,0.023590193731633638
0.611,-0.0519,1.812,0.02164261166838235,1.0921331389407065,0.026258750596042504,0.024856417618717874
0.612,-0.0221,-0.18800000000022205,0.02151309519811979,1.0921331389407065,0.026021400569269184,0.024856417618717874
0.613,-0.0022,-1.188,0.021448430821377717,1.0921331389407063,0.025902897559421115,0.024856417618717857
0.614,0.0159,-1.188,0.021539367440721553,1.0958718707493567,0.026069546704446295,0.02513861924131087
0.615,0.0126,-1.188,0.02153009808783117,1.1012514668196725,0.026052559821216358,0.02554467424007425
0.616,0.0038,-0.18799999999977796,0.021951135440039207,1.1208898542310262,0.026824146837265812,0.02702699099244778
0.617,0.0117,0.812,0.022218381850124872,1.1172348461227104,0.027313898777388313,0.026751108882805453
0.618,-0.0106,-1.1879999999995559,0.022018490962087255,1.1225120656205092,0.02694758160142381,0.027149436439120843
0.619,-0.0195,0.812,0.021977824277766227,1.1208898542310262,0.02687305641869754,0.02702699099244778
0.62,-0.0116,-1.187999999999778,0.021907633325322577,1.1082480324326485,0.026744425485442706,0.02607277902790418
0.621,-0.0139,-0.188,0.021915610232024093,1.1098887212402904,0.026759043850314256,0.026196619160704152
0.622,-0.0027,0.811999999999778,0.021800253760072778,1.1098887212402904,0.026547643233461315,0.026196619160704152
0.623,-0.0086,-0.188,0.021842241283703216,1.122512065620509,0.02662458896737166,0.027149436439120826
0.624,-0.0068,0.811999999999778,0.022174560271439932,1.1261499462286702,0.027233591980476427,0.027424025755221928
0.625,0.0045,-0.188,0.022456681439342614,1.1261499462286702,0.027750603188543447,0.027424025755221928
0.626,0.0088,0.812,0.023157622436705036,1.1421796834321936,0.029035137612259777,0.0286339595188868
0.627,-0.0089,0.812,0.023290940921537856,1.154449995960189,0.02927945515643235,0.029560129750491004
0.628,0.018,1.811999999999556,0.023304855702975323,1.150901572353286,0.02930495518542505,0.029292292700184668
0.629,0.0434,-0.188,0.02326844601429981,1.150901572353286,0.02923823131189435,0.029292292700184668
0.63,0.0335,-1.1879999999995559,0.02320463086062119,1.150901572353286,0.02912128457605868,0.029292292700184668
0.631,0.0364,0.812,0.023226386203048423,1.154449995960189,0.02916115310472611,0.029560129750491004
0.632,0.0338,0.812,0.023263828532568972,1.154449995960189,0.02922976938106642,0.029560129750491004
0.633,0.0269,0.812,0.023179809901268753,1.1509015723532858,0.029075798041760012,0.02929229270018465
0.634,-0.0026,0.812,0.02313614361012092,1.1385930200550376,0.028995775822562568,0.028363236108775784
0.635,-0.0305,0.812,0.023169239623333004,1.1385930200550376,0.029056427101940813,0.028363236108775784
0.636,-0.0342,-0.18800000000022205,0.02315835741266548,1.1385930200550376,0.02903648451866894,0.028363236108775784
0.637,-0.0375,-1.188,0.02315618035684264,1.1349950226282213,0.02903249487737629,0.02809165719809174
0.638,-0.005,-2.187999999999778,0.023127872883504562,1.1401900444503197,0.028980619007527016,0.028483780426671622
0.639,0.0167,-1.188,0.023110117228882725,1.1349950226282213,0.028948080249395887,0.02809165719809174
0.64,-0.0112,1.812,0.023041838862572033,1.1313855830191677,0.02882295429407122,0.027819214624925703
0.641,-0.0511,2.812,0.023044421684264856,1.1119325812827194,0.028827687536080514,0.02635089088968776
0.642,-0.0777,0.812,0.023075195580236272,1.1119325812827194,0.028884083336691263,0.02635089088968776
0.643,-0.0248,1.812,0.023142846691921206,1.1082480324326485,0.029008059794180512,0.02607277902790418
0.644,0.0102,0.812,0.023370748912592037,1.10290256383692,0.02942571013678376,0.02566929999050858
0.645,0.0076,0.812,0.02351772435174442,1.0991877461975443,0.029695055219668736,0.025388903423136874
0.646,0.0136,0.812,0.023729990005712933,1.1008419384890857,0.03008405021428486,0.025513762806651293
0.647,0.0309,-0.188,0.02401528878937833,1.0896384178959386,0.030606884675447234,0.024668114642526443
0.648,0.0256,-0.188,0.02405016147976819,1.072823915607932,0.03067079186795265,0.02339894635990434
0.649,0.0113,-0.188,0.024380537554657765,1.0596087910040763,0.03127623432682557,0.02240146117058204
0.65,0.0244,-1.188,0.025104504700653115,1.0634618723303315,0.03260296614044476,0.022692293960389597
0.651,0.0204,0.812,0.025747170541210722,1.0501289396893698,0.033780706347180015,0.021685916552815935
0.652,-0.005,0.812,0.025894428156158566,1.0673010436739716,0.03405056854138274,0.022982076816726368
0.653,-0.0148,0.812,0.026097933081647207,1.0655947849356144,0.03442350875057245,0.02285328742792511
0.654,-0.0061,-1.188,0.02603409078995674,1.0825215810949949,0.0343065122820053,0.024130931716404496
0.655,-0.0086,1.812,0.02594928535922004,1.0825215810949949,0.03415109906533043,0.024130931716404496
0.656,-0.0018,-0.188,0.025855150167777455,1.0694262992881711,0.03397858826292889,0.02314249233018052
0.657,-0.004,1.812,0.025805572621832945,1.0825215810949949,0.0338877331629294,0.024130931716404496
0.658,-0.0023,-0.188,0.02583791347461745,1.0937980002349845,0.03394700054613336,0.024982082304681845
0.659,0.0067,0.812,0.025966659084671603,1.0921331389407063,0.0341829379055391,0.024856417618717857
0.66,0.008,1.812,0.025640208222649483,1.0921331389407065,0.03358468873549881,0.024856417618717874
0.661,0.0185,-0.188,0.02513575189350245,1.095871870749357,0.03266022929812923,0.025138619241310906
0.662,0.0118,0.812,0.02460263624927783,1.095871870749357,0.031683249210782236,0.025138619241310906
0.663,0.023,0.812,0.024506826760002882,1.0995978906067936,0.03150767011417431,0.025419861358530846
0.664,0.0245,-1.188,0.02452527972740007,1.094210164892524,0.031541486757701506,0.025013192729576195
0.665,0.0448,-2.188,0.024514211483207725,1.0887957792356375,0.03152120325205886,0.024604511792852557
0.666,0.0361,-0.188,0.0245974261861148,1.0833543339132188,0.03167370132371637,0.02419378837704487
0.667,0.0281,-1.188,0.024610322245841348,1.0871232573796628,0.0316973344579051,0.024478268883295278
0.668,0.0162,0.812,0.024590444711353677,1.0871232573796628,0.031660907173149185,0.024478268883295278
0.669,-0.0175,0.812,0.02458960862449627,1.0871232573796672,0.031659374972359676,0.024478268883295615
0.67,-0.0223,-1.188,0.024526127943195298,1.0833543339132232,0.03154304118580859,0.0241937883770452
0.671,-0.0092,0.812,0.024684993706572088,1.0979418239967698,0.03183417630641839,0.02529486050038169
0.672,-0.0212,1.812,0.024694506864533776,1.1033113273025612,0.031851609983327034,0.025700153691486483
0.673,-0.0394,0.812,0.024821831775069067,1.1033113273025632,0.03208494378916036,0.025700153691486635
0.674,-0.0361,0.812,0.025171043308375517,1.1196680815351363,0.03272490383912011,0.026934770888180814
0.675,-0.0566,1.812,0.025306958718590535,1.1321823955245864,0.032973980471520954,0.027879358490129222
0.676,-0.0377,1.812,0.025304823821055134,1.1357893029356305,0.032970068088901516,0.02815160993153626
0.677,-0.0257,-0.188,0.025289599792104926,1.137390264073232,0.032942168751685146,0.028272451397001686
0.678,0.0037,-0.188,0.02527936537877428,1.1497116928759972,0.03292341331252661,0.029202479914361375
0.679,-0.0082,0.812,0.025230362940186643,1.1373902640732396,0.032833612146025114,0.028272451397002255
0.68,0.01,0.812,0.024883564800424536,1.1425743953377299,0.03219807484647852,0.02866375260004373
0.681,0.0133,-0.188,0.02465888925666539,1.1373902640732438,0.03178633766572893,0.028272451397002574
0.682,0.0104,-0.188,0.02440745610574055,1.1337884497918422,0.03132556487766011,0.028000584387943922
0.683,0.0025,0.812,0.02422814625269944,1.1353922322382515,0.030996964211399285,0.028121638807417314
0.684,0.0145,-1.188,0.024083492714556495,1.1317840593946114,0.030731874211019552,0.02784929185043169
0.685,0.0033,0.812,0.024097323152577305,1.1281643467033209,0.030757219673475958,0.02757607385912264
0.686,0.0051,-0.188,0.023969266798677613,1.1281643467033153,0.030522545435018332,0.027576073859122224
0.687,-0.0004,-1.188,0.023899556570269483,1.147342174470236,0.03039479546973977,0.029023627305216557
0.6880000000000001,0.004299999999999512,-0.188,0.02376228348271899,1.1611260488813635,0.030143230777316357,0.030064042056399985
0.6890000000000001,-9.999999999927836e-05,-0.188,0.023995686647412827,1.1457551191997788,0.03057096207107966,0.028903835462583835
0.6900000000000001,0.006400000000000678,-0.188,0.024266609375647112,1.1405854448921016,0.031067451179140983,0.028513625478939524
0.6910000000000001,0.012500000000000589,-0.188,0.02434939921287498,1.1281643467033067,0.031219170648045268,0.02757607385912157
0.6920000000000001,0.017800000000001655,-0.188,0.023825461400656472,1.0900521553535205,0.030259009724067653,0.02469934378327063
0.6930000000000001,0.03269999999999928,-0.188,0.022736269110602742,1.0917201901295162,0.02826297154698122,0.024825248005455925
0.6940000000000001,0.026200000000000657,-0.188,0.02276126669067628,1.0749382520321797,0.028308781753881504,0.023558537686634358
0.6950000000000001,0.03210000000000061,-1.188,0.022794731938663618,1.076629703206989,0.028370109687615865,0.02368620939204088
0.6960000000000001,0.03759999999999727,-1.188,0.02292692991949109,1.0783185011735308,0.028612373812210757,0.0238136808317647
0.6970000000000001,0.012999999999993982,-0.188,0.02331007568350408,1.0783185011735308,0.029314521246913174,0.0238136808317647
0.6980000000000001,-0.04120000000000257,0.812,0.023468998170380815,1.095048637197244,0.029605760318195836,0.025076481100339738
0.6990000000000001,-0.06429999999999922,0.812,0.023356465184252124,1.0950486371972443,0.02939953398098652,0.025076481100339755
0.7000000000000001,-0.0572999999999979,0.812,0.02338680038247935,1.0950486371972448,0.029455125830400036,0.02507648110033979
0.7010000000000001,-0.03839999999999935,1.812,0.02341773096163853,1.1094823810680043,0.029511808766374614,0.02616594837129943
0.7020000000000001,-0.03259999999999707,0.812,0.02361909526599453,1.1111212472299747,0.029880826103962636,0.026289650929758095
0.7030000000000001,-0.006199999999998434,1.812,0.02366976873917295,1.107433998989863,0.02997368958450077,0.026011335316465038
0.704,0.0079,0.812,0.02374892080218612,1.107433998989863,0.030118742520527007,0.026011335316465038
0.705,0.0124,0.812,0.023930617564637928,1.105789668053156,0.03045171740275733,0.025887220273673003
0.706,0.0164,1.812,0.024045122634161465,1.0892245232818984,0.030661557751726052,0.02463687363952259
0.707,0.0129,1.812,0.024226588970256122,1.1057896680531556,0.03099411035791744,0.02588722027367297
0.708,0.0293,0.812,0.024460102929654576,1.0929732046330731,0.03142204469246817,0.024919826259295428
0.709,0.0145,-0.188,0.024499380619236417,1.0929732046330731,0.031494024423346756,0.024919826259295428
0.71,0.0226,0.812,0.024493594386760912,1.0946367882505412,0.031483420656658295,0.025045394505480524
0.711,0.006,1.812,0.024520080715297522,1.0833690998038557,0.031531959122650666,0.024194902914944354
0.712,0.0039,0.812,0.02447521842789036,1.0888104713321791,0.031449745137853084,0.02460562076073138
0.713,0.0097,-0.188,0.024485154257642697,1.09048040543064,0.03146795339702624,0.024731668344866384
0.714,-0.0142,-0.188,0.02437818556804514,1.0921477861414814,0.0312719241098752,0.024857523197838464
0.715,-0.0239,-0.188,0.02425683918252617,1.0867231251339753,0.03104954646328411,0.024448066671752977
0.716,-0.0089,0.812,0.023856908644213536,1.0664557555545298,0.030316639491811362,0.022918273984356
0.717,-0.0064,0.812,0.023684286573385827,1.0664557555545298,0.030000294759364873,0.022918273984356
0.718,0.0103,-1.188,0.023580311246475652,1.0664557555545298,0.029809751065764625,0.022918273984356
0.719,0.0081,-0.188,0.02352562147368731,1.0664557555545298,0.029709527372135353,0.022918273984356
0.72,0.0302,-2.188,0.023466258114202734,1.0626135302301436,0.029600738930522827,0.02262826061179982
0.721,0.0154,-1.188,0.02339009145045718,1.0626135302301436,0.02946115699439846,0.02262826061179982
0.722,-0.0253,0.812,0.023413797875828864,1.0587573615805246,0.029504601049700943,0.02233719478905293
0.723,-0.0427,1.812,0.02340159533116393,1.0471036524238229,0.029482238841272525,0.021457566133785605
0.724,-0.0271,1.812,0.023093455717518047,1.060474621500451,0.02891754660251319,0.022466814553352664
0.725,-0.0032,0.812,0.022812026687781196,1.056610646794414,0.02840180379692701,0.022175159524987414
0.726,0.0011,-1.188,0.022103930420365438,1.0431901528446745,0.027104156727882356,0.021162172939575345
0.727,0.0051,1.812,0.02179618548131886,1.029594741179694,0.02654018776413601,0.020135983464630768
0.728,0.0088,0.812,0.02189109111310667,1.0353187756134177,0.026714110464469885,0.020568036868739
0.729,0.0122,-1.188,0.02199764606656513,1.0392619164892365,0.02690938154470335,0.02086566740503323
0.73,0.0035,-0.188,0.021982755265674687,1.0392619164892365,0.026882092876452445,0.02086566740503323
0.731,-0.0098,-0.188,0.021963140189666962,1.0527324897580084,0.026846146569344507,0.021882434006186623
0.732,-0.0166,-1.188,0.02195453206289631,1.0698628056187973,0.02683037143962285,0.023175440078529255
0.733,-0.0053,-0.188,0.0219508690494467,1.0698628056187973,0.026823658653684718,0.023175440078529255
0.734,0.0085,-0.188,0.022008732251024885,1.07156226836899,0.026929697927422877,0.02330371650224361
0.735,0.0176,0.8119999999993339,0.022442346769236506,1.0829528091166942,0.027724333677595737,0.024163481054966192
0.736,0.0288,-2.188,0.02300220134950083,1.0829528091166942,0.028750315155824126,0.024163481054966192
0.737,0.0273,-2.187999999999334,0.02331899137622812,1.0829528091166942,0.029330860017592022,0.024163481054966192
0.738,0.0337,0.812,0.023999617078036554,1.0812712493302354,0.030578164921897636,0.024036555957229068
0.739,0.0398,-0.18799999999977796,0.024583795887379068,1.0850474084367847,0.03164872263364479,0.024321582613747197
0.74,0.0229,0.812,0.02498779863093743,1.0904804054306376,0.032389092270075436,0.0247316683448662
0.741,-0.0091,-0.18800000000022205,0.02499810762276654,1.0942247842904047,0.03240798438072117,0.025014296210118376
0.742,-0.031,-1.188,0.025340101869246966,1.0979563937072352,0.03303471813430399,0.02529596023048925
0.743,-0.027,-0.18800000000022205,0.026469462040854087,1.1143917490438568,0.0351043673953151,0.026536510283626562
0.744,-0.0161,-1.188,0.026937045232081326,1.1143917490438568,0.0359612536487125,0.026536510283626562
0.745,-0.0258,-1.1879999999995559,0.027598529195477266,1.1305882089388053,0.03717347967760186,0.027759028371723147
0.746,-0.0443,0.812,0.028586572388311592,1.1253488624060854,0.0389841534691051,0.027363559488547393
0.747,-0.0413,1.811999999999556,0.02873865574743414,1.1200850084015432,0.03926285925290492,0.026966240767333532
0.748,-0.0115,-0.188,0.028827838221154627,1.1253488624060852,0.03942629377580659,0.02736355948854738
0.749,0.0164,-0.1880000000004441,0.028549313748551994,1.1253488624060852,0.0389158738199875,0.02736355948854738
0.75,0.0272,-2.188,0.02782157389943127,1.1217083837573185,0.03758222820470277,0.02708877407085034
0.751,0.0369,-1.187999999999778,0.027226308318672832,1.1180560514859,0.036491353034588635,0.02681309393491269
0.752,0.0162,-0.188,0.026956843448271678,1.1070267577988335,0.03599753557589379,0.025980596517648467
0.753,-0.0244,0.812,0.02676838520245663,1.1070267577988335,0.035652169696178446,0.025980596517648467
0.754,-0.0301,0.812,0.02676295093870964,1.095886467979669,0.03564221094233635,0.02513972104863226
0.755,-0.025,-0.1879999999995559,0.02677649834357846,1.0921477861414814,0.03566703772229573,0.024857523197838464
0.756,-0.0297,1.812,0.026763182844818212,1.0883962618672138,0.03564263593014653,0.024574355992599006
0.757,-0.034,0.811999999999778,0.02676075378138253,1.0753725209987979,0.03563818446331513,0.023591316557463732
0.758,-0.0141,-0.188,0.026746454571212667,1.0583313900026214,0.03561197993573826,0.022305042209885672
0.759,0.0041,-1.188,0.02659865404183079,1.0544595616417285,0.035341122804326455,0.02201279438314464
0.76,0.0139,-1.188,0.02667856254779192,1.0583313900026214,0.035487561986855445,0.022305042209885672
0.761,0.0111,-1.188,0.02664755811525078,1.0544595616417285,0.035430743708231786,0.02201279438314464
0.762,0.0137,-1.188,0.026640723369459007,1.0370748474836506,0.03541821845107046,0.02070058618132224
0.763,-0.003,-1.187999999999778,0.026663262977697333,1.0370748474836506,0.03545952421402077,0.02070058618132224
0.764,0.0035,-0.188,0.026650404174943226,1.0410113367348368,0.03543595935642565,0.020997714649171797
0.765,0.0093,-0.188,0.02662189945158472,1.0410113367348368,0.03538372200901654,0.020997714649171797
0.766,0.022,-0.188,0.026529304419034,1.0466729380676836,0.035214033679721916,0.021425055566995182
0.767,0.0173,-1.188,0.02652167191110275,1.0427578220066358,0.03520004645509977,0.021129540359803443
0.768,-0.0026,0.812,0.02652598403095739,1.0445013870271278,0.03520794878413077,0.021261145648190493
0.769,-0.0051,-0.188,0.02651290800757557,1.0388279508315168,0.035183985851127184,0.02083291142813358
0.77,0.0117,-1.188,0.026500825927910174,1.0561838094210863,0.03516184440513004,0.02214294159508462
0.771,0.0139,-0.188,0.026327597384105606,1.035318775613418,0.034844388259,0.020568036868739016
0.772,0.0197,-1.188,0.026282353550523923,1.0295947411796942,0.03476147505815249,0.020135983464630785
0.773,0.0107,1.812,0.026216961878111372,1.031360559266473,0.03464163921668455,0.0202692684272323
0.774,0.0027,-0.188,0.025975647269435943,1.0176071144028216,0.034199409524091826,0.019231150515756044
0.775,0.0041,0.812,0.025871543907149047,1.0176071144028216,0.03400863119469559,0.019231150515756044
0.776,-0.0082,0.812,0.02609277288095394,1.0135797331024445,0.03441405224075389,0.018927161463870176
0.777,-0.0328,-1.188,0.02628259095787316,1.0135797331024445,0.03476191012745745,0.018927161463870176
0.778,-0.022,0.812,0.026351669080415037,0.9954813647183925,0.03488850170458681,0.01756108623150167
0.779,0.0009,0.812,0.026341446686422895,0.9913641024237153,0.03486976829189571,0.01725031291058289
0.78,0.0038,1.812,0.026317229510010174,0.985384771295758,0.034825388241557086,0.016798989565477908
0.781,0.0118,1.812,0.02632595492505112,0.985384771295758,0.03484137831208154,0.016798989565477908
0.782,0.0096,-0.188,0.02630791159240687,0.9913641024237153,0.03480831235933043,0.01725031291058289
0.783,0.0161,-1.188,0.02625653852535212,0.985384771295758,0.034714166813083265,0.016798989565477908
0.784,0.0462,1.812,0.02625457525293495,0.9913641024237153,0.03471056894819524,0.01725031291058289
0.785,0.0505,0.812,0.026241101206273015,0.9913641024237153,0.03468587660343421,0.01725031291058289
0.786,0.0386,-0.188,0.026205831105301405,0.9931978935337921,0.0346212411219936,0.01738872851599298
0.787,0.0567,0.812,0.02607771959287341,0.9709803208996518,0.0343864658008077,0.015711733382796772
0.788,0.0534,0.812,0.02593673923699579,0.9709803208996661,0.03412810722159202,0.01571173338279785
0.789,0.0447,-1.188,0.02587307123117354,0.9728525354440876,0.034011430146808554,0.015853049211083672
0.79,0.0096,0.812,0.025687714891696675,0.9770478082710204,0.03367174877618247,0.01616971081174773
0.791,-0.0434,0.812,0.025588841382440657,0.9770478082710204,0.03349055460048023,0.01616971081174773
0.792,-0.0786,1.812,0.025573580795606714,0.9991304678533106,0.033462588267810185,0.017836522630363044
0.793,-0.0598,-0.188,0.025401042400369347,0.9991304678533106,0.03314639687805106,0.017836522630363044
0.794,-0.0656,1.812,0.02530549992770442,0.9991304678533104,0.032971307112254954,0.017836522630363026
0.795,-0.0812,-0.188,0.02525584947749334,0.9991304678533103,0.03288031840894164,0.01783652263036302
0.796,-0.0479,-0.188,0.025128016840377607,0.9991304678533152,0.0326460541506553,0.017836522630363387
0.797,-0.0262,-1.188,0.024744847864903014,0.9991304678533152,0.031943864178961084,0.017836522630363387
0.798,0.0097,0.812,0.024400294003287692,0.9991304678533236,0.03131243971137437,0.017836522630364025
0.799,0.005,-0.188,0.024375209061524128,1.0050280234230222,0.031266469406693274,0.018281673509400253
0.8,0.0007,-0.188,0.024324465846316645,1.005028023423022,0.031173478117912438,0.018281673509400236
0.801,-0.0033,-1.188,0.02417967240276149,0.9872296691485876,0.030908131728879844,0.016938243514205198
0.802,-0.0069,0.812,0.023907260620035405,0.9872296691485901,0.030408913800902573,0.01693824351420539
0.803,0.0029,-1.188,0.02390860607704801,0.9913641024237508,0.03041137946613663,0.01725031291058557
0.804,0.0116,-0.188,0.023799301728912335,0.9913641024237508,0.030211069884630515,0.01725031291058557
0.805,0.0091,-0.188,0.02364270563853436,0.991364102423751,0.02992409413422239,0.01725031291058558
0.806,0.016,0.812,0.02351848519627021,0.9913641024237514,0.02969644953243993,0.017250312910585614
0.807,0.0095,-0.188,0.023366226292453312,0.9728525354441037,0.029417422047949685,0.015853049211084887
0.808,-0.0086,-0.188,0.02316987572837008,0.9747211539027948,0.029057592818913135,0.015994093604755975
0.809,-0.0253,0.812,0.023154585561608754,0.9807654989539452,0.029029572278492198,0.016450324238095365
0.81,-0.0187,-0.188,0.023255618215404433,0.9807654989539452,0.029214723271526296,0.016450324238095365
0.811,-0.0005,-0.188,0.0235283504296748,0.9747211539027949,0.0297145284177582,0.015994093604755982
0.812,0.0116,0.812,0.023508937090216227,0.9747211539027949,0.029678951810158328,0.015994093604755982
0.8130000000000001,0.0051000000000002,0.812,0.023597798168064118,0.9747211539027875,0.02984179734759111,0.01599409360475542
0.8140000000000001,0.006900000000000199,-0.188,0.023769272356020905,0.9872296691485878,0.030156038486343344,0.016938243514205212
0.8150000000000001,0.008699999999998344,-1.188,0.02398579677698786,0.9931978935338167,0.030552838036311016,0.01738872851599484
0.8160000000000001,-0.006200000000000199,-0.188,0.0241441937611901,0.9931978935338167,0.03084311407892552,0.01738872851599484
0.8170000000000001,-0.0079999999999998,-1.188,0.024130956124606192,1.0401446841369357,0.030818854975884522,0.020932299213706148
0.8180000000000001,-0.006199999999999489,-0.188,0.024482829489427992,1.0344473538394985,0.03146369306012172,0.02050226145313045
0.8190000000000001,-0.0015999999999998446,1.812,0.024646276599241623,1.0304857902651186,0.03176322389053767,0.020203240360975955
0.8200000000000001,-0.000199999999999889,-0.188,0.024641659209206065,1.0304857902651186,0.0317547621277492,0.020203240360975955
0.8210000000000001,0.0008000000000018097,-0.188,0.02463099031950487,1.0247347597625152,0.031735210473422246,0.01976914927809551
0.8220000000000001,0.017100000000000722,-1.188,0.024591532091885637,1.0423253118484501,0.031662899891124356,0.021096894244843938
0.8230000000000001,0.02359999999999891,0.812,0.024553458869329935,1.0366399662598311,0.03159312744925173,0.020667761096967923
0.8240000000000001,0.013800000000002243,1.812,0.02458701783720712,1.0189512705683006,0.03165462713271274,0.01933260819454406
0.8250000000000001,0.033999999999999725,-0.188,0.025157627424557346,1.0366399662598187,0.0327003180827528,0.020667761096966986
0.8260000000000001,0.03149999999999869,-1.188,0.026084681937681518,1.0383938038108322,0.034399224894097226,0.020800141761853255
0.8270000000000001,0.019699999999997258,-0.188,0.026079679646388965,1.0401446841369257,0.03439005776678277,0.020932299213705395
0.8280000000000001,-0.004999999999998923,-0.188,0.025943299304456373,1.0553296167601334,0.034140129107181144,0.022078466642810636
0.8290000000000001,0.004700000000000322,-0.188,0.02587520172218052,1.0570524453198389,0.03401533445408717,0.02220850673123677
0.8300000000000001,0.007599999999999123,-0.188,0.025893762031692802,1.0570524453198389,0.03404934781123573,0.02220850673123677
0.8310000000000001,-0.0002999999999997557,-1.188,0.025941207764564655,1.0397110869382038,0.034136296181157995,0.020899571048302354
0.8320000000000001,0.0019000000000002442,-0.188,0.026006902134330448,1.0260695787201797,0.03425668674145629,0.019869902179079017
0.833,0.0041,-1.188,0.026260263078518004,1.0318131693517885,0.034720992375823274,0.02030343169622701
0.834,-0.0016,-0.188,0.026315222329501915,1.0300481271776634,0.03482170991133075,0.020170205299957895
0.835,0.0112,-1.188,0.025976246738846603,1.0180658389910586,0.034200508103140355,0.019265775310940415
0.836,0.0127,-0.188,0.025489639346086633,1.0198516189456872,0.03330875837072765,0.019400567006783446
0.837,-0.0039,-2.188,0.025197383565534272,1.0198516189456872,0.03277317461679938,0.019400567006783446
0.838,-0.0285,-1.188,0.024557668645832458,1.0158331362674309,0.031600842225322744,0.01909724962800221
0.839,-0.0252,0.812,0.023971108717073166,1.0158331362674307,0.03052592090826596,0.019097249628002192
0.84,-0.0045,0.812,0.023576059000281823,1.0140402795714545,0.029801958460346133,0.01896192377566087
0.841,-0.002,-2.188,0.023668814814802597,1.0158331362674236,0.029971941436374248,0.019097249628001654
0.842,-0.0089,-1.188,0.023361718413655246,1.0296102780499643,0.02940916097388518,0.02013715619651546
0.843,-0.0156,-0.188,0.022117920012949377,1.0117986938179433,0.027129793854709656,0.01879272759652905
0.844,0.0025,-1.188,0.021435543614994987,1.0176228342978952,0.025879280649743343,0.019232337062457926
0.845,-0.0044,-1.188,0.020408754455494865,0.9995976715809476,0.023997601555155162,0.01787178743585554
0.846,0.0068,0.812,0.01875636559961085,1.0036811590127945,0.020969457424999813,0.018180011410744334
0.847,-0.0029,1.812,0.018249615705041303,1.0251902950685972,0.02004079483251539,0.019803533344432474
0.848,0.0029,-1.188,0.018293470762593363,1.0405934735407592,0.020121162982319234,0.02096617409546913
0.849,0.0048,-0.188,0.018295646629164292,1.0366553975398036,0.020125150444205885,0.020668925858836333
0.85,0.0063,0.812,0.018329662306008698,1.0423406589600126,0.020187487085973264,0.021098052653632456
0.851,-0.0075,-1.188,0.018357048329502548,1.0630678818715031,0.020237674320047066,0.022662555334444223
0.852,-0.0165,0.812,0.018358001173192893,1.0574940592712467,0.0202394204877349,0.022241840005733392
0.853,-0.0085,0.812,0.018368520050635447,1.0592133673342448,0.0202586972317471,0.02237161436504761
0.854,-0.0127,0.812,0.018397572729028755,1.0536191539008604,0.02031193875369801,0.021949359924549886
0.855,-0.0061,-0.188,0.018524019607954405,1.0574940592712467,0.02054366349139017,0.022241840005733392
0.856,0.0128,-0.188,0.01851846497654028,1.0613548178254026,0.02053348415348677,0.0225332522771089
0.857,0.0154,-1.188,0.01847611145229123,1.0613548178254024,0.020455867692089402,0.02253325227710888
0.858,-0.0113,-1.188,0.018456295527744592,1.0613548178254026,0.020419553312828236,0.0225332522771089
0.859,-0.0221,-1.188,0.01847848827882174,1.0613548178254026,0.020460223430317205,0.0225332522771089
0.86,-0.0384,-0.18800000000022205,0.018518873246045668,1.0574940592712467,0.020534232342329765,0.022241840005733392
0.861,-0.0058,-1.188,0.018609409622313878,1.0574940592712467,0.02070014800763207,0.022241840005733392
0.862,0.0246,-1.1879999999993338,0.018610599432423443,1.0630678818715034,0.020702328436582828,0.022662555334444237
0.863,0.0286,1.812,0.018778741446388372,1.0762405332424436,0.02101046308104459,0.023656834619770497
0.864,0.0323,-1.187999999999778,0.01892129985911895,1.0779299409235974,0.021271713584627424,0.02378435208110314
0.865,0.0291,-0.188,0.018917261282264994,1.0779299409235974,0.021264312546578217,0.02378435208110314
0.866,0.0205,-3.187999999999334,0.018925887821457696,1.0762405332424434,0.021280121418640573,0.02365683461977048
0.867,0.0448,-0.188,0.018916709209556057,1.0930024763230906,0.021263300826045828,0.024922035703257107
0.868,0.0284,-0.188,0.018904784710738573,1.0875820783626506,0.021241448160451634,0.024512900954410763
0.869,0.0016,-0.188,0.018896008982990823,1.0875820783626506,0.021225365887581924,0.024512900954410763
0.87,-0.0093,-0.1879999999995559,0.01891702701362347,1.070735284428973,0.02126388322922402,0.023241295279841086
0.871,0.0006,1.812,0.018917212892697523,1.090923151036206,0.021264223868550536,0.02476508703726833
0.872,-0.0143,-0.188,0.018917258917701976,1.090923151036206,0.021264308213313925,0.02476508703726833
0.873,-0.0168,-0.188,0.018843281334896884,1.0909231510362059,0.021128737955540385,0.024765087037268315
0.874,-0.0534,1.811999999999334,0.018712459740142712,1.0871674008815524,0.020888996176332806,0.024481600860152077
0.875,-0.0691,-1.188,0.018684539139507704,1.07412876025751,0.020837829283853325,0.023497436782911083
0.876,-0.0064,-1.188000000000222,0.018390153940192503,1.0942540225002173,0.020298343187625675,0.025016503126974978
0.877,0.019,-2.188,0.018287119608283147,1.0888398549305223,0.020109523947974682,0.024607838651597706
0.878,0.0113,-1.1879999999995559,0.018269539900028595,1.0888398549305223,0.020077307626634035,0.024607838651597706
0.879,-0.0099,0.812,0.01837588399979206,1.1054107641684832,0.02027219229940866,0.025858620391003142
0.88,-0.0162,-0.18799999999977796,0.018395587518976797,1.1217369056039743,0.02030830068621495,0.027090926916204745
0.881,-0.022,0.812,0.018646773601972436,1.137828815441237,0.02076862070113845,0.028305553505945432
0.882,-0.0377,-1.1879999999995559,0.0191462570160547,1.1485623644495984,0.021683966845647506,0.029115727945131707
0.883,-0.0235,0.812,0.019898993089379535,1.1536962950026481,0.023063420183085645,0.029503239969663225
0.884,-0.0192,-1.188,0.02004554290954129,1.1485623644495984,0.023331985282709678,0.029115727945131707
0.885,-0.0072,-1.188,0.020084183628167877,1.1485623644495984,0.02340279770974671,0.029115727945131707
0.886,-0.0036,-0.188,0.020060604414784498,1.1469769975393933,0.0233595867813104,0.02899606354089977
0.887,0.0061,-0.188,0.020021536249089724,1.1521179926367204,0.023287991020903703,0.02938410880128772
0.888,0.0032,0.812,0.02002525947130249,1.1489548836512793,0.023294814144558106,0.029145355519743232
0.889,0.0111,0.812,0.019838086728799144,1.143799671530526,0.022951804059783986,0.028756237150267865
0.89,0.023,-1.1879999999993338,0.019686145398026555,1.143799671530526,0.022673358555102305,0.028756237150267865
0.891,0.0208,1.812,0.01968134895369322,1.1453894362787316,0.02266456865997448,0.028876233505836013
0.892,0.0226,-0.18800000000022205,0.01971027939511771,1.1261783555873108,0.022717586172208613,0.027426170109916395
0.893,0.0244,-1.188,0.019711202329054336,1.1209183969052134,0.022719277527710535,0.027029145409876214
0.894,-0.0003,-0.18799999999977796,0.01967809309731965,1.1209183969052137,0.02265860202425726,0.02702914540987623
0.895,0.0106,0.812,0.019713311684870498,1.1156336389907615,0.022723143102941434,0.026630248849545513
0.896,0.0203,-2.188,0.019770566745909886,1.1140014112658017,0.022828067907045946,0.026507047364122238
0.897,0.029,-2.188,0.019828732407055034,1.1140014112658014,0.02293466146385074,0.02650704736412222
0.898,0.0101,-0.188,0.019871591704868314,1.1029315720027937,0.023013204798631604,0.025671489543516647
0.899,0.0122,-1.188,0.019869430594305914,1.0975602108530393,0.023009244378394657,0.02526605612128331
0.9,0.01,-2.188,0.01987333163700282,1.0975602108530396,0.023016393373319222,0.025266056121283326
0.901,-0.0038,-0.188,0.019871504492569466,1.0938272498528065,0.02301304497462293,0.024984290082621548
0.902,-0.0093,-1.188,0.019885026382218448,1.0884109593566984,0.023037824995756195,0.02457546536754026
0.903,-0.0108,-0.188,0.01981907935639446,1.0900815054817412,0.022916971421587492,0.024701559147792908
0.904,-0.0246,0.812,0.01981190034896401,1.0863228455050207,0.02290381527548215,0.024417853335637087
0.905,-0.008,0.812,0.01980938687780804,1.0863228455050207,0.022899209124272544,0.024417853335637087
0.906,-0.0101,0.812,0.02004210551907257,1.0863228455050207,0.023325685970211996,0.024417853335637087
0.907,-0.0043,-0.188,0.0200204217327981,1.0863228455050207,0.02328594857432436,0.024417853335637087
0.908,0.0124,-0.188,0.019995268584423017,1.0846465103989198,0.023239853275184748,0.02429132259977185
0.909,0.028,-0.188,0.020122672671026638,1.0846465103989198,0.023473332177945904,0.02429132259977185
0.91,0.0261,-0.188,0.020345453748165064,1.0846465103989198,0.023881597586323702,0.02429132259977185
0.911,0.0021,-1.188,0.020366536867900967,1.0846465103989194,0.023920234209323366,0.024291322599771816
0.912,-0.0277,1.812,0.02085527478263271,1.0846465103989194,0.02481588830576032,0.024291322599771816
0.913,-0.0238,-1.188,0.021236855142725275,1.0846465103989262,0.02551516700367837,0.024291322599772337
0.914,-0.0058,-0.188,0.02116106828622234,1.0677534006811398,0.025376281096862255,0.023016220983237273
0.915,0.0104,0.812,0.02093740247814569,1.0622041652118288,0.024966394343249765,0.022597361505280876
0.916,0.0017,1.812,0.02113009569896734,1.0622041652118288,0.025319521177453473,0.022597361505280876
0.917,0.0042,-0.188,0.022122007976424423,1.020293655915912,0.027137285397972714,0.019433932210983138
0.918,0.0021,-0.188,0.02261812226700949,1.0242946393638268,0.028046457335057482,0.01973592873781531
0.919,-0.0091,-0.188,0.023272582902492296,1.0418926221467841,0.02924581251389325,0.0210642345778395
0.92,0.0008,-2.188,0.02415593820877629,1.047549460482266,0.030864636785214297,0.02149121598188827
0.921,-0.001,-0.188,0.024319627584303168,1.0475494604822664,0.031164611588303446,0.0214912159818883
0.922,0.0038,-1.188,0.02436919280207702,1.0340113675533131,0.03125544409587411,0.020469352958034565
0.923,0.0082,-0.188,0.024328837604138297,1.0397110869382218,0.03118148973862687,0.02089957104830371
0.924,0.0093,0.812,0.02427155397517624,1.0436376326242136,0.031076512581356797,0.02119594897014574
0.925,0.0082,-2.188,0.02368360696955913,1.02606957872021,0.02999904932713425,0.019869902179081314
0.926,0.0248,-0.188,0.022670111641189653,1.0242946393638397,0.02814173231690786,0.019735928737816284
0.927,0.018,-0.188,0.022724535666369887,1.0242946393638372,0.02824146900528003,0.019735928737816096
0.928,0.0203,1.812,0.022780494074850718,1.0027662918566433,0.028344017582493358,0.0181109567127514
0.929,-0.0098,1.812,0.02291126837939395,1.002766291856648,0.028583672698338274,0.01811095671275175
0.93,-0.0315,1.812,0.023022453023683682,1.004579269261268,0.028787428083622113,0.018247801287728887
0.931,-0.0435,1.812,0.023042176128573868,1.0086425889068527,0.028823572362911446,0.01855450298653621
0.932,-0.0543,-1.188,0.02294512562829735,1.0086425889068527,0.028645719007332045,0.01855450298653621
0.933,-0.0246,-0.188,0.022698290088942277,1.0086425889068575,0.028193371736318824,0.01855450298653658
0.934,-0.0126,-0.188,0.022596208576395334,1.0104450228994644,0.028006298619772642,0.01869055173872404
0.935,0.0056,0.812,0.02251685968429788,1.0086425889068575,0.0278608849775881,0.01855450298653658
0.936,0.0024,-1.188,0.022518502475644745,1.0242946393638426,0.02786389553346081,0.0197359287378165
0.937,0.0054,1.812,0.022524374924583788,1.0300481271777011,0.027874657299204436,0.020170205299960744
0.9380000000000001,-0.007999999999999745,-0.188,0.02251753048006338,1.0357696560408953,0.02786211426829204,0.02060206958216745
0.9390000000000001,-0.005699999999999267,0.812,0.02254278235731086,1.0375249647698341,0.02790839049654792,0.020734561292407833
0.9400000000000001,0.0009000000000010991,-1.188,0.022575184092914986,1.0335751973579042,0.02796776945273435,0.02043643058136493
0.9410000000000001,0.010799999999999801,-0.188,0.022492215909088804,1.045379730229685,0.027815723148410607,0.02132744349720488
0.9420000000000001,0.009000000000000166,-0.188,0.022402233768550925,1.0318131693518309,0.027650823167562687,0.020303431696230213
0.9430000000000001,0.010500000000000167,-0.188,0.02256604732242702,1.0318131693518307,0.027951025538114505,0.020303431696230195
0.9440000000000001,0.0120000000000004,-0.188,0.02264981927949291,1.0260695787202176,0.028104544825755175,0.019869902179081883
0.9450000000000001,0.01560000000000011,0.812,0.022916370947968234,1.031813169351831,0.028593023592361745,0.02030343169623023
0.9460000000000001,0.016599999999999632,0.812,0.02302827233578354,1.0488552448580395,0.028798092471555965,0.02158977733596756
0.9470000000000001,0.013299999999998556,-1.188,0.022960618334825048,1.033575197357905,0.028674110719225415,0.020436430581365
0.9480000000000001,0.0002999999999992672,-0.188,0.02277840076800955,1.0122442474264108,0.02834018141838397,0.01882635823860153
0.9490000000000001,-0.006299999999998668,-0.188,0.022897623920837804,1.0162769211071732,0.028558668059182783,0.0191307467623962
0.9500000000000001,0.005700000000000522,-0.188,0.023327864765157295,1.0104450228994597,0.029347121262942828,0.018690551738723686
0.9510000000000001,0.010399999999999167,-0.188,0.02392922436562914,0.9927437917629772,0.030449164246225454,0.017354452653720695
0.9520000000000001,0.0029000000000003997,-1.188,0.024487993000981468,0.9968553556114046,0.03147315563737523,0.01766479585264617
0.9530000000000001,0.006499999999997913,-0.188,0.024576032251039215,0.9968553556114045,0.031634495104980766,0.017664795852646163
0.9540000000000001,-0.012300000000002087,0.812,0.024624757809913998,0.9968553556114043,0.03172378886568958,0.017664795852646145
0.9550000000000001,-0.031099999999997536,-0.188,0.02451530613697006,0.9968553556114043,0.03152320929885175,0.017664795852646145
0.9560000000000001,-0.008899999999997714,-0.188,0.02450297426613313,0.992743791762973,0.031500610089134434,0.017354452653720376
0.9570000000000001,0.011700000000001499,0.812,0.024503816223895677,0.9945750390138977,0.03150215304886054,0.017492676247181732
0.9580000000000001,0.025200000000001332,-1.188,0.02450107789736471,0.9945750390138977,0.031497134830914035,0.017492676247181732
0.9590000000000001,0.03720000000000024,-1.188,0.024541927934272276,0.9945750390138975,0.03157199602296202,0.017492676247181725
0.96,0.0394,-0.188,0.024437881560506143,0.9945750390138978,0.031381322129912,0.017492676247181742
0.961,0.0452,-1.188,0.024307493276158387,1.0004994474272746,0.031142374429143683,0.017939853994269776
0.962,0.047,-1.188,0.024326081507469656,1.0004994474272697,0.031176438955380803,0.01793985399426941
0.963,0.0223,-0.188,0.024168946878954226,0.986315760988872,0.030888476287701968,0.016869261201813594
0.964,-0.0103,-0.188,0.024100295939748998,0.9803056382079379,0.03076266756063164,0.016415613685070454
0.965,-0.0408,-0.188,0.02413096123610336,0.9863157609888722,0.030818864343140955,0.01686926120181361
0.966,-0.0687,0.812,0.024137923255088543,0.9821600767939219,0.030831622839332058,0.01655558777381171
0.967,-0.0651,0.812,0.024137666126433015,0.9821600767939219,0.030831151629043898,0.01655558777381171
0.968,-0.0618,1.812,0.024171938878594916,0.9881589206805897,0.03089395938335292,0.017008383953142626
0.969,-0.0648,-1.188,0.024265985621950693,0.9941215663053555,0.031066308097058487,0.017458447866890815
0.97,-0.0297,-0.188,0.02426086559165825,0.9941215663053555,0.031056925202940636,0.017458447866890815
0.971,-0.0156,0.812,0.02426167021513632,0.9719251084563267,0.0310583997443922,0.015783046489792698
0.972,-0.0026,-1.188,0.02426853275169257,0.9719251084563272,0.031070975930510128,0.01578304648979273
0.973,0.0014,0.812,0.0244340054561636,0.9881589206805901,0.031374218836658155,0.01700838395314265
0.974,0.0051,-0.188,0.024431741645171274,0.9922894821813981,0.03137007020908554,0.017320161105772662
0.975,0.0083,0.812,0.024509659334968657,1.035334226585294,0.031512861050451375,0.020569203116963617
0.976,0.0169,-1.188,0.024632851593366843,1.019851618945709,0.03173862141722018,0.019400567006785087
0.977,0.0248,-0.188,0.024689518906766697,1.019851618945709,0.03184246912342589,0.019400567006785087
0.978,0.0269,-1.188,0.024765108875852596,1.019851618945709,0.03198099421718394,0.019400567006785087
0.979,0.0246,-1.188,0.02468335171094117,1.0059408336174493,0.03183116720876332,0.018350572946741753
0.98,0.0187,0.812,0.02467997281045452,0.9918349645035481,0.03182497508416832,0.01728585385059867
0.981,0.0059,0.812,0.024479563301506687,0.9775255663585173,0.03145770749095823,0.01620577226637964
0.982,0.017,-1.188,0.024216664348954454,0.958746840949221,0.03097592263919031,0.014788343295285545
0.983,0.0093,-1.188,0.023761462548333855,0.958746840949221,0.030141726344730328,0.014788343295285545
0.984,-0.003,0.812,0.023765628319034192,0.9587468409492209,0.030149360476399083,0.014788343295285536
0.985,-0.0077,-2.187999999999778,0.02380025028006388,0.9648912586933804,0.030212808185873272,0.015252127472925456
0.986,-0.0063,-1.188,0.023820586879934314,0.966775265120321,0.030250076747268904,0.015394333359271236
0.987,-0.0027,-1.188,0.02382058687993431,0.9648912586933805,0.030250076747268897,0.015252127472925465
0.988,0.0111,-1.188,0.023827287666221133,0.9520893074293255,0.030262356512161775,0.014285828844413472
0.989,-0.0165,-0.1879999999995559,0.02387284965617256,0.9582764138775607,0.030345852761811676,0.014752835189936274
0.99,-0.0126,1.812,0.02390235775514852,0.9601733997250751,0.03039992888099386,0.01489602077039592
0.991,0.0055,0.811999999999778,0.02390451350902459,0.9601733997250751,0.030403879484644226,0.01489602077039592
0.992,0.0353,-0.188,0.02387991201400877,0.966308746525868,0.030358795137542804,0.015359120268024669
0.993,0.0312,-0.18800000000022205,0.023863720851991614,0.9705323062833142,0.030329123446131877,0.015677916982437878
0.994,0.0348,-1.188,0.023844913031522332,0.9747375654332932,0.030294656503951613,0.015995332356496646
0.995,0.025,-2.187999999999778,0.02382344849547849,0.9747375654332932,0.03025532090289365,0.015995332356496646
0.996,0.0101,-1.188,0.023804566660991247,0.9705323062833142,0.03022071832368507,0.015677916982437878
0.997,-0.0033,-0.18799999999977796,0.02378898307396138,0.9705323062833142,0.030192160065486206,0.015677916982437878
0.998,-0.0255,0.812,0.02380365925477796,0.9686556072175694,0.030219055424066346,0.015536262659908878
0.999,-0.0463,-0.18799999999977796,0.023803822204554688,0.9747375654332932,0.030219354043491277,0.015995332356496646
1.0,-0.0543,0.812,0.023866255616768358,0.9932139997610046,0.030333768619725667,0.01738994422326642
1.0010000000000001,-0.052199999999993474,0.811999999999556,0.0239476449772492,0.9932139997610043,0.030482921595019308,0.017389944223266403
1.002,-0.0228,-1.188,0.02392607948453863,0.9991464784474986,0.03044340098222113,0.01783773111920091
1.0030000000000001,-0.018899999999997603,-0.18799999999977796,0.024004833342716587,0.9932139997610043,0.030587724173774658,0.017389944223266403
1.004,-0.0081,0.812,0.02405359750652196,1.0113529439200153,0.030677088681325862,0.018759082138415442
1.0050000000000001,0.0016000000000019096,-0.18800000000022205,0.02403832850821509,1.0113529439200153,0.030649106933911107,0.018759082138415442
1.006,0.0102,-1.188,0.023888301730856563,1.0171796366662413,0.030374170012370753,0.019198884250867448
1.0070000000000001,0.002100000000003708,-0.188,0.02387624132346661,1.0171796366662416,0.03035206828267491,0.019198884250867465
1.008,0.0188,-0.188,0.02391475134117057,1.0131505560977858,0.03042264118907474,0.018894766937251797
1.0090000000000001,0.016599999999997846,-0.18800000000022205,0.0240307049963133,1.0073005575539344,0.03063513619528359,0.018453205689819722
1.01,0.0069,-1.188,0.023956901315325282,1.005492486845574,0.030499884627487126,0.018316731475092236
1.0110000000000001,-0.009799999999997491,-1.1879999999995559,0.02370018649691101,1.0269636864312521,0.03002943273129034,0.019937389942243464
1.012,0.0015,0.812,0.02327128171257121,1.038843349610571,0.02924342797189654,0.020834073736814018
1.0130000000000001,0.015199999999999601,-0.18800000000022205,0.022792084199035716,1.038843349610571,0.02836525747792935,0.020834073736814018
1.014,0.0134,-1.188,0.0226822477339418,1.038843349610571,0.0281639727465135,0.020834073736814018
1.0150000000000001,0.011899999999997647,-0.1879999999995559,0.022672338850382667,1.042773162752727,0.02814581386854774,0.021130698288122536
1.016,0.0013,1.812,0.02235188488438467,1.0484252500918274,0.02755855452419523,0.02155732108423782
1.0170000000000001,0.013500000000001754,-1.188,0.021339033433751944,1.050159405602636,0.025702417475079172,0.0216882161374338
1.018,0.0214,-1.188,0.020353993011447625,1.0518907021745427,0.02389724651780424,0.02181889539628071
1.0190000000000001,0.007499999999998801,-0.188,0.01940327888708624,1.0344628178271191,0.022154981442069076,0.020503428683790913
1.02,0.0021,-0.188,0.018370391877061777,1.0344628178271191,0.0202621275140232,0.020503428683790913
1.0210000000000001,-0.005900000000005063,-0.1880000000004441,0.018256033612033915,1.040160063422745,0.020052556196868795,0.020933460051025282
1.022,-0.0287,-2.188,0.01850018838018522,1.0570675786145203,0.02049999072500308,0.02220964900100439
1.0230000000000001,0.007500000000003131,0.8119999999991119,0.018725170227700188,1.0570675786145203,0.020912289233624697,0.02220964900100439
1.024,0.0216,-3.188,0.018924768095986366,1.0570675786145203,0.021278069425793175,0.02220964900100439
1.025,0.0259,-1.188,0.01893089299041326,1.0570675786145203,0.02128929381951901,0.02220964900100439
1.026,0.0299,-0.188,0.019281597790994552,1.0570675786145203,0.021931990409680524,0.02220964900100439
1.027,0.0264,-0.188,0.019701097220460154,1.0570675786145203,0.022700759050558447,0.02220964900100439
1.028,-0.0032,0.812,0.020166958129978787,1.060929889146865,0.023554489075185713,0.022501178416584278
1.029,0.0088,0.812,0.020121972089340745,1.0609298891468653,0.023472048301991236,0.022501178416584295
1.03,-0.002,0.812,0.020167797099048645,1.0553447747596016,0.02355602655787644,0.02207961077730975
1.031,-0.0247,-0.188,0.020136741001679666,1.0514619487576238,0.0234991135990299,0.02178653284230803
1.032,-0.0276,-1.188,0.02013025198121959,1.0514619487576238,0.023487221913155436,0.02178653284230803
1.033,-0.025,-0.188,0.02010634313915573,1.0630678818715311,0.023443406911924536,0.022662555334446333
1.034,-0.018,-1.188,0.02008886742495647,1.0630678818715311,0.02341138116859885,0.022662555334446333
1.035,-0.0114,-1.188,0.020091860015155068,1.0592133673342727,0.02341686534649776,0.022371614365049725
1.036,0.0024,0.812,0.020116493164985524,1.0440849206203644,0.023462007703758714,0.021229710524795928
1.037,0.0078,-1.188,0.020200656794009914,1.0423406589600455,0.023616244763815884,0.021098052653634937
1.038,-0.0168,-1.188,0.020314633320121102,1.040593473540792,0.02382511651170385,0.020966174095471607
1.039,-0.0132,-1.188,0.020299581833915552,1.0388433496105753,0.023797533373847917,0.02083407373681435
1.04,-0.0034,-1.188,0.02023431833911464,1.0445167021656026,0.02367793242883363,0.021262301643632
1.041,-0.0005,-1.188,0.020199237026211472,1.030938784397838,0.02361364291770095,0.020237432618089114
1.042,0.0021,0.812,0.02020846021950886,1.032702304307135,0.023630545209522468,0.02037054411293538
1.043,-0.0047,0.812,0.0199521977806232,1.032702304307135,0.023160922337564914,0.02037054411293538
1.044,0.0065,-0.188,0.019715526322691072,1.0327023043071348,0.022727201616464392,0.020370544112935363
1.045,0.0124,-0.188,0.019407285705339398,1.032702304307135,0.022162324279761725,0.02037054411293538
1.046,0.0142,0.812,0.01928197428921278,1.0153891574676772,0.02193268037491811,0.019063737853395244
1.047,0.0157,0.812,0.019262658884248107,1.015389157467677,0.02189728324066786,0.019063737853395227
1.048,-0.001,-1.188,0.019278018709797062,1.0211928207619287,0.021925431436784444,0.019501801689595498
1.049,-0.0184,1.812,0.0191094586640824,1.017179636666253,0.02161653071333064,0.019198884250868336
1.05,-0.0206,-0.188,0.018541481576954604,1.0229731420331993,0.020575664045461094,0.019636181360885904
1.051,-0.0025,-1.188,0.017788124549298737,1.0189669697267236,0.019195072756017343,0.01933379317603165
1.052,0.0196,-0.188,0.017119717147001258,1.0149449844532734,0.01797015893224512,0.019030211419355025
1.053,0.0166,1.812,0.016987958252575538,1.0091053886458392,0.017728699471095736,0.0185894353764379
1.054,0.0087,0.812,0.016884568891240306,1.0149449844532736,0.01753922960960826,0.019030211419355042
1.055,0.0156,-1.188,0.01686591749718242,1.010906997472884,0.017505049332227133,0.018725421844655168
1.056,-0.0046,-0.188,0.016893839060341767,1.0149449844532734,0.017556217988614918,0.019030211419355025
1.057,-0.018,-0.188,0.01717775877921893,1.050159405602651,0.01807652519541539,0.021688216137434938
1.058,-0.0346,-0.188,0.01805229392717617,1.0540470298344984,0.019679185771024562,0.021981656245580933
1.059,-0.0322,0.812,0.018407997629319276,1.0540470298344984,0.020331043276528567,0.021981656245580933
1.06,-0.0183,-2.188,0.018340623119324162,1.0579203680004192,0.02020757371533097,0.022274018033271954
1.061,0.0057,1.812,0.018327558721625475,1.0561989551616529,0.020183632087387635,0.022144084804274797
1.062,0.0025,-1.188,0.01830857618396342,1.0505886905977009,0.02014884496098448,0.021720618815230013
1.063,-0.0004,-0.188,0.01838620023018863,1.0505886905977009,0.020291097675349357,0.021720618815230013
1.064,0.0077,0.812,0.018342315482755053,1.054474732148194,0.020210675116294246,0.02201393946167908
1.065,0.0147,-1.188,0.018460961752698655,1.0544747321481895,0.020428104569788313,0.022013939461678747
1.066,0.0169,-1.188,0.01855255871219429,1.0583465050096832,0.020595963844709644,0.02230618309929327
1.067,0.0111,-1.188,0.018554743152026723,1.0449483052950461,0.020599967017832427,0.0212948792955415
1.068,0.0057,-0.188,0.018526331621335643,1.0449483052950461,0.020547900453969713,0.0212948792955415
1.069,0.017,-1.188,0.018403351435745504,1.0842307101740598,0.020322528728788862,0.02425993776016968
1.07,0.0214,-1.188,0.018392765874361255,1.1041718639007774,0.02030312978074103,0.025765107487785915
1.071,0.0337,-2.188,0.018665283403566706,1.109511217204631,0.0208025414982005,0.026168124939441213
1.072,0.029,-1.188,0.019162275991440443,1.1148249984529799,0.021713322990306018,0.02656921219767108
1.073,0.0274,0.812,0.01953207878173908,1.1004613310348101,0.0223910182826522,0.02548503433757013
1.074,0.007,-0.188,0.020166534396729,1.1164560221169837,0.023553712547706405,0.026692322799882377
1.075,-0.0376,0.812,0.020610758362183474,1.0783481706646108,0.024367791018809166,0.023815920301978877
1.076,-0.0439,-1.188,0.020649277342934105,1.0930024763231316,0.02443838035075984,0.02492203570326021
1.077,-0.0498,0.812,0.02044205221147438,1.0967382446033842,0.024058622545436992,0.025204013637028972
1.078,-0.0234,-1.188,0.020435601060850257,1.1004613310348197,0.024046800259281034,0.02548503433757085
1.079,-0.0282,-0.188,0.020985931806560654,1.113191585051805,0.025055328494830893,0.026445921216726634
1.08,-0.0151,-0.188,0.02203461452190499,1.1469769975394362,0.02697712940601316,0.028996063540903002
1.081,-0.0031,0.812,0.023163224557085787,1.159196530710727,0.029045403977762656,0.029918400917520627
1.082,-0.014,1.812,0.02320919734734609,1.162719639783813,0.02912965305416975,0.030184327212286328
1.083,-0.0042,-1.188,0.02307304855285608,1.1611536024977167,0.028880148725092144,0.030066121819175475
1.084,0.0045,-0.188,0.022996670336530137,1.1611536024977165,0.028740179100741586,0.030066121819175458
1.085,0.0125,-1.188,0.02292762434890937,1.1595854502570504,0.028613646413607995,0.029947756788079902
1.086,0.0194,0.812,0.022950233793365256,1.1595854502570504,0.0286550801574095,0.029947756788079902
1.087,0.0216,0.812,0.022951366890186144,1.1560527896772848,0.02865715665440042,0.029681109540108375
1.088,0.0079,0.812,0.022985318510365567,1.1560527896772848,0.02871937590684181,0.029681109540108375
1.089,0.0024,-1.188,0.02292474127321549,1.1509293707468962,0.02860836293042053,0.02929439093888799
1.09,0.0039,0.812,0.022891523381981572,1.1493472688018513,0.028547488299126605,0.029174972976100128
1.091,0.0082,-1.188,0.022889990937510974,1.1441938245898247,0.02854467996335751,0.028785988049390046
1.092,0.0148,-0.188,0.022911569655777404,1.1580151744697804,0.02858422481311977,0.029829231470467975
1.093,0.0061,-0.188,0.02292366913508908,1.1544777089121565,0.02860639814545926,0.029562221540010102
1.094,0.0029,-1.188,0.022986829564985004,1.156052789677285,0.028722145043876286,0.02968110954010839
1.095,-0.012,0.812,0.02299858688955855,1.156052789677285,0.0287436913483475,0.02968110954010839
1.096,-0.0054,-1.188,0.0229868423384383,1.156052789677285,0.028722168452323688,0.02968110954010839
1.097,0.0083,-1.188,0.023214909254055328,1.1525093008706782,0.029140120612524422,0.029413644971360516
1.098,-0.0008,-0.188,0.023481702622781542,1.1677913327353373,0.02962904231554598,0.03056714150693624
1.099,0.0006,-1.188,0.024086642307902195,1.1627196397838089,0.030737646110635185,0.03018432721228601
1.1,0.0143,-0.188,0.024553256396177402,1.1521179926367553,0.03159275639985487,0.02938410880129035
1.101,0.0196,-0.188,0.024767424627357162,1.157236149206428,0.03198523803019471,0.029770430196503807
1.102,0.0082,-0.188,0.02477487872852559,1.1556626812718975,0.03199889830914079,0.029651663933784666
1.103,-0.0023,-1.188,0.024812657957932856,1.1591965307107186,0.032068131983384006,0.029918400917519992
1.104,0.0013,-0.188,0.02546985476079612,1.1591965307107186,0.033272501423338006,0.029918400917519992
1.105,-0.0099,0.812,0.025862651163237653,1.1712885898611753,0.03399233447968183,0.030831116481887102
1.106,-0.0328,2.812,0.0261442893833985,1.1697340247224621,0.03450846064464026,0.030713777013044653
1.107,-0.0556,0.812,0.026530769637325757,1.1732254909098354,0.03521671881775936,0.030977314884636748
1.108,-0.0407,-0.188,0.026797193170628737,1.178251963118844,0.035704962765685924,0.03135671589168918
1.109,-0.0055,0.812,0.026695127990415617,1.178251963118844,0.03551791957954058,0.03135671589168918
1.11,-0.0007,0.811999999999778,0.026505096707728854,1.1747754358455897,0.03516967097500375,0.031094305617908307
1.111,-0.0051,-0.188,0.026444202620724017,1.16115360249771,0.03505807734408071,0.030066121819174972
1.112,-0.017,0.812,0.02644356712828023,1.16115360249771,0.035056912749738066,0.030066121819174972
1.113,0.0084,0.812,0.026444335221050642,1.1560527896772814,0.03505832034553845,0.029681109540108122
1.114,0.0248,-1.1879999999995559,0.026459799161407553,1.1595854502570473,0.03508665934095959,0.02994775678807967
1.115,0.0219,0.812,0.02650997373395306,1.1716734956356458,0.035178608543349636,0.0308601693906434
1.116,0.0031,0.811999999999556,0.02652122488314776,1.1716734956356458,0.03519922723807764,0.0308601693906434
1.117,-0.0089,-1.188,0.02646842470709319,1.1701194418645826,0.03510246639233514,0.03074286852012465
1.118,0.0024,-3.187999999999778,0.026457483037783797,1.1701194418645826,0.03508241484600853,0.03074286852012465
1.119,0.0042,-2.188,0.026459837514166654,1.1701194418645826,0.03508672962567613,0.03074286852012465
1.12,0.0318,-1.188,0.02640500737726535,1.1701194418645826,0.03498624870278557,0.03074286852012465
1.121,0.0437,-1.188,0.026317863575292783,1.1701194418645828,0.03482655022050461,0.03074286852012467
1.122,0.0474,-1.188000000000222,0.026128349276010116,1.151321082966829,0.03447924903234313,0.02932395760205404
1.123,0.0507,-2.188,0.02597820519026237,1.1461765134616597,0.034204097133130315,0.028935642543310793
1.124,0.0477,-1.188000000000222,0.025873146719951123,1.142602396323372,0.03401156848646022,0.0286658661305099
1.125,0.0288,-2.188,0.025877016125582245,1.1615418667570632,0.03401865950375155,0.030095428228297662
1.1260000000000001,0.0066999999999927395,0.812,0.02564058967474388,1.1631073812744261,0.03358538777913885,0.030213594162524497
1.127,-0.026,0.812,0.025267346970186125,1.1580151744697769,0.032901388549232885,0.029829231470467704
1.1280000000000001,-0.04790000000000442,1.812000000000222,0.024779439700081726,1.1580151744697769,0.03200725668023263,0.029829231470467704
1.129,-0.0678,2.812,0.02471943175429211,1.1564427664855261,0.0318972869789977,0.02971054521340399
1.1300000000000001,-0.07149999999999049,1.811999999999778,0.024683059584465334,1.1751591995564974,0.03183063186197136,0.031123272323051447
1.131,-0.0287,0.812,0.02468873104977626,1.180177435970987,0.03184102530799922,0.031502051687607016
1.1320000000000001,-0.011400000000001133,0.811999999999778,0.024686962466313946,1.181718262751585,0.03183778422729897,0.031618354177294423
1.133,-0.0165,-0.188,0.024752281288611722,1.1662321058289362,0.03195748656469089,0.0304494501651933
1.1340000000000001,-0.0023000000000028865,0.811999999999556,0.024749652471032172,1.1662321058289364,0.031952669031278934,0.030449450165193317
1.135,-0.0153,-1.188,0.02477195031344706,1.1662321058289364,0.031993531737646956,0.030449450165193317
