time_sec,bts_raw,diy_raw,bts_rms,diy_rms,bts_norm_rms,diy_norm_rms
0.0,-0.0057,2.637,0.03212392258327889,0.9258808659641916,0.2949275417497826,0.056359422215044606
0.0010000000000000009,-0.0423,-2.363,0.03174212720548226,0.9276700982852829,0.291030108529688,0.05693794540782111
0.0020000000000000018,-0.0474,0.637,0.031010050359718225,0.9294558862832875,0.28355694152905825,0.057515354927003846
0.0030000000000000027,-0.06149999999999563,-2.363,0.03053234237379695,0.9304230120649255,0.27868041582416675,0.057828061493062556
0.0040000000000000036,-0.02209999999999827,-3.363,0.030475991256205485,0.9313891336134891,0.27810517387399464,0.05814044335443217
0.0050000000000000044,-0.006499999999998434,-2.363,0.030473943532303805,0.9323542540507889,0.2780842703544024,0.05845250152050643
0.006000000000000005,0.007600000000001443,-0.363,0.03046174779393314,0.9333183764824949,0.27795977414875495,0.0587642369954602
0.007000000000000006,0.020599999999998658,-0.363,0.03046008461783942,0.9342815039982529,0.2779427961596658,0.05907565077828711
0.008000000000000007,0.008499999999999602,-0.363,0.030492391648528218,0.9450729966969995,0.2782725919140717,0.06256492868664466
0.009000000000000008,0.004900000000000366,-1.3629999999999982,0.030641517343628705,0.9468259620330823,0.27979489279002395,0.06313172545814419
0.010000000000000009,0.0082000000000023,-0.363,0.030965669285550126,0.9485756878994406,0.28310389185149415,0.06369747479251336
0.01100000000000001,0.028900000000002698,0.637,0.03095936652100373,0.9495233396326886,0.28303955214140303,0.06400388469797744
0.01200000000000001,0.05319999999999748,-0.363,0.03082173305106753,0.9625116634420318,0.2816345658866664,0.06820347715470951
0.013000000000000012,0.030499999999997713,-2.362999999999998,0.03066725526009599,0.9963837255181298,0.2800576298908095,0.07915553366922413
0.014000000000000012,0.009899999999997303,-1.363,0.030249602909157177,0.9980465729470808,0.27579416249004235,0.07969319207856371
0.015000000000000013,-0.0143999999999989,0.637,0.029228982394783363,0.9997066545069297,0.2653754918377504,0.08022995618289615
0.016000000000000014,-0.0045000000000003215,-0.363,0.02890212222455483,1.0286771791856466,0.2620388467135315,0.08959716928092429
0.017000000000000015,-0.007399999999999101,0.637,0.02892501914900608,1.029551104030614,0.2622725824766759,0.08987974063043405
0.018000000000000016,0.0007000000000013433,0.637,0.02891943919484356,1.0393538936201017,0.26221562133994053,0.09304933524627894
0.018999999999999906,0.0128,0.637,0.02885255017267329,1.0402188486162818,0.2615328066380692,0.09332900632090659
0.019999999999999907,0.0108,0.637,0.028418777635789694,1.0680910995455792,0.25710478159237227,0.10234110799569081
0.020999999999999908,-0.0029,1.637,0.026597746725441778,1.0952542813613584,0.23851538324562357,0.11112394211107748
0.02199999999999991,-0.0231,-0.363,0.025572151793454012,1.1044740744865833,0.22804593287836722,0.11410503299160143
0.02299999999999991,-0.0365,-1.363,0.02547100759474082,1.1052880701637524,0.22701343541242194,0.11436822708468317
0.02399999999999991,-0.0484,2.637,0.025493591073047415,1.106787310796585,0.22724397146313413,0.11485298552964442
0.02499999999999991,-0.0549,-0.363,0.025421122268803196,1.1363670083013575,0.22650419738123734,0.12441716612268594
0.025999999999999912,-0.0288,0.637,0.025457283679498392,1.1378252989144697,0.2268733393130813,0.12488868395273447
0.026999999999999913,0.0111,0.637,0.026025714952891514,1.1392817229043164,0.23267598402043307,0.12535959823631307
0.027999999999999914,0.0375,1.637,0.026430490989880033,1.1407362874204767,0.23680800778238023,0.12582991128513796
0.028999999999999915,0.0614,-0.363,0.026458005942270754,1.1421889995670058,0.23708888517308044,0.1262996253962058
0.029999999999999916,0.057,0.637,0.02639280121104559,1.1436398664028389,0.23642326400435154,0.1267687428519243
0.030999999999999917,0.069,0.637,0.026412243298094076,1.145088894942191,0.2366217321900274,0.12723726592024162
0.03199999999999992,0.0437,-0.363,0.02642907335366218,1.1558817876732295,0.23679353630679204,0.13072699650941763
0.03299999999999992,0.0074,0.637,0.026537111782870562,1.1646217186053462,0.2378964112694844,0.1335529306756473
0.03399999999999992,-0.0067,-1.363,0.027025247407515725,1.189582738341126,0.24287938411316573,0.14162372654842298
0.03499999999999992,-0.0022,-1.363,0.027394037073485287,1.1909758707266898,0.24664405277854426,0.14207417637886488
0.03599999999999992,-0.022,0.6369999999999931,0.02752900348669252,1.1917307839803895,0.24802181325711944,0.14231826699842917
0.03699999999999992,-0.0255,-0.363,0.027493816646405527,1.1931214082315926,0.247662619908483,0.14276790585878008
0.03799999999999992,-0.0156,0.637,0.027465344438908707,1.194510413547979,0.2473719706921726,0.14321702125924926
0.038999999999999924,-0.0184,1.637,0.027445011107849474,1.2029697288158057,0.24716440453355962,0.14595222228359764
0.039999999999999925,-0.0318,0.637,0.027661872101925535,1.23023899900085,0.2493781590513133,0.1547693585862298
0.040999999999999925,-0.0438,2.637,0.027803189646981398,1.2402911450209368,0.2508207529817624,0.1580195791088779
0.041999999999999926,-0.0235,1.637,0.02780014907080987,1.2410160600293068,0.2507897142545585,0.1582539702162764
0.04299999999999993,-0.01,0.6369999999999931,0.027770217158400435,1.2674670360471332,0.250484164118151,0.16680652256931808
0.04399999999999993,-0.0266,-0.363,0.027763089573899825,1.2687746532620083,0.2504114045033751,0.167229322267916
0.04499999999999993,0.0072,-0.363,0.02787141514599635,1.29465862179015,0.25151721067030997,0.17559854069646175
0.04599999999999993,0.0214,-1.363,0.027883550871707137,1.2959388026714826,0.25164109425635056,0.17601246924116204
0.04699999999999993,0.0084,0.637,0.028067166950456503,1.2972177201856367,0.2535154789311762,0.17642598929379272
0.04799999999999993,-0.0034,0.637,0.028277962015494908,1.2984953780655695,0.2556673113966554,0.17683910206135323
0.04899999999999993,0.0149,-0.363,0.028077500358323362,1.2997717800258901,0.25362096414508717,0.1772518087449104
0.04999999999999993,0.0378,0.637,0.028317851688150295,1.3010469297629874,0.2560745120711188,0.1776641105396397
0.050999999999999934,0.035,0.6369999999999931,0.02906360627821234,1.2832195165297573,0.2636873038501068,0.17189986634336687
0.051999999999999935,0.0052,-0.363,0.03012229741763698,1.2681364374796475,0.27449460602444375,0.16702296414005338
0.052999999999999936,0.001,-0.363,0.030517546981075894,1.2681364374796475,0.2785293818974907,0.16702296414005338
0.05399999999999994,-0.0027,-0.363,0.030159424658931684,1.252871789340107,0.27487360732201715,0.16208735411658215
0.05499999999999994,0.0005,-0.363,0.030114326159303696,1.2838107430862122,0.2744132340413323,0.1720910311636435
0.05599999999999994,0.0034,-0.363,0.030111171576446303,1.306389041443193,0.27438103151417,0.17939140747529764
0.05699999999999994,-0.0209,-1.363,0.030104103375269677,1.3134438058562523,0.2743088780946313,0.18167246666723078
0.05799999999999994,-0.0307,0.637,0.030083167962799293,1.31402143346403,0.2740951657848874,0.18185923445805832
0.05899999999999994,-0.0455,0.6369999999999931,0.030168736391268366,1.3140214334640299,0.27496866309549206,0.18185923445805827
0.05999999999999994,-0.0212,-0.363,0.03019295393470915,1.3069697869742714,0.27521587996558594,0.179579183402923
0.06099999999999994,-0.0179,1.637,0.03018632908626334,1.307550274568546,0.27514825236736884,0.1797668759302981
0.061999999999999944,-0.0266,2.637,0.03004848793186654,1.31402143346403,0.2737411460337546,0.18185923445805832
0.06299999999999994,0.0031,0.637,0.029574445566245534,1.3227576197188509,0.2689020396145888,0.18468395783537048
0.06399999999999995,0.0071,0.637,0.029495803681709804,1.3010469297629874,0.26809924966189413,0.1776641105396397
0.06499999999999995,0.0252,-2.363,0.029579553644336364,1.3010469297629874,0.268954183758808,0.1776641105396397
0.06599999999999995,0.0153,-0.363,0.029857521543128675,1.3010469297629874,0.2717917281238686,0.1776641105396397
0.06699999999999995,0.0059,-1.363,0.030014941738597766,1.3098696524338258,0.27339870069350986,0.18051681425415897
0.06799999999999995,0.0146,-0.363,0.030238331494621472,1.3163294091699447,0.2756791019418963,0.1826054860535034
0.06899999999999995,0.039,-2.363,0.030402232148528337,1.3244775611184973,0.277352228151591,0.18524007677989363
0.06999999999999995,-0.0038,-2.363,0.0303778334705367,1.3244775611184973,0.2771031622286881,0.18524007677989363
0.07099999999999995,-0.0212,-1.3629999999999862,0.030401762660121602,1.3239044955908623,0.2773474355327714,0.18505478407373718
0.07199999999999995,-0.0161,-0.3629999999999861,0.030519717812946046,1.3239044955908623,0.27855154212450756,0.18505478407373718
0.07299999999999995,-0.0115,0.637,0.030652017559384903,1.3239044955908623,0.27990208080770645,0.18505478407373718
0.07399999999999995,0.0102,2.637,0.030436108967000403,1.3239044955908623,0.27769804857106833,0.18505478407373718
0.07499999999999996,0.0301,0.637,0.0301011489110263,1.2998798869604373,0.2742787184128767,0.1772867636069472
0.07599999999999996,0.0627,0.637,0.029675341148207215,1.306969786974271,0.26993199915775457,0.17957918340292287
0.07699999999999996,0.0497,0.637,0.029537168152963367,1.3063890414431925,0.26852150533540614,0.1793914074752975
0.07799999999999996,0.0138,0.637,0.02954402598162092,1.3058080376311656,0.26859151123590164,0.1792035480361476
0.07899999999999996,-0.0003,0.637,0.029347340226692734,1.297542652355385,0.26658370904719936,0.17653105155656468
0.07999999999999996,-0.0133,0.637,0.02914412860818568,1.2981273555172297,0.2645092897149139,0.17672010712862732
0.08099999999999996,-0.0094,1.637,0.02895081321689851,1.2975426523553852,0.2625358927809166,0.17653105155656476
0.08199999999999996,-0.0276,-1.363,0.028124787601000806,1.2969576855937668,0.25410368049320364,0.17634191075320993
0.08299999999999996,-0.0573,-2.363,0.02779907158163324,1.2969576855937668,0.2507787150587706,0.17634191075320993
0.08399999999999996,-0.0454,0.637,0.027793006311965563,1.2963724548755393,0.2507167997374588,0.17615268460318523
0.08499999999999996,-0.0347,-0.363,0.027799206173632955,1.2898127517905256,0.2507800889971715,0.1740316965527942
0.08599999999999997,-0.0315,0.637,0.027877015767748623,1.282628017447832,0.2515743827853745,0.17170861340579915
0.08699999999999997,0.0073,0.6369999999999723,0.027791250982111226,1.29098889522833,0.25069888102685,0.17441198604833982
0.08799999999999997,0.0021,-1.363,0.027673748011628748,1.29098889522833,0.24949939039063246,0.17441198604833982
0.08899999999999997,0.0354,2.637,0.02763062693548517,1.29098889522833,0.24905920299072704,0.17441198604833982
0.08999999999999997,0.031,1.637,0.027569076284190145,1.282628017447832,0.24843088330163046,0.17170861340579915
0.09099999999999997,-0.0209,-0.363,0.027393790911460717,1.282036245463227,0.24664153991404178,0.17151727222897503
0.09199999999999997,-0.0141,2.637,0.027040884485722245,1.2566080714762755,0.24303901011078524,0.16329542857681303
0.09299999999999997,0.0047,0.637,0.026970282032532492,1.2474086950065357,0.24231828806310113,0.1603209391356762
0.09399999999999997,-0.0246,2.637,0.02695463077307692,1.246800206896518,0.24215851730083968,0.16012419303399653
0.09499999999999997,-0.009,0.637,0.026836619416546983,1.2724243966929114,0.24095383697196157,0.1684094156507436
0.09599999999999997,-0.0329,0.637,0.026920680517569087,1.2724243966929114,0.24181194722340568,0.1684094156507436
0.09699999999999998,-0.0459,0.637,0.02729452730443917,1.265740588833563,0.2456282398531954,0.16624830006104957
0.09799999999999998,-0.0019,0.637,0.02780389324754691,1.2904009575097777,0.2508279354579713,0.174221884627702
0.09899999999999998,0.0391,0.637,0.028128276388190137,1.3145988072653825,0.2541392946359626,0.18204592018413562
0.09999999999999998,0.0657,-1.363,0.028363018190537364,1.3145988072653825,0.2565355795357244,0.18204592018413562
0.10099999999999998,0.0898,-1.363,0.028115575078673526,1.3145988072653825,0.2540096374726558,0.18204592018413562
0.10199999999999998,0.0682,0.6369999999999723,0.028607905598704353,1.335521222100736,0.25903543253363387,0.18881088976827579
0.10299999999999998,0.0402,-1.3630000000000415,0.029468054594231612,1.335521222100736,0.2678159821797445,0.18881088976827579
0.10399999999999998,0.0148,-4.362999999999986,0.029883519426772052,1.3424228984268465,0.27205711901453,0.1910424500730081
0.10499999999999998,0.0049,-3.363,0.029934447678308142,1.3424228984268465,0.2725770034105213,0.1910424500730081
0.10599999999999998,-0.0038,-1.363,0.030024696254248716,1.342988062002579,0.2734982764756038,0.19122518779377223
0.10699999999999998,-0.0172,0.637,0.030077721593393322,1.342988062002579,0.2740395683044406,0.19122518779377223
0.10799999999999998,-0.0242,-0.363,0.030007279661282107,1.336089305077378,0.27332048488367655,0.1889945714364051
0.10899999999999999,-0.013,-0.363,0.029903904113688578,1.3360893050773779,0.27226520942261245,0.18899457143640505
0.10999999999999999,0.0052,0.637,0.02970741770170588,1.336089305077378,0.2702594421611595,0.1889945714364051
0.11099999999999999,-0.0017,-1.363,0.02974999652904573,1.3600322498103767,0.27069409419153423,0.19673618702658027
0.11199999999999999,0.0006,1.637,0.029698243110462933,1.375211044525524,0.2701657863476779,0.20164403754861315
0.11299999999999999,-0.0215,-0.363,0.029578726161697006,1.3600322498103767,0.2689457366729729,0.19673618702658027
0.11399999999999999,-0.0243,-1.363,0.02961233167144264,1.3594741719001384,0.26928878752606783,0.19655574035643952
0.11499999999999999,-0.0431,0.637,0.02965058951496937,1.379716251510231,0.2696793302066806,0.2031007330812101
0.11599999999999999,-0.031,1.637,0.02983132937256571,1.3589158647991637,0.27152435391874435,0.19637521958068657
0.11699999999999999,-0.0374,-1.363,0.02989722613305185,1.36569931944852,0.2721970394418051,0.1985685545632598
0.118,-0.0315,1.6369999999999862,0.029935516318738763,1.3594741719001382,0.2725879122767802,0.19655574035643947
0.119,-0.0038,0.6369999999999861,0.030068330369986972,1.3600322498103765,0.2739437010723843,0.19673618702658022
0.12,0.0162,-0.363,0.030337356703486508,1.3389261045500944,0.2766899683931475,0.1899118107847428
0.121,0.027,1.637,0.031526801603921926,1.3180577388065418,0.2888320275641686,0.18316431721687326
0.122,0.0367,-0.363,0.03198668704081995,1.3325758914099815,0.2935266176075263,0.1878585583717813
0.123,0.004,-1.363,0.031998157068583985,1.3411912239828154,0.29364370563384273,0.19064420540493313
0.124,-0.0178,0.637,0.03211437685424989,1.3491892364487743,0.29483009729761994,0.1932302506340125
0.125,-0.0217,-1.363,0.032116556097156815,1.3463740614872544,0.29485234338595423,0.19232000326827653
0.126,-0.0036,-0.363,0.03197946893602585,1.345810319838935,0.29345293394594557,0.19213772530781145
0.127,0.0128,-0.363,0.03135945298723492,1.345810319838935,0.2871237039543416,0.19213772530781145
0.128,0.015700000000003895,0.637,0.03096747171752989,1.345810319838935,0.2831222913887422,0.19213772530781145
0.129,0.05079999999999948,0.637,0.030936928131158888,1.3452463419479233,0.2828104971787908,0.19195537096158294
0.13,0.0460999999999956,-0.363,0.030962830476600554,1.3446821275169687,0.28307491279897284,0.19177294013347934
0.131,0.006499999999998256,-0.363,0.0309473935035569,1.344117676248197,0.28291732950944937,0.19159043272718715
0.132,-0.009199999999999478,-0.363,0.030963928896675645,1.3355212221007338,0.2830861256609907,0.18881088976827506
0.133,-0.004500000000000488,-0.363,0.030860107679133834,1.3498515615506506,0.2820263007240485,0.19344440417241926
0.134,-0.008900000000001332,0.637,0.03038315364033007,1.337224747027799,0.27715747144167246,0.18936170067648567
0.135,-0.02089999999999799,-0.363,0.030042609350747287,1.3372247470277991,0.2736811364614192,0.18936170067648575
0.136,-0.0027999999999996335,1.637,0.029854821622346168,1.3377921066160723,0.2717641668657672,0.18954514844712514
0.137,0.000499999999999678,-0.363,0.029689584729137776,1.3377921066160723,0.27007740009427783,0.18954514844712514
0.138,-0.002399999999999711,0.637,0.02969353614609006,1.3372247470277991,0.27011773684163487,0.18936170067648575
0.139,0.00020000000000076605,0.637,0.029701625842727675,1.330296102574261,0.2702003178634322,0.18712142060574052
0.14,0.007099999999999279,-0.363,0.029544183531463864,1.3058080376311618,0.2685931195319351,0.17920354803614638
0.14100000000000001,0.0005999999999984789,-0.363,0.02953556399611856,1.2975426523553812,0.2685051298250129,0.17653105155656346
0.14200000000000002,-0.013099999999998991,-0.363,0.02985512643352991,1.2975426523553812,0.2717672784310256,0.17653105155656346
0.14300000000000002,-0.004000000000000511,-0.3629999999999167,0.02989929595855336,1.2730206368162387,0.27221816857834924,0.16860220153759722
0.14400000000000002,-0.008600000000001532,2.636999999999917,0.029949993404272155,1.2814442001978588,0.2727356968686567,0.17132584269064646
0.14500000000000002,-0.022400000000003042,-0.363,0.03046212393806389,1.2814442001978588,0.2779636138930683,0.17132584269064646
0.14600000000000002,-0.04980000000000042,0.637,0.030942068552307064,1.2898127517905216,0.2828629714865307,0.17403169655279294
0.14700000000000002,-0.053599999999998794,2.637,0.03081911080545253,1.2981273555172257,0.28160779755010323,0.17672010712862604
0.1479999999999999,-0.0427,2.637,0.03058111306838959,1.3063890414431887,0.27917827550588786,0.17939140747529628
0.1489999999999999,-0.0393,-0.363,0.030740946902358717,1.3145988072653807,0.2808098869145995,0.18204592018413504
0.1499999999999999,0.0054,0.637,0.03125312280684752,1.321035439018252,0.28603826709093033,0.18412711484427088
0.1509999999999999,0.0634,-2.363,0.03326366632614988,1.3858504759749595,0.3065622429122111,0.20508414858332774
0.1519999999999999,0.0709,-0.363,0.03432682873821414,1.4204035162018596,0.3174151886106324,0.21625638983817433
0.1529999999999999,0.0497,-1.363,0.033854503414119747,1.4198691673453223,0.31259361004820685,0.21608361562495654
0.15399999999999991,0.0177,-0.363,0.03361748985888218,1.4138825429643416,0.3101741347022071,0.21414792454112555
0.15499999999999992,0.0233,0.637,0.033591203198314684,1.3441176762481972,0.30990579592678147,0.1915904327271872
0.15599999999999992,0.0182,-0.363,0.03358890089366248,1.3010469297629832,0.30988229360287683,0.17766411053963835
0.15699999999999992,0.0039,-0.363,0.03359127110631602,1.3010469297629823,0.3099064891433988,0.17766411053963807
0.15799999999999992,-0.018,0.637,0.033573522293871484,1.3092901931605494,0.3097253061976079,0.18032945421996546
0.15899999999999992,-0.03,0.637,0.03354762739592995,1.3092901931605492,0.30946096660279476,0.18032945421996538
0.15999999999999992,-0.0265,2.637,0.033552929365453746,1.318057738806538,0.30951509002428096,0.18316431721687204
0.16099999999999992,-0.0037,2.637,0.03356005739635198,1.3261952719296324,0.309587854195961,0.18579547449488595
0.16199999999999992,-0.0009,1.637,0.033561686241609684,1.3197838051021566,0.3096044817299411,0.18372241656066
0.16299999999999992,-0.0144,-0.363,0.03360951642791109,1.3197838051021566,0.3100927405404333,0.18372241656066
0.16399999999999992,-0.0166,-2.363,0.03377499231703429,1.3284820981599048,0.31178194702353795,0.18653488770381757
0.16499999999999992,-0.0413,-0.363,0.034212712016796036,1.3220817213972662,0.31625026539026774,0.18446541558661603
0.16599999999999993,-0.025,-1.363,0.03499116478704729,1.3220817213972662,0.32419684584538244,0.18446541558661603
0.16699999999999993,-0.0162,0.637,0.03540805146877142,1.3220817213972662,0.32845249716243974,0.18446541558661603
0.16799999999999993,0.0318,0.637,0.03525475663883947,1.323802540953477,0.32688763703738144,0.18502181847075583
0.16899999999999993,0.0561,-0.363,0.03514121635515118,1.3156502084422648,0.3257285981930154,0.18238587601802528
0.16999999999999993,0.0859,0.637,0.035194678317901254,1.3156502084422648,0.3262743471510988,0.18238587601802528
0.17099999999999993,0.0581,-2.363,0.03516011662319591,1.315650208442265,0.325921535396633,0.18238587601802533
0.17199999999999993,0.0183,1.637,0.0351695237726707,1.3139187119422766,0.32601756520474917,0.18182602089376532
0.17299999999999993,-0.0296,1.636999999999889,0.03533295418849932,1.314496130862605,0.3276858911428479,0.18201272120843112
0.17399999999999993,-0.0108,-2.3629999999999445,0.03533593573412324,1.314496130862605,0.3277163272760168,0.18201272120843112
0.17499999999999993,-0.005,-0.36299999999997223,0.03530942218753919,1.3354201543599062,0.3274456724089109,0.18877821093086475
0.17599999999999993,0.0001,0.637,0.03534676914145309,1.3497515668484805,0.32782691657088425,0.19341207228701893
0.17699999999999994,0.0049,0.637,0.035368923423368476,1.3497515668484805,0.3280530713106369,0.19341207228701893
0.17799999999999994,0.0007,-0.363,0.03534587710966017,1.3503136630689316,0.3278178105561305,0.1935938182214455
0.17899999999999994,0.0127,-0.363,0.03549081175900412,1.3497515668484805,0.3292973285124657,0.19341207228701893
0.17999999999999994,0.0091,-0.363,0.03562566532362558,1.3491892364487719,0.3306739370131684,0.1932302506340117
0.18099999999999994,-0.0138,-0.363,0.0357531822436664,1.357699152489474,0.3319756517776566,0.19598181270903847
0.18199999999999994,-0.011,-2.363,0.03591989478894117,1.3582579597158058,0.33367748226054555,0.1961624951933158
0.18299999999999994,-0.0191,1.637,0.035908872938116496,1.3588165371351835,0.33356496930190543,0.19634310337273553
0.18399999999999994,-0.0025,0.637,0.035921752672077756,1.3588165371351835,0.3336964478527886,0.19634310337273553
0.18499999999999994,-0.009,0.637,0.035940853839912926,1.3818168382652845,0.33389143587619796,0.20377992836620043
0.18599999999999994,-0.0032,0.637,0.03592664811150669,1.3901270328408408,0.3337464213447869,0.20646691330480949
0.18699999999999994,-0.0087,-0.363,0.03593590271909258,1.3884884148068206,0.3338408939789302,0.2059370891307166
0.18799999999999994,-0.0072,-0.363,0.03594116318477628,1.4088522580921456,0.33389459372204167,0.21252145243320883
0.18899999999999995,-0.0178,-0.363,0.03594210926299789,1.408852258092146,0.33390425145208275,0.21252145243320897
0.18999999999999995,-0.0301,0.637,0.035957634758385454,1.4310485938823836,0.3340627383929963,0.21969832650257265
0.19099999999999995,-0.0483,-0.363,0.03604579152965757,1.4508151795219582,0.3349626579543987,0.2260895749165975
0.19199999999999995,-0.0215,0.637,0.03605477216677057,1.450815179521958,0.33505433385059163,0.22608957491659745
0.19299999999999995,-0.018,1.637,0.03604142710747377,1.457170885198652,0.33491810517823933,0.22814460326427793
0.19399999999999995,-0.0608,2.637,0.036071350420696736,1.4634989894803194,0.3352235675326647,0.2301907070877434
0.19499999999999995,-0.055,1.637,0.03621474918048297,1.44127589407018,0.33668740686287507,0.22300518067035277
0.19599999999999995,-0.018,1.637,0.0363684300392006,1.4634989894803212,0.33825620763651304,0.23019070708774397
0.19699999999999995,0.0255,1.637,0.03677622113905502,1.4708320735796554,0.3424190096814296,0.23256175704924809
0.19799999999999995,0.0314,1.637,0.03767543835054812,1.4566500239281641,0.35159837443010594,0.22797619007296444
0.19899999999999995,0.0686,-1.363,0.038578340134477355,1.4566500239281641,0.3608153519311874,0.22797619007296444
0.19999999999999996,0.1315,-4.363,0.03940105372106267,1.4645356551246325,0.36921375445110666,0.23052589839371304
0.20099999999999996,0.1235,-3.363,0.039550208843355326,1.4645356551246325,0.3707363557249238,0.23052589839371304
0.20199999999999996,0.0378,-0.363,0.03990286008030521,1.4449567737661746,0.3743362805169102,0.22419534152808543
0.20299999999999996,0.0038,0.637,0.041449027934724665,1.4645356551246325,0.39011982927130756,0.23052589839371304
0.20399999999999996,-0.0064,0.637,0.04279413976325855,1.4776153046955856,0.40385096335555143,0.23475501975542104
0.20499999999999996,0.0029,0.6369999999999445,0.043430760622665446,1.5161773970378614,0.41034969914532626,0.247223531820075
0.20599999999999996,-0.0055,-1.3629999999999167,0.04383613977424176,1.5217616457142984,0.4144878796052501,0.24902912035962244
0.20699999999999996,-0.0133,1.6369999999999445,0.04443880307448861,1.5217616457142982,0.4206399707606465,0.24902912035962235
0.20799999999999996,-0.0203,-0.3629999999999445,0.044658053778500656,1.5217616457142982,0.42287811985055207,0.24902912035962235
0.20899999999999996,-0.0143,1.637,0.044650906018974014,1.5273254772463116,0.4228051542856226,0.2508281073016913
0.20999999999999996,-0.0086,1.637,0.0445591472097133,1.5268285486540278,0.42186846449772397,0.25066743240642975
0.21099999999999997,-0.0037,0.637,0.044480343561895244,1.511666177150939,0.42106402323747816,0.24576489209982483
0.21199999999999997,-0.0179,1.637,0.04448677096709422,1.4901615824332644,0.4211296353008983,0.23881168281068915
0.21299999999999997,-0.0397,1.637,0.044510405990381925,1.4824122735725693,0.42137090570456537,0.2363060524064909
0.21399999999999997,-0.0597,0.637,0.04453298666310947,1.4829240861552226,0.4216014131154416,0.23647153983142138
0.21499999999999997,-0.0851,0.637,0.044573393679997964,1.4641096047364164,0.4220138949292733,0.2303881409722933
0.21599999999999997,-0.0624,1.637,0.04439504882872426,1.4641096047364164,0.420193319855792,0.2303881409722933
0.21699999999999997,-0.0178,1.637,0.04438898206189475,1.4797593454762357,0.4201313892511933,0.2354482652905275
0.21799999999999997,0.014,0.637,0.04436112272919783,1.4797593454762357,0.4198469963667921,0.2354482652905275
0.21899999999999997,0.0198,0.637,0.0442720930220472,1.4792464379080146,0.4189381657250315,0.23528242381736122
0.21999999999999997,0.0043,-0.363,0.043934975865659115,1.485480503945724,0.4154968155129014,0.23729812169270223
0.22099999999999997,0.0282,-1.363,0.04318744685789716,1.4849695724634002,0.40786591017127716,0.23713291915921364
0.22199999999999998,0.05,0.637,0.042876862036036405,1.4849695724634002,0.40469540661682596,0.23713291915921364
0.22299999999999998,0.0061,-1.363,0.04287714605878149,1.483435722153141,0.40469830597010875,0.23663697016015284
0.22399999999999998,-0.0114,-2.363,0.042776370357999166,1.4761652499972033,0.4036695701947465,0.23428616489296417
0.22499999999999998,-0.0271,-2.363,0.04276800379708121,1.4646278131805843,0.4035841628945121,0.2305556964093988
0.22599999999999998,-0.013,-0.363,0.042775298550257926,1.4651458383392584,0.4036586289960333,0.23072319258370885
0.22699999999999998,-0.0001,0.637,0.04285404100514695,1.4651458383392584,0.4044624455882806,0.23072319258370885
0.22799999999999998,0.0357,-0.363,0.04287671328761617,1.470923837145021,0.40469388816723706,0.23259142751193204
0.22899999999999998,0.0595,-0.363,0.04289163703976943,1.470923837145021,0.4048462324091874,0.23259142751193204
0.22999999999999998,0.0551,1.637,0.04293002313299715,1.4787333524347277,0.4052380842849193,0.23511652482108547
0.23099999999999998,0.0352,0.637,0.04293816399418438,1.4787333524347275,0.4053211876032842,0.23511652482108542
0.23199999999999998,0.0025,0.637,0.04292602279026549,1.4865018400675676,0.4051972480947482,0.23762835641244312
0.23299999999999998,-0.0106,-0.363,0.04291208039827583,1.4677332216402228,0.4050549217470022,0.23155978670877894
0.23399999999999999,-0.0147,2.637,0.04288242506833029,1.4603845772417892,0.4047521950122009,0.2291837055426574
0.235,-0.0183,1.6369999999999167,0.042883511449111414,1.4603845772417892,0.4047632849750246,0.2291837055426574
0.236,-0.0086,-1.3630000000000277,0.0428744321174174,1.459864862576318,0.4046706015874867,0.22901566309000498
0.237,0.0062,-2.362999999999917,0.04287321502341085,1.4656636804067824,0.4046581772814606,0.23089062955806178
0.238,0.0036,0.6370000000000555,0.04293619429410132,1.4656636804067824,0.4053010805643209,0.23089062955806178
0.239,0.0106,2.6369999999998615,0.043078559008718674,1.4656636804067822,0.406754364182685,0.2308906295580617
0.24,0.0262,-2.363,0.043061057644695803,1.465663680406782,0.4065757072331605,0.2308906295580616
0.241,0.0081,-0.363,0.043000492383551435,1.4651458383392575,0.4059574465770729,0.23072319258370855
0.242,-0.0087,-1.363,0.04279515547314341,1.4651458383392575,0.40386133189764867,0.23072319258370855
0.243,-0.0152,-1.363,0.042787559115867915,1.4646278131805834,0.40378378696934686,0.23055569640939852
0.244,-0.0333,-0.363,0.04275936756307361,1.4572635090063262,0.40349600272475833,0.22817455187425503
0.245,-0.0402,2.637,0.04232848718949639,1.4572635090063262,0.3990975013820807,0.22817455187425503
0.246,-0.0739,1.637,0.04197016190555898,1.44933831169952,0.3954396549375348,0.22561205040629542
0.247,-0.0978,1.637,0.04194539425273181,1.4418959204114932,0.39518682245572356,0.22320565749739962
0.248,-0.0933,2.637,0.04195844812148273,1.4536137930882727,0.3953200786046434,0.2269944673873217
0.249,-0.0892,1.637,0.041979224508068874,1.4461934044227167,0.3955321675506691,0.22459518871800857
0.25,-0.0347,0.637,0.041417339806530076,1.4403161999773464,0.3897963513805564,0.2226948770367049
0.251,0.0826,-0.363,0.039275478517955036,1.3797162515102266,0.3679318610687501,0.20310073308120866
0.252,0.1327,-2.363,0.037301877758365604,1.3611477191861572,0.3477850033251633,0.1970968584145906
0.253,0.11749999999999541,-2.363,0.03711846480649479,1.3611477191861572,0.3459126922046299,0.1970968584145906
0.254,0.07619999999999864,-3.363,0.03713294869117197,1.3673652476658393,0.34606054620334153,0.1991072091023373
0.255,0.06390000000000125,-1.363,0.0371281086252302,1.3673652476658393,0.34601113797347305,0.1991072091023373
0.256,0.07519999999999659,-0.363,0.03713027929774788,1.3673652476658396,0.34603329657379234,0.19910720910233737
0.257,0.04439999999999687,-0.363,0.037308422237384176,1.3611477191861583,0.3478518104983732,0.19709685841459096
0.258,0.01619999999999719,-1.363,0.03731569554798711,1.3526594991069507,0.3479260577103943,0.19435231142461837
0.259,-0.009099999999999157,-0.363,0.037369603863278124,1.3532203874406323,0.3484763631123797,0.194533666805788
0.26,-0.0015000000000007661,-1.363,0.03741083627270027,1.3532203874406326,0.34889727067588616,0.1945336668057881
0.261,-0.008400000000000676,-0.363,0.03740294163469399,1.3452463419479228,0.3488166808463186,0.1919553709615828
0.262,-0.014500000000000634,-0.363,0.03750599037186134,1.3452463419479226,0.34986862017005443,0.19195537096158272
0.263,-0.020200000000000554,0.637,0.037468615679055045,1.3452463419479228,0.34948709284467205,0.1919553709615828
0.264,-0.025199999999998425,0.637,0.0372582072238561,1.3452463419479226,0.34733920695927,0.19195537096158272
0.265,-0.011000000000001432,-0.363,0.03677641561038651,1.4197741039922862,0.342420994878401,0.21605287822217983
0.266,-0.02389999999999779,2.637,0.035971045189131086,1.4418023093643992,0.33419963438839945,0.22317538967739348
0.267,-0.004000000000001199,0.637,0.03655458031148167,1.4561289763442051,0.3401564617970134,0.22780771663980143
0.268,-0.014799999999999801,-0.363,0.037776746103227093,1.4545647137089155,0.3526325414832086,0.2273019342417075
0.269,-0.013000000000001809,-1.363,0.03811102148677139,1.4735010746466988,0.3560448823868729,0.2334247411350084
0.27,-0.029299999999999677,-0.363,0.038076103815655134,1.49219714769961,0.3556884367636644,0.2394698543086604
0.271,-0.0263999999999991,-2.363,0.03807641183054577,1.4983773326976568,0.3556915810329166,0.24146813050503424
0.272,-0.018299999999997537,-1.363,0.03801876398351131,1.5111640991902358,0.35510310184441607,0.24560255222845945
0.273,0.0039000000000003216,0.637,0.03771661266474924,1.529399831731164,0.3520186889475529,0.251498820749789
0.274,0.0068000000000002885,1.637,0.037712454982734,1.5233455096464559,0.3519762466107747,0.24954124056232277
0.2749999999999999,0.0094,0.637,0.0376954052412445,1.5045321314885354,0.3518021999021459,0.24345819842713853
0.2759999999999999,0.026,0.637,0.03760642142547489,1.485991259753421,0.35089383772753635,0.23746326742426258
0.2769999999999999,0.0148,-1.363,0.03760516892570642,1.505036421865645,0.3508810519933717,0.24362125365233922
0.2779999999999999,-0.0113,-0.363,0.0376052198858665,1.5106618543607726,0.3508815722034956,0.2454401584024194
0.2789999999999999,-0.0221,1.637,0.03745700741805142,1.5318786921955838,0.34936859370954854,0.25230032553674087
0.2799999999999999,-0.0123,-0.363,0.03699723170652249,1.5323739830940617,0.34467512376172754,0.25246047090666457
0.2809999999999999,-0.0093,1.637,0.03658527554412532,1.5323739830940617,0.3404698040383321,0.25246047090666457
0.2819999999999999,-0.0014,0.637,0.036421727534667825,1.5323739830940615,0.33880027768414056,0.25246047090666446
0.2829999999999999,0.0106,0.637,0.03642450952529177,1.5323739830940615,0.3388286767253713,0.25246047090666446
0.2839999999999999,0.004,0.6369999999999445,0.03641484677633223,1.5328691139573096,0.3387300377135276,0.2526205645314397
0.2849999999999999,-0.0019,-0.3630000000000555,0.036386211856062396,1.5121680884091067,0.33843772749710105,0.24592717807026188
0.2859999999999999,-0.0001,-1.3629999999999445,0.03635147164749612,1.5050364218656458,0.33808309344228193,0.2436212536523395
0.2869999999999999,-0.0248,-0.363,0.036362140382082415,1.4988836938211227,0.3381920017293151,0.24163185527704525
0.2879999999999999,-0.0357,-0.363,0.03636492316243195,1.480272075324324,0.33822040883220117,0.2356140493003798
0.2889999999999999,-0.0129,-0.363,0.03636959385895599,1.4802720753243237,0.3382680881097734,0.2356140493003797
0.2899999999999999,0.0197,-0.363,0.03636546164448869,1.4661813395771615,0.3382259057501274,0.2310580073951864
0.2909999999999999,0.024,-0.363,0.036327032795626935,1.4466247313818796,0.33783361741749185,0.2247346522446865
0.2919999999999999,0.02,-0.363,0.03659252995335557,1.4471492009832307,0.34054385830187317,0.22490423213920954
0.2929999999999999,0.0092,0.637,0.03667748256289507,1.4487214705693179,0.341411069226384,0.22541260347261677
0.29399999999999993,0.0059,2.637,0.03676545266789091,1.4428545637762464,0.342309083266168,0.22351562139284992
0.29499999999999993,-0.0028,-0.363,0.03675740212467022,1.4433804033139186,0.34222690192921934,0.22368564423708107
0.29599999999999993,-0.0108,0.637,0.03656160476494849,1.4213766551302416,0.3402281686323675,0.2165710406709512
0.29699999999999993,-0.0275,-2.363,0.03584082885222298,1.4197741039922895,0.33287036350986354,0.2160528782221809
0.29799999999999993,-0.034,0.637,0.034506668638116925,1.4116384499742465,0.3192510253989786,0.2134223285264474
0.29899999999999993,-0.0039,0.637,0.033261249408800854,1.3952248304853447,0.3065375706020834,0.20811521472137912
0.29999999999999993,0.0005,1.637,0.0322684355330492,1.3874922093987232,0.29640275492396795,0.20561498007502826
0.30099999999999993,-0.0114,2.637,0.03292486490406775,1.3874922093987228,0.3031036994247058,0.20561498007502813
0.30199999999999994,-0.0078,-0.363,0.03283163196865725,1.3941366269779443,0.30215196150222795,0.20776335936974544
0.30299999999999994,-0.011,-1.363,0.030288757745865785,1.3735546321871785,0.276193861832125,0.20110845983562534
0.30399999999999994,-0.0023,0.637,0.02802000595093111,1.3532203874406339,0.25303405129498036,0.19453366680578854
0.30499999999999994,-0.0049,0.637,0.0269829678491104,1.3186333452815906,0.24244778707181125,0.1833504315027615
0.30599999999999994,-0.0368,0.637,0.026221933895376037,1.31218493064428,0.2346790209070094,0.18126542701209358
0.30699999999999994,-0.0152,-0.363,0.025121982317838753,1.3192087006039743,0.22345052504744786,0.18353646458195572
0.30799999999999994,0.0286,0.637,0.02474434207256278,1.3279107608083618,0.21959550813845005,0.18635015377917802
0.30899999999999994,0.0227,1.637,0.024698600596443465,1.3279107608083616,0.21912857124258603,0.18635015377917793
0.30999999999999994,-0.0039,0.637,0.024724458840264505,1.3491892364487743,0.21939253666580052,0.1932302506340125
0.31099999999999994,-0.028,0.637,0.024782588236118237,1.3508755254024518,0.21998593158789684,0.19377548853181117
0.31199999999999994,-0.0064,1.637,0.024936656186276693,1.3508755254024518,0.22155868385788186,0.19377548853181117
0.31299999999999994,-0.0025,1.637,0.025145175084117427,1.3514371541407533,0.22368728081511077,0.193957083312437
0.31399999999999995,0.0011,4.637,0.025288296646224874,1.3514371541407533,0.22514829046349502,0.193957083312437
0.31499999999999995,0.0373,2.637,0.025169322007214695,1.3508755254024516,0.22393377678052942,0.1937754885318111
0.31600000000000006,0.09020000000000152,2.637,0.025183333778054227,1.3593748850308973,0.22407681135956886,0.1965236373388956
0.31699999999999995,0.097,-1.363,0.025376557609764545,1.3354201543599087,0.2260492736375771,0.18877821093086553
0.31800000000000006,0.052299999999990875,-2.363,0.025845322077356025,1.3434525243310051,0.2308345023612316,0.1913753651776693
0.31899999999999995,0.0112,-2.363,0.025855849969037933,1.351998549574949,0.2309419728995483,0.19413860265745023
0.32000000000000006,-0.004500000000003175,-1.363,0.025825443478684904,1.351998549574949,0.23063157818944913,0.19413860265745023
0.32099999999999995,-0.0188,-2.363,0.026237682829794013,1.352559711995546,0.23483978875217282,0.19432004666078231
0.32200000000000006,-0.014399999999997313,-2.363,0.02851029102724193,1.3319049755502819,0.258038966112855,0.1876416271322422
0.32299999999999995,-0.0023,-0.363,0.029820797149110595,1.3249485123416325,0.27141683916093795,0.18539235225694511
0.32400000000000007,0.0014999999999978685,-0.363,0.030542863737571598,1.3330439815763817,0.2787878197244776,0.18800990876623874
0.32499999999999996,-0.0081,0.637,0.03086711458857662,1.333043981576382,0.28209782846697223,0.1880099087662388
0.32600000000000007,0.012699999999997047,-2.363,0.030879717192522124,1.333043981576382,0.2822264780267452,0.1880099087662388
0.32699999999999996,-0.0006,-1.363,0.032826996612782,1.3324746002668513,0.30210464298810813,0.18782580730036766
0.32800000000000007,-0.012599999999999556,2.637,0.03520934879642608,1.3468373561405242,0.326424105932065,0.19246980310077816
0.32899999999999996,-0.0106,0.637,0.0363453082522426,1.4513381348231906,0.33802017643802623,0.22625866518340193
0.33000000000000007,-0.0010000000000012213,1.637,0.03643558927482529,1.5413495730583322,0.3389417807240407,0.25536260211789563
0.33099999999999996,-0.0065,0.637,0.036491536128191775,1.5413495730583322,0.3395128958751163,0.25536260211789563
0.3320000000000001,-0.005100000000000311,0.637,0.03648254077364492,1.5398718833023022,0.33942106974081426,0.254884811846887
0.33299999999999996,-0.0065,0.637,0.0364841018447685,1.5453705135221014,0.3394370054247167,0.2566627168585265
0.3340000000000001,-0.0029000000000013763,0.637,0.036470917683677585,1.5448793893384867,0.3393024192290656,0.2565039187374523
0.33499999999999996,-0.0091,0.637,0.03648514563690949,1.5448793893384871,0.33944766063533927,0.25650391873745243
0.3360000000000001,-0.012299999999998956,-0.363,0.036606402700527535,1.5453705135221014,0.3406854737032802,0.2566627168585265
0.33699999999999997,-0.0076,0.637,0.03668520850877446,1.5393790048341807,0.34148993701755725,0.25472544650250595
0.3380000000000001,-0.006800000000000488,0.637,0.0366505151890693,1.5602053742717323,0.3411357816123385,0.2614593611534589
0.33899999999999997,-0.009,1.637,0.03662607996237438,1.5606916756256197,0.34088634259395395,0.2616165998801386
0.33999999999999986,-0.0201,-0.363,0.03689281538337163,1.561177825498368,0.3436092238838483,0.2617737896275151
0.34099999999999997,-0.0447,0.637,0.03699814629182276,1.5685380440873051,0.34468446000658326,0.2641536131459097
0.34199999999999986,-0.0264,1.637,0.03693053104481811,1.5889822796782072,0.34399423187605516,0.27076397017361514
0.34299999999999997,-0.0296,0.637,0.036884693870880024,1.5962142957801022,0.34352631808031325,0.27310234121473714
0.34399999999999986,-0.0324,0.637,0.0369837928272716,1.6158389372007915,0.3445379373590646,0.2794476939551049
0.345,-0.0135,0.636999999999889,0.037160479484390704,1.595738819980281,0.3463415852999526,0.27294860277923166
0.34599999999999986,-0.0157,-1.3629999999999445,0.03736210895465908,1.595738819980281,0.348399853789501,0.27294860277923166
0.347,-0.0136,-0.3630000000000555,0.03762093813688947,1.595263202462638,0.3510420268272583,0.27279481852125476
0.34799999999999986,0.0165,-1.362999999999889,0.03759212125673155,1.5777888878153106,0.3507478591328375,0.26714474380363107
0.349,0.0382,0.637,0.03743869733237703,1.583155829851269,0.34918168118959614,0.2688800692867943
0.34999999999999987,0.0741,0.636999999999889,0.037471378099045084,1.5826764309647603,0.3495152921054886,0.2687250623761952
0.351,0.0788,-1.3629999999999445,0.037717643410637866,1.5758638864669257,0.352029210979776,0.2665223215988458
0.35199999999999987,0.0394,-0.363,0.03798885909623817,1.555247214846733,0.35479782758527195,0.2598562097979681
0.353,0.0239,0.637,0.03798164944519931,1.555247214846733,0.3547242302210861,0.2598562097979681
0.35399999999999987,0.0099,1.637,0.03797717365804246,1.5492939023146084,0.3546785406120294,0.25793128963355905
0.355,0.0055,0.637,0.03797777717277734,1.567085992014192,0.35468470139477676,0.2636841124603292
0.35599999999999987,0.0016,-1.363,0.03797555654572995,1.5846783323390843,0.3546620328499822,0.2693723491265213
0.357,-0.0092,1.637,0.037804832534536266,1.5914531452247311,0.3529192526295038,0.27156288991592376
0.3579999999999999,-0.0059,-1.363,0.03777559984842256,1.5914531452247307,0.35262084031600316,0.27156288991592364
0.359,-0.0145,-2.363,0.037667530810254285,1.5981992397402756,0.35151765289175657,0.27374414502287625
0.3599999999999999,-0.017,1.637,0.03760229100997817,1.5914531452247302,0.3508516737320929,0.2715628899159235
0.361,-0.0289,-0.363,0.03760523571560587,1.5914531452247305,0.3508817337962116,0.2715628899159236
0.3619999999999999,-0.0354,0.637,0.037502297589241514,1.598199239740277,0.34983092360667495,0.2737441450228767
0.363,-0.0336,0.637,0.03757457599474261,1.6301153955557288,0.35056875406528637,0.28406378666239596
0.3639999999999999,-0.006,-0.363,0.03758914484894315,1.642800626761663,0.3507174754475818,0.28816537837402406
0.365,0.0139,1.637,0.03759098225861478,1.5788359995406998,0.3507362320431552,0.2674833127035023
0.3659999999999999,0.0394,-0.363,0.03742016232229998,1.5582586512076726,0.3489924726024572,0.26082991553636625
0.367,0.0492,1.637,0.036337975379016264,1.5582586512076717,0.33794532120044846,0.260829915536366
0.3679999999999999,0.0166,1.637,0.03505431290335465,1.559718921295012,0.32484147273348957,0.26130207340166145
0.369,0.0036,-1.363,0.03471634342146102,1.5418418215977276,0.3213914218352516,0.2555217637836523
0.3699999999999999,-0.0548,0.637,0.034774744564482804,1.530799460631807,0.3219875907994181,0.2519513711373253
0.371,-0.1146,0.637,0.034828306607825446,1.530799460631807,0.3225343613974921,0.2519513711373253
0.3719999999999999,-0.0893,-0.363,0.03479548654093239,1.5181780808361514,0.32219932848082106,0.24787042488425629
0.373,-0.0661,1.637,0.034819253932387044,1.4992998626201346,0.32244195012161975,0.2417664176250982
0.3739999999999999,-0.0451,1.637,0.0348610937846901,1.4992998626201348,0.32286905856706727,0.2417664176250983
0.375,0.0129,0.637,0.03486116783489,1.4992998626201346,0.32286981448430946,0.2417664176250982
0.3759999999999999,0.1144,-0.363,0.03485336992484239,1.4992998626201344,0.32279021207046604,0.24176641762509815
0.377,0.1282,-2.363,0.03483072797537648,1.4864110382103137,0.32255907913605125,0.2375989969045976
0.3779999999999999,0.0909,-5.363,0.03484408209417397,1.4879418214082114,0.3226954002893528,0.23809395419586554
0.379,0.0339,-5.363,0.03492085485460196,1.4879418214082116,0.3234791099000275,0.23809395419586563
0.3799999999999999,0.0237,-0.363,0.034910109193930436,1.4879418214082116,0.3233694163382176,0.23809395419586563
0.381,-0.0046,-1.363,0.03491177828161115,1.4801808913015226,0.3233864546738088,0.235584566224661
0.3819999999999999,0.0037,-1.363,0.03499990335343774,1.4801808913015226,0.3242860506417912,0.235584566224661
0.383,-0.0039,-0.363,0.0351117256064398,1.4796681298566452,0.3254275515319046,0.2354187719984298
0.3839999999999999,-0.0109,0.637,0.03513711191987922,1.4982872505402087,0.3256866994081978,0.24143900370203344
0.385,-0.0298,0.637,0.03514469301370446,1.4977806877746256,0.3257640885245607,0.2412752137318701
0.3859999999999999,-0.024,-0.363,0.0351415549160897,1.5034332694699872,0.3257320542816051,0.24310289679531716
0.387,-0.019,2.637,0.03513339083701702,1.5034332694699872,0.32564871395105166,0.24310289679531716
0.3879999999999999,-0.0331,0.637,0.03532294178113876,1.5029284411736,0.3275836827575988,0.24293966764145758
0.389,-0.0461,0.637,0.035777084224483856,1.5029284411735997,0.3322196473299381,0.24293966764145752
0.3899999999999999,-0.0341,1.637,0.036065832086174296,1.4957527211500565,0.33516723541986787,0.24061949914821318
0.391,-0.0086,2.637,0.03619545170697664,1.503433269469987,0.3364904149172378,0.24310289679531707
0.3919999999999999,0.0078,1.637,0.03670152386626599,1.5034332694699872,0.3416564870073769,0.24310289679531716
0.393,0.0286,2.637,0.03664581829782451,1.5171780687216394,0.3410878349345283,0.2475470849834044
0.3939999999999999,0.0367,-0.363,0.03716935498803906,1.5171780687216394,0.3464321879755633,0.2475470849834044
0.395,0.0389,-0.363,0.03747240395551463,1.5227586477470774,0.34952576422567644,0.24935148699273588
0.3959999999999999,0.0454,-0.363,0.03754349663908425,1.5408571672632039,0.3502514906298277,0.2552033896057018
0.397,0.0233,0.637,0.03755023541179219,1.5348480401548208,0.3503202811866075,0.2532604225803682
0.3979999999999999,0.0027,-1.363,0.03761315363847584,1.5348480401548206,0.3509625613216931,0.25326042258036807
0.399,-0.0161,-0.363,0.03841854460391515,1.5348480401548217,0.3591841315302754,0.25326042258036846
0.3999999999999999,-0.043,0.637,0.0386805936843187,1.5528056597607356,0.36185917384522986,0.2590667671822493
0.401,-0.0467,-0.363,0.03817568537231755,1.558258651207674,0.3567049825094109,0.2608299155363667
0.4019999999999999,0.0026,-0.363,0.03742297137240226,1.5523168879208487,0.3490211478715208,0.25890872965854855
0.403,0.0094,-0.363,0.037217416635987724,1.5523168879208484,0.3469228095865651,0.2589087296585485
0.4039999999999999,0.0032,-2.363,0.03715499900964371,1.5523168879208487,0.3462856396662886,0.25890872965854855
0.405,-0.0027,-2.363,0.037146528953244766,1.5453705135221003,0.3461991758662923,0.25666271685852615
0.4059999999999999,-0.0079,1.637,0.03716900711451586,1.5508496481419933,0.34642863682249925,0.25843431824119034
0.40700000000000003,-0.0033,-0.36299999999988897,0.03716999754605038,1.5818025282002584,0.34643874731882623,0.26844249816609445
0.4079999999999999,0.0009,1.6369999999999445,0.03730330310565523,1.5745043173327005,0.3477995535167053,0.26608272397529487
0.40900000000000003,0.0048,0.637,0.0374098644983452,1.589067220460527,0.34888735063527243,0.2707914345850308
0.4099999999999999,-0.0061,0.6370000000000555,0.03752292552812037,1.6106647105795768,0.3500414971728415,0.2777746803001601
0.41100000000000003,0.0036,1.637000000000111,0.037598064563021436,1.6039710450770874,0.3508085294309042,0.27561037737972316
0.4119999999999999,0.0242,3.6369999999999445,0.03754276586724947,1.6044440812650318,0.3502440307846048,0.2757633270009224
0.41300000000000003,0.0108,2.636999999999889,0.03741770111518819,1.6039710450770874,0.34896734817477454,0.27561037737972316
0.4139999999999999,0.0039,0.6369999999999445,0.037281979347938116,1.6034978693422002,0.3475818769115469,0.2754573826379758
0.41500000000000004,0.0104,-0.36299999999983346,0.03727950088533445,1.6034978693422002,0.34755657633682013,0.2754573826379758
0.4159999999999999,0.0122,2.6369999999999445,0.0372797490098801,1.5967741607767418,0.34755910923507705,0.2732833657142176
0.41700000000000004,-0.0154,1.637,0.03709083837335922,1.5972493283720535,0.34563067679921383,0.2734370044961148
0.4179999999999999,-0.0193,0.637,0.03676456403798533,1.5900220199932957,0.3423000119784683,0.27110015563128487
0.41900000000000004,-0.023,1.637,0.03676456403798533,1.5885896054933246,0.3423000119784683,0.27063700447973554
0.41999999999999993,-0.0198,-1.363,0.036829001585236484,1.5827617101579583,0.3429578016005623,0.26875263620802503
0.42100000000000004,-0.0112,-1.363,0.036419470347505416,1.5822821918613115,0.3387772359273715,0.2685975906878314
0.42199999999999993,-0.0193,-0.363,0.03462576065123724,1.5822821918613115,0.32046673725715175,0.2685975906878314
0.42300000000000004,-0.0172,-0.363,0.03346572819593453,1.582282191861311,0.30862492541077347,0.2685975906878313
0.42399999999999993,-0.0016,-0.363,0.03281078434726924,1.5754679426191847,0.30193914537902994,0.26639429870530923
0.42500000000000004,-0.0034,0.637,0.03256709252564296,1.5681402505194848,0.2994514971352172,0.2640249921713115
0.42599999999999993,-0.0016,-1.363,0.032870331948923456,1.6040551921478494,0.3025470175911124,0.27563758515563136
0.42700000000000005,0.0097,1.637,0.03090579417155026,1.609806001664723,0.282492676336768,0.27749702880838295
0.42799999999999994,0.0264,2.637,0.02820225465425394,1.5924912723082303,0.2548944775650645,0.27189855375777044
0.42900000000000005,0.0062,0.637,0.026837858069744504,1.498377332697653,0.2409664813579362,0.24146813050503302
0.42999999999999994,0.0036,-0.363,0.026641842526789698,1.3973986952354267,0.23896552080892225,0.20881810341898246
0.43100000000000005,0.0257,0.637,0.026587556574156783,1.4176345511182553,0.23841136041966604,0.21536108378877525
0.43199999999999994,0.0285,-0.363,0.026759820133965478,1.4111007820084875,0.2401698566185587,0.2132484811257841
0.43300000000000005,0.0149,-2.363,0.02688592445965164,1.404536618762812,0.24145715137566984,0.21112605094495765
0.43399999999999994,0.0079,-0.363,0.026883543357902235,1.4111007820084875,0.24143284467737475,0.2132484811257841
0.43500000000000005,-0.0078,-1.363,0.02717897533419649,1.4306125707552138,0.24444866536470833,0.21955734453579215
0.43599999999999994,-0.0097,-0.363,0.02705598796495801,1.430082036507743,0.24319318903786444,0.2193858037229496
0.43700000000000006,-0.0373,-0.363,0.027104977625788326,1.4498617996970324,0.24369328396479395,0.2257813129129756
0.43799999999999994,-0.0572,0.637,0.027150048594968716,1.4472424661808327,0.24415337620991034,0.22493438813362993
0.43900000000000006,-0.0464,0.637,0.026977182269174584,1.4467180303903282,0.24238872687163415,0.22476481917137026
0.43999999999999995,-0.0366,1.637,0.026580499422452452,1.446193404422715,0.23833931979505074,0.22459518871800802
0.44100000000000006,-0.07539999999998703,0.637,0.02637216335337162,1.4387347450225334,0.23621258918540974,0.22218353574306418
0.44199999999999995,-0.017,2.637,0.026410040328838397,1.422633783055999,0.23659924389902326,0.2169775153655812
0.44300000000000006,0.06889999999999749,0.637,0.02651175620123137,1.4145145767261669,0.23763757710872083,0.21435228379929652
0.44399999999999995,0.0576,-1.363,0.02654338624904877,1.391509395724184,0.23796046210494093,0.2069138809676559
0.44500000000000006,0.02679999999999789,-2.363,0.026366149392168563,1.3997620481032123,0.23615119762977482,0.20958226044354084
0.44599999999999995,0.0173,-0.363,0.026086122649752398,1.4003040697544258,0.23329263623307567,0.20975751554737374
0.44700000000000006,0.025700000000012057,-0.363,0.025747690891022842,1.4003040697544258,0.22983786633297965,0.20975751554737374
0.44799999999999995,0.08,-1.363,0.025725230809787912,1.4003040697544256,0.2296085899409075,0.20975751554737368
0.44900000000000007,0.0589999999999958,-2.363,0.025751512888249846,1.3942334383783166,0.22987688194140737,0.20779466197912733
0.44999999999999996,0.0401,-1.363,0.025717867152210208,1.3942334383783166,0.22953342045134906,0.20779466197912733
0.45100000000000007,0.022699999999994096,-0.363,0.025356679179677696,1.4019288773518188,0.22584635118673202,0.21028287431035317
0.45199999999999996,-0.0039,-0.363,0.02496140791661938,1.4247658286662601,0.22181135380021885,0.21766688243046914
0.45300000000000007,0.010299999999999023,0.637,0.024989561171485104,1.4252983417501623,0.22209874709293156,0.21783906307233597
0.45399999999999996,0.0059,0.637,0.02497235647749921,1.4252983417501623,0.22192311860243186,0.21783906307233597
0.45500000000000007,-0.01399999999999758,-1.363,0.0249951556149599,1.4057127915679952,0.22215585613907152,0.21150634993603357
0.45599999999999996,-0.0031,-3.363,0.024994845560154785,1.3935922065728976,0.22215269104601962,0.20758732866248203
0.4570000000000001,-0.032799999999999115,-0.363,0.02498845374913682,1.3858504759749553,0.22208744233415267,0.20508414858332638
0.45799999999999996,-0.0288,2.637,0.025047207011183747,1.4062525195847988,0.22268720579020107,0.21168086342532808
0.4590000000000001,-0.032499999999999266,3.637,0.025070618747690017,1.404632713365481,0.22292619684380216,0.21115712178784893
0.45999999999999996,-0.0292,0.637,0.025139767214470882,1.410658593187968,0.22363207634686388,0.21310550556847863
0.4610000000000001,-0.0204999999999994,0.637,0.025339418518007445,1.410658593187968,0.22567015136843488,0.21310550556847863
0.46199999999999997,-0.0178,-0.363,0.025721844931800006,1.4090438521043018,0.22957402631306734,0.21258340167161843
0.4630000000000001,-0.010799999999998535,-0.363,0.025928432828675057,1.3635739038681043,0.2316829112786134,0.19788133122559445
0.46399999999999997,-0.0042,-0.363,0.026020097748462378,1.346574545083664,0.23261864262653636,0.19238482682915622
0.4650000000000001,-0.013899999999999578,0.637,0.026030674064235388,1.3545407716004656,0.23272660748634644,0.19496059451709405
0.46599999999999997,-0.012,0.637,0.026446805803904915,1.3551008812589174,0.23697455222439837,0.1951416981245422
0.4670000000000001,0.0028000000000030644,-0.363,0.026441556984976255,1.3316392174561702,0.2369209713733758,0.1875556979774313
0.46799999999999997,0.0166,-1.363,0.02644292986355617,1.32992853796178,0.2369349859552584,0.18700257374015603
0.46899999999999986,0.0221,-0.363,0.02639664391423496,1.3379938761242016,0.23646249098282268,0.18961038778953582
0.47,-0.0026,-0.3629999999999445,0.02630655836848039,1.336291331695204,0.23554288215806307,0.1890598939116325
0.47099999999999986,-0.0199,0.6369999999999445,0.02623393412237282,1.3293578222677482,0.2348015212987529,0.18681804081975945
0.472,-0.009,-0.3629999999999445,0.026217604530533307,1.322961682191085,0.23463482600224828,0.1847499385755858
0.47299999999999986,-0.0057,0.6369999999999445,0.02653347630266271,1.3235351559390378,0.23785929965903266,0.1849353632740603
0.474,0.0211,-0.3630000000001665,0.02743021517771899,1.324108381314491,0.24701336512091523,0.18512070766476824
0.47499999999999987,0.0464,-3.362999999999889,0.028029351446446325,1.324108381314491,0.2531294517288187,0.18512070766476824
0.476,0.0235,-1.362999999999889,0.028159570534267202,1.3304990088481334,0.2544587506891477,0.18718702750542107
0.47699999999999987,-0.0211,0.637,0.0282558803791654,1.324108381314491,0.2554418982356021,0.18512070766476824
0.478,-0.0273,0.6369999999999445,0.02824425081421161,1.3153811662578514,0.25532318162607237,0.18229888499864583
0.47899999999999987,-0.0099,-0.363000000000111,0.02814254772614592,1.291197978477526,0.25428497892099783,0.17447959018641354
0.48,0.0165,-2.363,0.028169776389892293,1.291197978477526,0.2545629338277238,0.17447959018641354
0.48099999999999987,0.0307,-0.363,0.02825047029029039,1.3159579434794157,0.2553866711130874,0.18248537782901045
0.482,0.0263,-0.363,0.02827594396011453,1.3153811662578514,0.2556467107384576,0.18229888499864583
0.4829999999999999,-0.0016,-1.363,0.028407310538635946,1.3223879597475008,0.25698772348223226,0.18456443346486467
0.484,-0.0414,-2.363,0.028725167015230632,1.3012543969060322,0.2602324573453075,0.17773119213244107
0.4849999999999999,-0.0149,-0.363,0.028940844849395554,1.301837432987694,0.2624341339621474,0.17791970867749277
0.486,-0.029,-2.363,0.02903748577409705,1.319413311957561,0.26342066122846985,0.18360262279526315
0.4869999999999999,-0.0246,-2.363,0.029021880641779702,1.3436534438436663,0.2632613613400097,0.19144032968595903
0.488,-0.0127,-0.363,0.028913427687439226,1.3442180900485055,0.26215425483310717,0.1916229001220964
0.4889999999999999,-0.0019,-0.363,0.028439953663183623,1.3505135618320299,0.25732095014085243,0.1936584526846711
0.49,0.0079,0.637,0.02813000552461271,1.3499515488459313,0.2541569459594917,0.1934767336629058
0.4909999999999999,0.0166,-1.363,0.027891889825418747,1.341958079736778,0.25172621973744996,0.1908921574645689
0.492,0.0245,-0.363,0.026879579417821778,1.341958079736778,0.24139238009176034,0.1908921574645689
0.4929999999999999,0.0314,-0.363,0.026900505587381676,1.3182625288042609,0.2416059980482761,0.183230533192257
0.494,0.0202,1.637,0.02600493124403766,1.3182625288042609,0.23246382032743276,0.183230533192257
0.4949999999999999,0.0065,0.637,0.025382458517583518,1.3118122913629147,0.22610951112472297,0.1811449393234529
0.496,-0.0174,-0.363,0.025310353200639072,1.2899173929722152,0.22537344758402075,0.17406553081222123
0.4969999999999999,-0.0206,0.637,0.025279098959972508,1.2988157196514263,0.2250543988921647,0.17694268002316646
0.498,-0.0119,0.637,0.02525463361470762,1.299399849959342,0.2248046524182112,0.17713155037094042
0.4989999999999999,-0.0093,-0.363,0.023992796286014646,1.2928555073927541,0.2119235988245688,0.17501552892888622
0.5,0.0027,1.637,0.0233067383232119,1.2706339976237027,0.20492020053680302,0.16783051520631673
0.5009999999999999,0.014,2.637,0.023000796798942645,1.2633401966128914,0.2017970965668841,0.16547216688088667
0.502,-0.0121,0.637,0.0229381525299801,1.2639407220430106,0.2011576130395764,0.1656663383616277
0.5029999999999999,-0.0013,-0.363,0.022949914368969256,1.2645409622860444,0.2012776799253263,0.16586041763112194
0.504,-0.0111,0.637,0.022927840168362416,1.271231077490595,0.20105234266941546,0.1680235726124821
0.5049999999999999,-0.0024,1.637,0.022922340138856724,1.2706339976237027,0.2009961974173941,0.16783051520631673
0.506,0.0056,0.637,0.02288765245738254,1.2724243966929096,0.20064209956821177,0.16840941565074305
0.5069999999999999,0.0175,-2.363,0.022996500440511138,1.2268392849685514,0.20175323859727476,0.15367010870497746
0.508,0.0109,-1.363,0.022816839345654042,1.2343487897192749,0.1999192270817462,0.15609820181136014
0.5089999999999999,-0.0192,-1.363,0.022642233803814638,1.2155435610617198,0.19813682352540982,0.15001779470289398
0.51,-0.0323,0.637,0.022425895293187115,1.1631822984624909,0.19592840260902405,0.13308751434766392
0.5109999999999999,-0.0443,-1.363,0.022234885801991577,1.1625297256396396,0.19397854470179873,0.13287651407198992
0.512,-0.0406,-0.363,0.022140043035997137,1.1625297256396396,0.19301037335041774,0.13287651407198992
0.5129999999999999,-0.0243,-1.363,0.02206857022959432,1.1625297256396396,0.19228076658667081,0.13287651407198992
0.514,0.0084,1.637,0.02205746090466037,1.1723953070177244,0.192167360677201,0.1360664115325751
0.5149999999999999,0.0479,0.637,0.022095704779503914,1.1723953070177242,0.19255776076308093,0.136066411532575
0.516,0.011,0.637,0.022069953115283925,1.1723953070177224,0.1922948833228591,0.13606641153257443
0.5169999999999999,0.0157,-1.363,0.022098560240522275,1.195808373668225,0.19258690980279922,0.14363669847165472
0.518,0.0114,1.637,0.022149504427134686,1.1958083736682241,0.19310695686680443,0.14363669847165444
0.5189999999999999,0.0075,-1.363,0.02214801750633765,1.1977106311280505,0.19309177812225425,0.14425176675885734
0.52,-0.0034,-0.363,0.022037857256694403,1.2212597442787207,0.19196724324974934,0.1518660424269111
0.5209999999999999,0.0064,0.637,0.022045479429222622,1.2212597442787203,0.19204505170461386,0.15186604242691096
0.522,0.0452,0.637,0.0220315886516889,1.2300378284656264,0.19190325224615704,0.15470431291331285
0.5229999999999999,0.0717,0.637,0.022153816362898787,1.239366149440046,0.19315097385251787,0.15772049475272526
0.524,0.0577,-0.363,0.022252780206337096,1.2393661494400452,0.19416121387488436,0.15772049475272498
0.5249999999999999,0.0273,-1.363,0.022217714898833892,1.2468002068964934,0.19380326115391502,0.16012419303398856
0.526,0.0234,0.637,0.021839264930816397,1.2231224192115075,0.1899399784551895,0.1524683122587926
0.5269999999999999,0.0053,-0.363,0.021933473520279516,1.3366571466171708,0.1909016760229044,0.18917817503931322
0.528,-0.011,0.637,0.02281692660655641,1.4116384499742094,0.19992011785612296,0.21342232852643542
0.5289999999999999,-0.0138,0.637,0.022914330257083972,1.4111007820084578,0.20091443115953547,0.2132484811257745
0.53,-0.0216,2.637,0.023771462573648303,1.4111007820084573,0.20966418602527886,0.21324848112577433
0.5309999999999999,-0.0283,-0.363,0.02377054185762066,1.39131538709489,0.2096547871968983,0.20685115099663853
0.532,-0.0394,-1.363,0.023739583481437967,1.39131538709489,0.2093387587408417,0.20685115099663853
0.5329999999999999,-0.0451,0.637,0.024027913910857016,1.4322029943359564,0.21228208560998077,0.22007158570892113
0.534,-0.0361,0.637,0.024551636932834468,1.4455752213303092,0.21762834075786391,0.22439530787966006
0.5349999999999999,-0.0249,2.637,0.02434488908029917,1.4257359900926916,0.21551782293728547,0.21798057052972358
0.536,-0.002,2.637,0.024336888842356807,1.426268140956074,0.2154361551253146,0.2181526340526623
0.5369999999999999,0.0277,0.637,0.024297971603245667,1.4061565356772026,0.21503888122058204,0.211649828374137
0.538,0.0237,-1.363,0.02470630583853648,1.392405795480764,0.21920722768592882,0.20720371926482262
0.5389999999999999,0.0201,-0.363,0.025017838564265454,1.4603845772417579,0.22238740760693732,0.22918370554264728
0.54,-0.0028,0.637,0.025032099242341573,1.525336791532531,0.2225329830740781,0.25018509364996855
0.5409999999999999,0.0121,0.637,0.025113375102425516,1.5434050791093803,0.22336266110452205,0.25602722118910626
0.542,0.0201,0.637,0.025119472727645174,1.5582586512076435,0.223424906716902,0.2608299155363568
0.5429999999999999,-0.0021,0.637,0.025046401520999014,1.5641778439815457,0.2226789832071448,0.26274380355517424
0.544,-0.0107,0.637,0.024850310971612704,1.5646629106818712,0.2206772569795112,0.26290064307392985
0.5449999999999999,-0.0187,-0.363,0.02480978464223607,1.5577715903182843,0.22026355720317417,0.26067243122452816
0.546,-0.0118,1.637,0.024825004059850973,1.5778744311649684,0.22041891964927063,0.2671724030467498
0.5469999999999999,-0.0231,0.637,0.02476974944119249,1.5783552885788676,0.21985487094976558,0.26732788155173764
0.548,-0.0134,0.637,0.02473000863953487,1.5981992397402447,0.21944918997618373,0.27374414502286626
0.5489999999999999,-0.0152,-0.363,0.025208801662131495,1.5981992397402447,0.2243367919230348,0.27374414502286626
0.55,-0.0137,-0.363,0.02654666065588167,1.5981992397402447,0.23799388781596,0.27374414502286626
0.5509999999999999,-0.015,0.637,0.027705446400750858,1.5981992397402447,0.24982297302670564,0.27374414502286626
0.552,-0.0083,0.637,0.028477688858550072,1.585157125790875,0.2577061575386913,0.26952716027829027
0.5529999999999999,-0.002,-1.363,0.02915473433715488,1.5919299010654633,0.26461755482971544,0.27171704223471654
0.554,-0.003,-0.363,0.029350087937594714,1.5919299010654633,0.26661175815510213,0.27171704223471654
0.5549999999999999,0.0062,1.637,0.029443689869347343,1.6116067146880817,0.2675672628560313,0.27807926412532175
0.556,0.0226,0.637,0.03023508379149223,1.6049169780293944,0.27564594882690063,0.27591623154146067
0.5569999999999999,0.016,-1.363,0.031182078350791127,1.6116067146880817,0.2853130330015715,0.27807926412532175
0.558,-0.0061,-1.363,0.03190306682597068,1.601045592314767,0.29267300799835344,0.2746644732327747
0.5589999999999999,-0.0091,0.637,0.032107445738372944,1.613018689355407,0.2947593432685192,0.2785358063434739
0.56,-0.0012,-0.363,0.032345891763470316,1.6072793748040641,0.29719344151448857,0.27668007942671086
0.5609999999999999,0.0009,0.637,0.03241532763714979,1.6244364866895904,0.2979022549168573,0.2822275910772853
0.562,-0.0014,-0.363,0.032145128249594764,1.6192063772755574,0.29514401285750186,0.2805365085045474
0.563,0.0083,1.636999999999778,0.0319051160745512,1.6367021412854628,0.2926939270821308,0.28619351857292197
0.5640000000000001,0.0137,-0.36299999999988897,0.03184644268948318,1.6894498542147665,0.292094979024092,0.3032487522258144
0.565,0.009,0.6369999999996669,0.03193955436211285,1.6826186189938825,0.29304547907513956,0.30103996806514005
0.5660000000000001,0.016499999999999734,-2.362999999999778,0.03165936621543614,1.6821675661253763,0.29018527003584577,0.3008941264421584
0.567,0.0153,-0.36299999999977794,0.031649653476837486,1.682167566125376,0.29008612072112394,0.3008941264421583
0.5680000000000001,0.01639999999999627,1.636999999999556,0.031630453675484775,1.676664968616235,0.28989012582971607,0.29911493866311645
0.569,-0.0004,-2.362999999999778,0.03161014215595222,1.6702358278171894,0.2896827823269381,0.2970361660979054
0.5700000000000001,0.006399999999994516,-0.36299999999977794,0.031635184430284964,1.6646937907569908,0.28993841819255395,0.2952442260928219
0.571,-0.0183,1.637,0.03167546019336166,1.6702358278171894,0.2903495601447842,0.2970361660979054
0.5720000000000001,-0.024899999999999287,1.636999999999889,0.03167114511870869,1.669781430027135,0.29030551111675057,0.2968892429414242
0.573,-0.0217,0.636999999999778,0.0313506079308425,1.669781430027135,0.28703341208958316,0.2968892429414242
0.5740000000000001,0.01700000000000111,-1.363000000000111,0.030544982408030132,1.6693269085481,0.27880944747878716,0.2967422797918448
0.575,0.022,-2.362999999999112,0.030029916149136127,1.669781430027135,0.27355156206501297,0.2968892429414242
0.5760000000000001,-0.031000000000007837,5.6369999999998885,0.029918042844400833,1.6642378797888757,0.2724095400299811,0.2950968136714239
0.577,-0.0663,4.637,0.029877557441818997,1.6637818438916396,0.2719962580414406,0.29494936085594553
0.5780000000000001,-0.03450000000000655,-0.363,0.029932853906507715,1.6981215900757345,0.2725607339124565,0.3060526364716243
0.579,-0.064,-0.363,0.030002604248374753,1.697674656175509,0.27327275746044805,0.30590812665930384
0.5800000000000001,-0.016299999999990118,0.637,0.030034935015622276,1.6972276045834054,0.273602795521749,0.30576357879296423
0.581,0.0282,-0.363,0.030067247127180938,1.6785547798146205,0.27393264314255283,0.2997259826261318
0.5820000000000001,0.04550000000000111,-3.363,0.03011847733769925,1.6790068032319634,0.27445560998803636,0.29987213806247637
0.583,0.0505,-2.363,0.030243095082297715,1.6926708572968487,0.275727729468409,0.3042902184261637
0.5840000000000001,0.026599999999997112,-0.363,0.03048153457664004,1.6990151051720395,0.27816176104730184,0.306341542054323
0.585,0.0136,0.637,0.03048991170819845,1.6990151051720395,0.2782472762544614,0.306341542054323
0.5860000000000001,0.025600000000005663,-0.363,0.030575561133513247,1.6854024865769972,0.27912160039486966,0.30194009262887933
0.587,0.0511,-1.363,0.030575236867357754,1.6661417863968846,0.2791182902298963,0.2957124151875768
0.5880000000000001,0.04139999999999274,-4.363,0.030934865579718373,1.665686271756207,0.28278944229711883,0.2955651309131006
0.589,0.0087,-4.363,0.03212390731328798,1.6601290469050294,0.29492738587107553,0.2937682801486793
0.5900000000000001,0.021699999999999067,-2.363,0.03385266991988654,1.665686271756207,0.3125748934221057,0.2955651309131006
0.591,0.0175,2.637,0.03452116517859549,1.6707708888401418,0.3193990085902987,0.29720917058015167
0.5920000000000001,-0.015199999999997136,-1.363,0.034557222901240234,1.670316636609649,0.31976709205659837,0.2970622944883145
0.593,-0.0023,0.637,0.034525971581321285,1.6698622608090352,0.3194480731802389,0.29691537844181076
0.5940000000000001,-0.014299999999999223,0.637,0.03452733088990888,1.6749342008427812,0.31946194923729393,0.29855531916236744
0.595,-0.0108,2.637,0.0345216924186437,1.6799908286152725,0.31940439074785837,0.30019030887786713
0.5959999999999999,0.0055,0.637,0.03486282653546788,1.6799908286152725,0.32288674678655915,0.30019030887786713
0.597,-0.0151,2.637,0.03491747405208596,1.690058696728785,0.32344459808348197,0.3034456129190603
0.5979999999999999,-0.0503,0.637,0.034842385958844306,1.6896096300411794,0.32267808584668517,0.30330041349983416
0.599,-0.0837,-0.363,0.03494663750065822,1.7059389240373664,0.32374230360819,0.3085802618387566
0.5999999999999999,-0.0793,1.637,0.03495592658672095,1.7063836933721779,0.3238371282045854,0.30872407176918937
0.601,-0.0673,1.637,0.034954377942533345,1.7068283468079568,0.32382131937699377,0.30886784422529445
0.6019999999999999,-0.0636,1.637,0.03492302801247079,1.706828346807957,0.323501293871241,0.3088678442252945
0.603,-0.0338,-0.363,0.0349202353567306,1.7131201656415964,0.3234727859586598,0.3109022156577244
0.6039999999999999,0.026,2.637,0.03492007356420353,1.7077173063445246,0.32347113435257335,0.3091552768316039
0.605,0.0688,0.637,0.03491886370442844,1.7081616126260732,0.3234587838948326,0.30929893704025435
0.6059999999999999,0.0765,1.637,0.03495758367058162,1.7014055077869858,0.3238540440031064,0.30711444523549103
0.607,0.0697,1.637,0.03489175767865744,1.7014055077869858,0.3231820808977604,0.30711444523549103
0.6079999999999999,0.0378,-2.363,0.0349826475883469,1.702743019750783,0.3241099008086232,0.30754691098214193
0.609,0.0437,-0.363,0.03508004714157951,1.6973071282978582,0.3251041722861405,0.30578929167141183
0.6099999999999999,0.0387,-2.363,0.035240730837412276,1.703634111020154,0.32674445923167755,0.30783503285437447
0.611,0.0149,0.637,0.03531440901445363,1.703634111020154,0.32749657880016,0.30783503285437447
0.6119999999999999,0.0107,-2.363,0.0353334586812055,1.7036341110201538,0.3276910410916076,0.3078350328543744
0.613,0.0148,-4.363,0.03534866734857578,1.703634111020154,0.32784629379734853,0.30783503285437447
0.6139999999999999,0.0258,-0.363,0.035599245660808715,1.7022972991957996,0.3304042405277882,0.3074027934879991
0.615,0.0226,-0.363,0.035884335001184514,1.707717306344527,0.33331448179966483,0.30915527683160465
0.6159999999999999,0.0077,0.637,0.03592429694113426,1.7126771457187124,0.3337224201911624,0.31075897137511826
0.617,-0.0111,-0.363,0.035886667795322555,1.7014055077869927,0.33333829536551185,0.30711444523549325
0.6179999999999999,0.0009,0.637,0.03586530677062419,1.7180644077002762,0.33312023833256627,0.3125008670278845
0.619,-0.0146,-0.363,0.035871309644698056,1.7167388326779325,0.3331815167088697,0.3120722609239419
0.6199999999999999,-0.0163,-1.363,0.03587147321868391,1.7000669435483466,0.3331831865003954,0.30668163925051883
0.621,-0.0036,-0.363,0.03586597155151198,1.700066943548347,0.33312702453079396,0.306681639250519
0.6219999999999999,0.0045,0.637,0.03587032841116552,1.7122340111697718,0.33317150010733704,0.31061569002978334
0.623,-0.0122,-0.363,0.03578805522849106,1.7059389240373823,0.3323316412354752,0.30858026183876175
0.6239999999999999,-0.0143,0.637,0.03573454539335907,1.705494038712864,0.3317854035878411,0.30843641440468306
0.625,-0.0085,-0.363,0.03569521505218044,1.7005132487006767,0.3313839126657879,0.3068259457660199
0.6259999999999999,-0.0174,-0.363,0.03562761593446156,1.7005132487006893,0.3306938491857973,0.306825945766024
0.627,-0.0189,-3.363,0.03553466488620955,1.6127992540243903,0.3297449888161651,0.27846485500484036
0.6279999999999999,-0.0232,-0.363,0.034964280509037014,1.5545315514326195,0.3239224064877868,0.25962481006390015
0.629,-0.0196,-0.363,0.03480267464756695,1.5550196271623757,0.3222727059160032,0.259782622510147
0.6299999999999999,-0.0257,0.637,0.03427941383708773,1.5917075584032674,0.3169311691029997,0.27164515085129604
0.631,-0.0333,0.637,0.03434235918264908,1.598452579196142,0.31757372607227713,0.2738260587850727
0.6319999999999999,-0.048,2.637,0.03430009485199067,1.5989272480008294,0.3171422844783957,0.27397953629001276
0.633,-0.059,1.637,0.03416043538434189,1.562408856151817,0.31571661648876115,0.2621718261349289
0.6339999999999999,-0.0368,0.637,0.0338285052088323,1.5440715095820674,0.31232821587414716,0.25624270214162304
0.635,-0.0338,-1.363,0.03382130248876469,1.562408856151817,0.31225468926251415,0.2621718261349289
0.6359999999999999,0.0015,-0.363,0.03381621609646342,1.562408856151817,0.31220276649058376,0.2621718261349289
0.637,0.0546,-0.363,0.03377790349095214,1.582932254761319,0.31181166479016564,0.26880777941513345
0.6379999999999999,0.0898,-0.363,0.0334268538038787,1.5775645521135322,0.3082280888961887,0.2670722079987964
0.639,0.1087,-1.363,0.033172396312921126,1.5335401230507728,0.3056305428387081,0.2528375259168095
0.6399999999999999,0.0677,-1.363,0.03316112132337275,1.475228252979415,0.30551544579621465,0.2339832000404053
0.641,0.0199,-0.363,0.03313373198294916,1.4563143506025131,0.30523585067419035,0.22786765480798157
0.6419999999999999,0.0137,-0.363,0.03308837071784555,1.4345090082845096,0.30477279503810434,0.22081720299761978
0.643,-0.0037,-1.363,0.0332759810613273,1.4504781558824775,0.30668795385783365,0.22598060304656414
0.6439999999999999,-0.0087,-1.363,0.03343479892628446,1.4578767359255507,0.30830919407923374,0.2283728302034716
0.645,-0.0521,-0.363,0.03373402021065687,1.4578767359255485,0.3113636966785124,0.22837283020347088
0.6459999999999999,-0.0228,-2.363,0.03602094600821342,1.5015927217218243,0.3347090305762837,0.24250778147844465
0.647,0.0034,-0.363,0.03678871839812602,1.519943292542795,0.34254658386251197,0.24844118134802898
0.6479999999999999,-0.0301,-2.363,0.03686305991503731,1.517444934830351,0.34330547491906277,0.24763337239920596
0.649,-0.0172,0.637,0.03657019784145087,1.5230245360206345,0.340315888242847,0.24943745823924582
0.6499999999999999,-0.0133,0.637,0.035702199790529854,1.5230245360206345,0.3314552140823576,0.24943745823924582
0.651,-0.0026,0.637,0.03481865528055007,1.5154432831351536,0.32243583898017497,0.24698616637912596
0.6519999999999999,0.0071,1.637,0.0341906208294957,1.5078239126231008,0.31602475473125313,0.24452254971871856
0.653,-0.0017,-0.363,0.03360334039704562,1.5006716013229968,0.31002969454966645,0.2422099501080968
0.6539999999999999,0.0009,0.637,0.03343395862680628,1.5011771885683696,0.3083006161568922,0.24237342465747322
0.655,0.0176,-0.363,0.03337697366572754,1.4795201458905218,0.3077189038228252,0.23537092345715754
0.6559999999999999,-0.007,0.637,0.03289094062689335,1.4795201458905218,0.3027573945385905,0.23537092345715754
0.657,-0.0298,1.637,0.032387955418112686,1.5139403076136546,0.29762283457290606,0.24650020031026343
0.6579999999999999,-0.0268,-0.363,0.03197759240708492,1.5139403076136546,0.2934337780141083,0.24650020031026343
0.659,-0.0348,1.637,0.03197133600855072,1.5026929296633291,0.2933699116162853,0.24286351829558933
0.6599999999999999,-0.0228,-0.363,0.031680530552275654,1.5026929296633291,0.2904013192451254,0.24286351829558933
0.661,-0.0116,0.637,0.03144397458956625,1.4898334595923353,0.28798651508276024,0.23870558888911197
0.6619999999999999,0.0105,-0.363,0.031417214955144886,1.4893240214473675,0.28771334810846816,0.23854086920532652
0.663,0.043,-1.363,0.031582289184903224,1.4763481084489751,0.2893984543833387,0.23434528961036288
0.6639999999999999,0.0472,-1.363,0.03154784155367127,1.409139639341573,0.28904680700852814,0.2126143731322164
0.665,0.0192,-1.363,0.03147344530242988,1.4156824597002642,0.28828735721447346,0.21472990238968281
0.6659999999999999,0.001,-1.363,0.03146757917903778,1.4162183882310306,0.2882274748127705,0.21490318736842157
0.667,-0.0089,-2.363,0.03193771329808613,1.4156824597002642,0.2930266851752777,0.21472990238968281
0.6679999999999999,-0.0176,-1.363,0.032092925554127405,1.4162183882310306,0.29461111871753837,0.21490318736842157
0.669,0.0012,-0.363,0.032164968165404303,1.4237950061804565,0.2953465421479459,0.21735298058693228
0.6699999999999999,-0.001,-0.363,0.03214925372716828,1.4237950061804565,0.29518612644577147,0.21735298058693228
0.671,0.0192,2.637,0.0323397265686335,1.4178249583590428,0.2971305061397755,0.21542264930129681
0.6719999999999999,0.0057,0.637,0.033170602057374814,1.4846403021280912,0.3056122267679063,0.23702645421141222
0.673,0.0095,-0.363,0.0341203184561718,1.5225262036694667,0.3153070959507165,0.24927632945822448
0.6739999999999999,-0.0026,0.637,0.034322586245089076,1.5599785099410937,0.3173718805073833,0.26138600775192405
0.675,-0.0006,-2.363,0.03431640121572203,1.5654065154318924,0.3173087426583567,0.263141077247332
0.6759999999999999,0.0174,-1.363,0.03430604904439858,1.5834968157957263,0.3172030659038371,0.26899032231260545
0.677,0.0195,1.637,0.03429211286339704,1.5834968157957263,0.31706080295893163,0.26899032231260545
0.6779999999999999,0.0081,0.637,0.034342458592600086,1.5471046995850137,0.3175747408662427,0.2572234416152605
0.679,-0.022,-3.363,0.034341111354920795,1.5545315514326015,0.3175609880311064,0.2596248100638943
0.6799999999999999,-0.0264,1.637,0.0342849503285783,1.555019627162358,0.3169876865652661,0.2597826225101412
0.681,-0.0224,0.637,0.0342522674401554,1.57515759014188,0.31665405399013347,0.26629395058173694
0.6819999999999999,-0.0333,-0.363,0.03438847545105945,1.574675756249796,0.3180444889126411,0.2661381563462145
0.683,-0.017,-0.363,0.03431103929631642,1.5540433224137424,0.317254007258113,0.25946694805376463
0.6839999999999999,-0.0256,-2.363,0.03396531978632397,1.5471046995850135,0.3137248427332426,0.25722344161526045
0.685,-0.0122,0.637,0.03435200891525247,1.546614126088769,0.317672232210907,0.25706482155122884
0.6859999999999999,0.0199,2.637,0.03500520866085803,1.5480853802033823,0.32434020813710185,0.25754053094778867
0.687,0.0158,0.637,0.035264776293455806,1.5555075497473057,0.32698991940387034,0.25994038543916076
0.688,0.0041,-2.362999999999889,0.03491501170454368,1.5555075497473057,0.3234194620140878,0.25994038543916076
0.6890000000000001,0.0006,-1.362999999999778,0.034125584183977105,1.5614371716019058,0.315360849410475,0.26185764555504565
0.69,0.017,0.637,0.032889436045882646,1.5559953193315121,0.30274203551552614,0.26009809889753505
0.6910000000000001,0.002199999999990985,0.637000000000222,0.032388384733168823,1.550044880073568,0.2976272170952177,0.2581741077660598
0.692,-0.0384,2.636999999999889,0.03245960582377489,1.5683123851200267,0.2983542543005956,0.2640806494817227
0.6930000000000001,-0.0325999999999823,1.636999999999889,0.03262417973001431,1.5683123851200267,0.3000342531864907,0.2640806494817227
0.694,0.0471,0.6369999999994449,0.032627499873991,1.562894471882949,0.3000681457901805,0.2623288431751004
0.6950000000000001,0.1267999999999885,-4.362999999999778,0.03268164215014543,1.5628944718829492,0.30062083950510593,0.26232884317510047
0.696,0.075,-2.363,0.03236402991301371,1.5628944718829492,0.29737859888069196,0.26232884317510047
0.6970000000000001,0.02789999999999816,-2.362999999999889,0.0322869023804363,1.5450541154355746,0.2965912676945841,0.25656041397194873
0.698,0.0196,-1.362999999999889,0.03232762411871085,1.5524907769599863,0.2970069622387328,0.25896495424208915
0.6990000000000001,0.027199999999992206,-0.363,0.032212585523109925,1.5340348775263348,0.29583262836733926,0.25299749784190195
0.7,-0.0079,-0.363,0.032244818917889405,1.5395543551774395,0.29616167243365293,0.2547821435782522
0.7010000000000001,-0.01409999999999869,-0.36299999999988897,0.03222029056963965,1.5450541154355748,0.2959112828143381,0.2565604139719488
0.702,-0.0082,0.637,0.03225615665835616,1.5445628906469617,0.2962774100483694,0.25640158332165847
0.7030000000000001,-0.003000000000003131,0.636999999999889,0.03227199021483495,1.5579448705343866,0.2964390417301587,0.2607284589536737
0.704,-0.0171,-0.363,0.03227380129310625,1.5584318772680166,0.2964575295302455,0.26088592575500635
0.7050000000000001,-0.038800000000002624,0.637,0.03227624700012078,1.565320290721941,0.2964824957302557,0.26311319769591246
0.706,-0.0506,3.637,0.032246386550864425,1.5726611222597315,0.2961776751020692,0.2654867526830517
0.7070000000000001,-0.04699999999999782,1.637,0.032313466961121314,1.5925760259368007,0.2968624435266153,0.27192595765564437
0.708,-0.0372,1.637,0.03217837282463735,1.591145910658897,0.29548337922675083,0.2714635499253242
0.7090000000000001,0.007499999999998645,-0.363,0.032279437191559075,1.591145910658897,0.29651506175596776,0.2714635499253242
0.71,0.0014,-1.363,0.03248017775578635,1.5911459106588968,0.2985642561389774,0.2714635499253241
0.7110000000000001,0.0073000000000059285,-0.363,0.03284893417086246,1.598368137172393,0.30232858537348734,0.27379875564025025
0.712,0.034,-1.363,0.03289887481790268,1.617966654430604,0.30283838813205094,0.2801356614988422
0.7130000000000001,0.0008000000000029311,-0.363,0.03289329123324781,1.617966654430604,0.302781389934622,0.2801356614988422
0.714,0.014,-1.363,0.03272608423626328,1.612244953879549,0.3010745120032007,0.2782856298221908
0.7150000000000001,-0.021700000000007418,0.637,0.03315072424357141,1.606502875120607,0.3054093106081892,0.27642900913764434
0.716,-0.0551,-0.363,0.034254688256695254,1.606502875120607,0.3166787661038752,0.27642900913764434
0.7170000000000001,-0.033399999999997355,0.637,0.03438625310318635,1.606502875120607,0.31802180280136016,0.27642900913764434
0.718,-0.0215,1.637,0.03438150502958339,1.6065028751206072,0.31797333364518965,0.2764290091376444
0.7190000000000001,-0.010599999999989054,-0.363,0.03436384426164221,1.6065028751206074,0.3177930494729098,0.27642900913764445
0.72,0.0387,0.637,0.034500804640366305,1.6241354915306057,0.31919116469619135,0.2821302685114377
0.7210000000000001,0.07390000000000137,-4.363,0.034526404476511494,1.6246026564394351,0.31945249224917804,0.2822813197368282
0.722,0.0801,-3.363,0.03459436825603094,1.6046123213810697,0.32014627825987035,0.27581772508435515
0.7229999999999999,0.0392,-3.363,0.03475285841313361,1.6241354915306052,0.3217641731828387,0.2821302685114375
0.724,0.0128,-1.363,0.03474137522848419,1.6312116624677426,0.32164695084876166,0.28441824920289305
0.7249999999999999,-0.0013,-2.363,0.03481687163239734,1.6377939993269865,0.3224176311914806,0.28654655556694175
0.726,-0.0144,-0.363,0.035453097625604425,1.6207782925537992,0.32891233611882453,0.28104476527747896
0.7269999999999999,-0.0265,0.637,0.035933237404203074,1.6150665528312806,0.3338136859837671,0.2791979542951218
0.728,-0.023,1.637,0.03588138649407992,1.6083912066452017,0.33328438292941276,0.27703957466887885
0.7289999999999999,-0.0002,0.637,0.03593160858683842,1.6255365834798934,0.3337970587345241,0.2825832919552468
0.73,-0.0209,2.637,0.03596952398497577,1.595432410712814,0.3341841056734012,0.2728495296372915
0.7309999999999999,-0.0452,-0.363,0.03591236798711552,1.6522583534468889,0.33360064736630024,0.29122340173624855
0.732,-0.0421,-0.363,0.035842248361722,1.6895297440167036,0.33288485410822977,0.3032745834735189
0.7329999999999999,-0.0335,0.637,0.03572246335989706,1.696333147951358,0.3316620681015582,0.3054743687778799
0.734,-0.0632,-0.363,0.03568230196332921,1.7031093745734536,0.3312520936224216,0.3076653666791479
0.7349999999999999,-0.0753,1.637,0.03559111041663002,1.6931191120540845,0.3303211945488174,0.304435155319085
0.736,-0.0427,1.637,0.03557632728886183,1.6994616865535743,0.3301702858249006,0.30648593788466577
0.7369999999999999,0.0229,-0.363,0.03561462866859414,1.6858526739370459,0.3305612729306263,0.3020856544018324
0.738,0.0511,-1.363,0.03578992236856988,1.6854024865770134,0.3323507013241849,0.30194009262888455
0.7389999999999999,0.0594,0.637,0.03580310962702954,1.6684174941187233,0.3324853191383116,0.29644823338264564
0.74,0.0362,-0.363,0.03597994926159728,1.6628693968986603,0.3342905286994416,0.2946543339098105
0.7409999999999999,0.0293,-2.363,0.03614696873635634,1.6679626009658306,0.33599549237156706,0.2963011500575338
0.742,0.0355,-0.363,0.036151579314872215,1.6744004702225224,0.33604255795411897,0.2983827448471849
0.7429999999999999,0.006,0.637,0.03738958620372244,1.6550117356983562,0.34868034629811745,0.29211366929528837
0.744,-0.0207,-1.363,0.03830399417192671,1.682698833123667,0.3580147809174303,0.3010659041797081
0.7449999999999999,-0.0255,-0.363,0.038369999682587586,1.6877321973803607,0.35868857658107506,0.3026933719634409
0.746,0.0048,0.637,0.03626098654680895,1.6466558119399988,0.3371594058916966,0.2894118984663702
0.7469999999999999,0.0166,1.637,0.035637597865184584,1.6349290686315676,0.3307957464602618,0.28562022038203616
0.748,0.0129,-0.363,0.035790557362210366,1.6174141251942578,0.3323571834490427,0.27995700891463315
0.7489999999999999,0.0225,-1.363,0.03590736364931407,1.6174141251942586,0.33354956222088933,0.27995700891463343
0.75,-0.0044,-1.363,0.035823667468682666,1.6178832309034594,0.3326951771398797,0.28010868767062136
0.7509999999999999,-0.0154,-0.363,0.03581814327906099,1.6178832309034592,0.3326387852572177,0.2801086876706213
0.752,-0.0123,2.637,0.035807251011658686,1.6178832309034594,0.33252759510855506,0.28010868767062136
0.7529999999999999,-0.0038,0.637,0.035837340136055426,1.624519573689195,0.3328347500921072,0.282254456094043
0.754,0.0041,1.637,0.035903114424125714,1.6245195736891955,0.3335061853955743,0.28225445609404315
0.7549999999999999,0.0108,1.637,0.03596097116719009,1.6245195736891955,0.33409679703086154,0.28225445609404315
0.756,0.022,2.637,0.03575394833319322,1.6297326321755696,0.3319834721519854,0.2839400254883118
0.7569999999999999,-0.0043,-1.363,0.03540488061613319,1.5963834032194057,0.328420128550542,0.2731570197349913
0.758,-0.037,-0.363,0.03509513814579791,1.5896296026476304,0.3252582238660859,0.27097327298276624
0.7589999999999999,-0.0501,1.637,0.0348977228996996,1.5828469847565672,0.3232429749054068,0.2687802085542589
0.76,-0.0541,1.637,0.03488981831727549,1.5833263320028703,0.32316228356150295,0.2689351987677214
0.7609999999999999,-0.0215,2.637,0.03489003226863789,1.5779599698772713,0.3231644676139976,0.2672000607904447
0.762,-0.0085,-0.363,0.03490948762889011,1.5779599698772713,0.3233630712948318,0.2672000607904447
0.7629999999999999,0.0274,-0.363,0.0348027124635131,1.5725752953218153,0.3222730919477191,0.2654590017456445
0.764,0.0709,-0.363,0.034871673331183156,1.612161234275068,0.3229770564066261,0.2782585602615131
0.7649999999999999,0.0884,-1.363,0.03519260421620756,1.6135727237039654,0.32625317436244566,0.27871494558462084
0.766,0.0301,-1.363,0.035247701330258646,1.6202267221417321,0.3268156152276895,0.2808664227156614
0.7669999999999999,0.0069,-2.363,0.0348319614014186,1.6273198898998176,0.3225716701623199,0.2831598990909396
0.768,0.0138,-1.363,0.03469042503428171,1.6273198898998176,0.32112684245823847,0.2831598990909396
0.7689999999999999,-0.0307,-2.363,0.03507454274580308,1.6206950137526932,0.32504798246247263,0.28101783824439414
0.77,-0.0133,0.637,0.03560533531419649,1.6381748791510102,0.33046640476233013,0.2866697077195498
0.7709999999999999,-0.0289,-0.363,0.0354573943635728,1.6550117356983616,0.32895619796281184,0.2921136692952901
0.772,-0.0336,2.637,0.03471618132208402,1.6131023644582243,0.3213897670967879,0.2785628615151624
0.7729999999999999,-0.0031,1.637,0.03379838994396585,1.5827617101579525,0.3120207940441611,0.2687526362080232
0.774,0.0231,1.637,0.033577303204379544,1.545861481674295,0.3097639023857057,0.25682146452902765
0.7749999999999999,0.0669,0.637,0.03360380331625381,1.5606916756256095,0.3100344201089716,0.2616165998801353
0.776,0.0611,-0.363,0.03380190935615486,1.5497836275460835,0.31205672081221114,0.2580896354230669
0.7769999999999999,0.0026,0.637,0.03377785914209616,1.549783627546084,0.31181121206937695,0.258089635423067
0.778,-0.0206,-2.363,0.03369069376411937,1.55524721484672,0.31092141282212205,0.2598562097979639
0.7789999999999999,-0.0275,-1.363,0.033619085090175686,1.5478237969378363,0.3101904190990296,0.25745595166527924
0.78,0.017,4.637,0.03365681253670506,1.5875489270410432,0.3105755473954,0.2703005156885537
0.7809999999999999,-0.0003,3.637,0.03359943769223357,1.5744185908736161,0.3099898550642581,0.2660550055263096
0.782,-0.0159,1.637,0.03329679256742123,1.5947874431003572,0.3069004013098661,0.2726409883998024
0.7829999999999999,-0.0018,1.637,0.03323057430534715,1.595263202462616,0.3062244338430156,0.27279481852124765
0.784,0.0027,1.637,0.03314459856438349,1.5947874431003568,0.3053467786160513,0.2726409883998022
0.7849999999999999,0.0067,1.637,0.032728200592365767,1.595263202462616,0.30109611613216364,0.27279481852124765
0.786,-0.0258,-1.363,0.03229616396471207,1.6082233618474735,0.29668581154798385,0.27698530440608066
0.7869999999999999,-0.0387,-0.363,0.032310902786043594,1.6015194925854888,0.29683626798413565,0.27481770224302887
0.788,-0.0105,-0.363,0.03231351755648949,1.6015194925854888,0.29686296001288043,0.27481770224302887
0.7889999999999999,-0.0356,-0.363,0.03201185548009794,1.6029403527621997,0.29378354138671414,0.27527711746609973
0.79,-0.0386,-1.363,0.031819660524238104,1.6224836416539987,0.29182158205125636,0.28159616600650456
0.7909999999999999,0.0062,1.637,0.03202112518393623,1.6224836416539987,0.29387816812601175,0.28159616600650456
0.792,0.1029,-0.363,0.03192588924456315,1.6048328761451258,0.2929059831928111,0.2758890383759718
0.7929999999999999,0.0894,-3.363,0.03185129345973117,1.6048328761451258,0.2921444965253689,0.2758890383759718
0.794,0.0522,-1.363,0.03202633700541678,1.6048328761451258,0.293931371300688,0.2758890383759718
0.7949999999999999,0.0182,-2.363,0.03299352994957094,1.6048328761451258,0.30380464407979274,0.2758890383759718
0.796,-0.0337,-1.363,0.03524549476197969,1.640407105255922,0.32679309019723357,0.2873914667432326
0.7969999999999999,-0.0432,-0.363,0.03725404282565226,1.7267974091392035,0.34729669606247754,0.31532456063961656
0.798,-0.0349,-1.363,0.037569995323491624,1.7365939382501123,0.35052199378126475,0.31849213101746116
0.7989999999999999,-0.0117,0.637,0.03755015851785397,1.7695212394839772,0.350319496239993,0.32913871235560205
0.8,-0.0048,-0.363,0.03748550927726271,1.7647211705837063,0.3496595456156864,0.3275866773554528
0.8009999999999999,-0.011,-0.363,0.03748422532515856,1.7755909195097894,0.3496464388106418,0.33110125831806425
0.802,-0.0168,1.637,0.03745420264426624,1.7915601358939095,0.34933996209386925,0.33626468060804676
0.8029999999999999,-0.0219,0.637,0.037446542771046344,1.779935398845558,0.34926176878382653,0.3325059848181687
0.804,-0.0266,-0.363,0.037452428661361566,1.7975554002547212,0.3493218529696979,0.33820316530825634
0.8049999999999999,-0.0048,-1.363,0.03752304717267881,1.7975554002547214,0.35004273894152355,0.3382031653082564
0.806,-0.0089,-1.363,0.037519042729305334,1.7915601358939095,0.3500018608912919,0.33626468060804676
0.8069999999999999,-0.0053,0.637,0.03747960766468566,1.78944104072212,0.3495993009342482,0.3355795008859226
0.808,-0.0021,0.637,0.037503742643560906,1.78944104072212,0.34984567497098357,0.3355795008859226
0.8089999999999999,0.0008,0.637,0.03752925360224628,1.78944104072212,0.35010609524749564,0.3355795008859226
0.81,-0.0018,0.637,0.037608156064295316,1.78944104072212,0.35091154522049395,0.3355795008859226
0.8109999999999999,-0.0137,-0.363,0.037380110026480465,1.7829929459476972,0.3485836118426206,0.3334945998184361
0.812,-0.0202,0.637,0.03756304966369073,1.7647976529667995,0.3504510912852741,0.32761140686203316
0.813,-0.0219,3.636999999999778,0.03767890488592023,1.7713119851789352,0.3516337614224679,0.32971772487660655
0.8140000000000001,-0.0494,1.637,0.03758407286937133,1.771311985178935,0.35066569980328527,0.3297177248766065
0.815,-0.0293,1.637,0.03694842985382696,1.7765214472045734,0.34417694601270554,0.331402131405705
0.8160000000000001,-0.011199999999994938,1.636999999999889,0.0358767668339444,1.7873194330944664,0.3332372246401175,0.33489350879640983
0.817,0.0116,0.637,0.035943232654314435,1.7825672915316662,0.3339157192248503,0.33335697042907236
0.8180000000000001,0.05610000000000135,0.6369999999996669,0.03630192640019027,1.7665167821902956,0.33757732699256215,0.3281672632007817
0.819,0.0622,-2.363,0.03627988199166913,1.7617085271637223,0.3373522938594125,0.32661258133143106
0.8200000000000001,0.02109999999999887,-2.363,0.03617260278191908,1.7520524308719196,0.3362571691402022,0.32349041793730915
0.821,0.016,-2.362999999999889,0.03615724525568849,1.7520524308719196,0.336100396857481,0.32349041793730915
0.8220000000000001,0.011099999999999024,-1.362999999999889,0.03607031886768206,1.7520524308719196,0.33521303726115936,0.32349041793730915
0.823,0.0067,-0.3629999999996669,0.03605427596185891,1.7665167821902956,0.3350492685050711,0.3281672632007817
0.8240000000000001,0.018500000000004017,2.636999999999889,0.036089592752979203,1.7599847013080936,0.3354097884142794,0.3260552064025114
0.825,0.0366,1.636999999999778,0.03605558658172342,1.7534282865053603,0.33506264753922377,0.32393528157210655
0.8260000000000001,0.006800000000000888,-0.363000000000111,0.0354335590122704,1.7534282865053603,0.32871288257613873,0.32393528157210655
0.827,0.0108,-1.362999999999889,0.034915323570789,1.7717403436449846,0.3234226455986344,0.32985622858264324
0.8280000000000001,0.006999999999994916,-0.3629999999995559,0.035033234445505615,1.7778024473377114,0.3246263001917912,0.33181632484399376
0.829,-0.0159,3.636999999999778,0.03538584711098142,1.779935398845558,0.328225831239502,0.3325059848181687
0.8300000000000001,-0.007199999999999422,1.637000000000111,0.03564007081989729,1.7751634902129187,0.33082099080948546,0.3309630550458581
0.831,-0.0046,2.636999999999778,0.03591692132142539,1.7344076868093892,0.33364712859010104,0.3177852372570533
0.8320000000000001,-0.03649999999999711,0.636999999999889,0.03613601329152931,1.7031093745734467,0.335883657296831,0.3076653666791457
0.833,-0.0235,-0.363,0.03614390803301885,1.696333147951351,0.3359642481827735,0.3054743687778777
0.8340000000000001,-0.03540000000000402,0.637,0.03617441786753856,1.7063045926784906,0.336275697847992,0.3086984956685772
0.835,-0.0535,2.637,0.03628138326666385,1.7049698746938569,0.3373676191340942,0.3082669333159278
0.8360000000000001,-0.043799999999995426,0.637,0.036354344433163294,1.7543705694206506,0.3381124193350103,0.3242399555455344
0.837,-0.0232,-0.363,0.036267188529911315,1.7543705694206506,0.33722271680738425,0.3242399555455344
0.8380000000000001,-0.025800000000004906,1.637,0.03612844267862687,1.759630187962411,0.33580637517153983,0.32594057948111693
0.839,-0.0479,2.637,0.0361389355969941,1.7600613895115529,0.33591348869621424,0.32608000245822233
0.8400000000000001,-0.05089999999999219,-0.363,0.03599811184472912,1.7783051437341855,0.3344759354879398,0.3319788646778975
0.841,-0.0157,-0.363,0.03628689796998425,1.7735288486948493,0.33742391417895284,0.3304345166224622
0.8420000000000001,0.028000000000001333,-0.363,0.03668327673393581,1.7670226892237297,0.34147021712604536,0.32833084114914557
0.843,0.034,0.637,0.03532051106533597,1.7735288486948493,0.32755886959046965,0.3304345166224622
0.8440000000000001,0.08200000000000991,-1.363,0.034263067455185856,1.7411132539256913,0.3167643024106359,0.31995338839750115
0.845,0.1266,-3.363,0.03466842345160766,1.7542936324454184,0.3209022464987395,0.32421507905295754
0.8460000000000001,0.1207999999999846,-5.363,0.035849873655965286,1.7384186027020834,0.33296269443010135,0.3190821106931336
0.847,0.0514,-2.363,0.03648616275415105,1.7335324142173054,0.3394580435439771,0.3175022301324038
0.8480000000000001,0.004099999999998113,-3.363,0.036435936988583904,1.7335324142173054,0.3389453302462002,0.3175022301324038
0.849,-0.0044,0.637,0.03627130785734321,1.7445964962367004,0.337264767613945,0.321079645976925
0.8500000000000001,0.00319999999999849,-2.363,0.036414541233335034,1.7494517832052292,0.338726918677791,0.32264953496549764
0.851,-0.0036,-2.363,0.036530102432379793,1.7656574268069503,0.3399065873754851,0.3278894026824789
0.8519999999999999,-0.0097,1.637,0.036673562992329954,1.7708835230973925,0.3413710575724527,0.3295791876679524
0.853,0.0077,2.637,0.03669697149838762,1.780437493015411,0.3416100156490759,0.33266832993053547
0.8539999999999999,0.0234,1.637,0.03665913838664861,1.7804374930154108,0.34122380870397845,0.3326683299305354
0.855,0.0093,0.637,0.03656226368582418,1.7984745636002542,0.34023489501057863,0.3385003638928518
0.8559999999999999,0.0137,-2.363,0.03658337439740139,1.8281409240593747,0.34045039680391015,0.34809256573749603
0.857,-0.0141,-1.363,0.03660106706606829,1.8406982436193868,0.340631006624313,0.3521527990112512
0.8579999999999999,-0.0395,-0.363,0.03659908531135414,1.8465339749173866,0.34061077652959165,0.3540397009316487
0.859,-0.0557,1.637,0.036654350227207526,1.8465339749173866,0.3411749303446424,0.3540397009316487
0.8599999999999999,-0.0349,-0.363,0.03682321750455039,1.8523513211550642,0.34289875670498554,0.3559206583004799
0.861,-0.0428,-0.363,0.036888025472668624,1.8519416082922817,0.3435603276473278,0.355788183388919
0.8619999999999999,-0.0307,1.637,0.03686245298171213,1.852351321155064,0.34329927923875464,0.35592065830047986
0.863,-0.0059,-0.363,0.037009427769531075,1.856924883796729,0.344799623281335,0.3573994556766672
0.8639999999999999,0.0169,-1.363,0.037202719291099855,1.8277257840715528,0.34677277654912037,0.3479583360411213
0.865,0.0021,-2.363,0.03707815927709773,1.8369841468878116,0.3455012463926555,0.35095189789064035
0.8659999999999999,0.0372,0.637,0.03700225512884289,1.846196081155604,0.3447264037252072,0.35393044771976484
0.867,0.0514,-0.363,0.03700862936164294,1.8553622784328352,0.3447914729955867,0.35689420913405046
0.8679999999999999,-0.0054,0.637,0.03701077255799772,1.8599284371475333,0.3448133511144852,0.358370612554228
0.869,-0.0129,1.637,0.03659454249869461,1.8595203937707596,0.3405644027126164,0.35823867744756815
0.8699999999999999,0.0082,0.637,0.0360626593433862,1.8441397690443033,0.3351348475129935,0.3532655680202694
0.871,0.0145,-0.363,0.03600166722234328,1.8290447171004047,0.33451222939726727,0.34838479454956384
0.8719999999999999,0.0319,-3.363,0.03596962678492362,1.813405627562218,0.33418515507304053,0.34332811414808806
0.873,0.0163,-0.363,0.036074515042475545,1.814660590704622,0.33525587253887235,0.3437338888903628
0.8739999999999999,-0.0169,-0.363,0.036448918107272625,1.8197459611153814,0.33907784374990835,0.3453781721350838
0.875,-0.0049,0.637,0.037021424807777766,1.8019218278309483,0.34492209112176625,0.339614988464282
0.8759999999999999,-0.0091,2.637,0.03839175069351019,1.8134056275622232,0.35891061466081725,0.3433281141480898
0.877,-0.0288,1.637,0.039182911481747566,1.8197459611153846,0.36698692076045525,0.3453781721350848
0.8779999999999999,-0.0539,2.637,0.03916828998908133,1.849071076324352,0.36683766203560214,0.3548600371110557
0.879,-0.0506,0.637,0.03932146540260958,1.849481425091912,0.3684013031373671,0.3549927176335134
0.8799999999999999,-0.0476,2.637,0.03984243098225293,1.815496750858536,0.3737194098372061,0.3440042495563381
0.881,-0.0397,-1.363,0.04001733200657833,1.8142423661120293,0.37550482972984156,0.3435986618302699
0.8819999999999999,-0.0176,-0.363,0.04012521363012452,1.8759887503154498,0.3766061039932262,0.3635634897124198
0.883,0.015,-2.363,0.040542569335098234,1.8805048254095784,0.3808665431806984,0.36502369929586853
0.8839999999999999,0.028,-1.363,0.04061233798585807,1.8854126078734068,0.3815787536290328,0.3666105619670586
0.885,0.024,-4.363,0.04053178558968609,1.9000598970942673,0.38075646084327236,0.3713465576372042
0.8859999999999999,0.0059,-1.363,0.040304999715872515,1.9338055065908055,0.3784413914373771,0.3822577274825036
0.887,0.0223,-1.363,0.040627787788271134,1.9480889733117424,0.38173646788297716,0.38687608624670994
0.8879999999999999,0.0137,0.637,0.04056270009687566,1.9528269128312654,0.3810720414770632,0.3884080325824125
0.889,-0.0159,2.637,0.04079496289344321,1.9614948803489787,0.3834430202572637,0.3912106983872488
0.8899999999999999,-0.0598,0.637,0.04157659558521853,1.9497157176861486,0.39142206190103057,0.3874020712393903
0.891,-0.0541,-0.363,0.0421494258328308,1.9556141676501106,0.39726961209769185,0.38930925236134906
0.8919999999999999,-0.0277,1.637,0.04285758328730004,1.9875858619331792,0.40449860581687763,0.3996468515859336
0.893,0.0251,0.637,0.04318879311403336,2.0037591292215664,0.4078796529866519,0.40487625087579143
0.8939999999999999,0.0743,2.637,0.04306131851286593,2.003759129221567,0.40657837022053916,0.4048762508757916
0.895,0.0931,0.637,0.04229598527877968,1.9995214529632301,0.39876571625865964,0.4035060576538008
0.8959999999999999,0.0758,0.637,0.04061169861584207,1.9708264324143352,0.38157222682937736,0.394227924954628
0.897,0.0388,-0.363,0.038806841758167725,1.9000598970942586,0.36314793600843825,0.3713465576372014
0.8979999999999999,-0.0048,-2.363,0.038480353334375356,1.8850100809988422,0.359815085736106,0.3664804105440676
0.899,-0.0343,-1.363,0.03863465041713655,1.8591122608354451,0.36139017703131143,0.3581067133834094
0.8999999999999999,-0.0294,-2.363,0.03875179370034266,1.8739651301469185,0.36258599591763024,0.36290918049440185
0.901,-0.0342,-1.363,0.03875421591216525,1.8739651301469182,0.3626107222746594,0.3629091804944018
0.9019999999999999,-0.0213,-2.363,0.03918810225776687,1.8739651301469153,0.36703990909942485,0.36290918049440085
0.903,0.0143,0.637,0.03924327582908118,1.8678088542688545,0.36760313045362936,0.36091863497685933
0.9039999999999999,-0.0,2.637,0.039245728149714686,1.8554350245272138,0.36762816416660543,0.3569177305640435
0.905,-0.0133,3.637,0.03936222771595575,1.8645558035090972,0.36881741187886136,0.3598668066091206
0.9059999999999999,0.0145,2.637,0.03949056072733833,1.8645558035090968,0.3701274574448495,0.35986680660912046
0.907,-0.0037,1.637,0.039647826650464554,1.8492170606288676,0.37173285517574467,0.35490723908977473
0.9079999999999999,-0.0202,0.637,0.039763431713278764,1.8442129578173925,0.3729129716423804,0.3532892325842189
0.909,-0.0352,1.637,0.03962497347901023,1.8446243873055248,0.37149956605075674,0.3534222625425261
0.9099999999999999,-0.0219,-0.363,0.0392469553402071,1.8387825955728359,0.3676406915393047,0.3515334010655161
0.911,0.0001,0.637,0.03910536620572283,1.8391952398378708,0.36619532517701897,0.3516668238049082
0.9119999999999999,0.0387,-1.363,0.03898903197431359,1.8566615791857188,0.36500776523130884,0.3573143198212287
0.913,0.0438,-1.363,0.039015560277768,1.8508577803720359,0.36527857073909853,0.35543774282206264
0.9139999999999999,0.039,-2.363,0.0390131334219776,1.8512677331019431,0.36525379697564314,0.35557029529129636
0.915,0.0173,-2.363,0.038985002699881956,1.8636692317756494,0.3649666337013428,0.3595801460654821
0.9159999999999999,0.0132,-2.363,0.03898541303809613,1.854544092576413,0.36497082250477103,0.3566296602052376
0.917,-0.0122,-1.363,0.03881237961494542,1.8591122608354385,0.36320446740779166,0.3581067133834072
0.9179999999999999,-0.0089,-0.363,0.038611107501759126,1.8640763669785494,0.3611498468811159,0.359711787526849
0.919,-0.0004,-0.363,0.03861270002805049,1.8686212320870517,0.36116610366480895,0.3611813059579187
0.9199999999999999,0.0021,0.637,0.03859143844290704,1.862854694426225,0.3609490617280307,0.3593167768302688
0.921,-0.0049,-0.363,0.038587724110479706,1.8628546944262248,0.3609111451804907,0.35931677683026875
0.9219999999999999,-0.0296,1.637,0.0386492763976725,1.8632620076109885,0.36153948156911453,0.3594484758395767
0.923,-0.0525,-1.363,0.03854144753718061,1.8324344721843022,0.36043874592010966,0.3494808243444374
0.9239999999999999,-0.0674,-0.363,0.038712582075530785,1.8387091906472808,0.3621857168727722,0.3515096666116964
0.925,-0.108,2.637,0.03893107727563328,1.8449625689135793,0.36441615364815994,0.3535316088254676
0.9259999999999999,-0.0786,1.637,0.03935080915814333,1.8619673127135208,0.36870084926670893,0.35902985439119056
0.927,0.0012,3.637,0.039693394441700704,1.8445512148572851,0.37219801906629524,0.3533986032569879
0.9279999999999999,0.0354,0.637,0.0397975373780919,1.8382964372782944,0.37326112816486956,0.3513762085950708
0.929,0.0662,0.637,0.0394941580382854,1.8520873663371886,0.37016417941688856,0.3558353122097649
0.9299999999999999,0.0381,-1.363,0.039168270497867724,1.8825931123593838,0.366837463065924,0.3656989176112285
0.931,0.0298,-5.363,0.03901792165934483,1.9421676691308938,0.3653026761304628,0.38496151553405034
0.9319999999999999,0.0686,-1.363,0.03933215183387907,1.9520495789186865,0.3685103920752017,0.38815669255705215
0.933,0.0335,-1.363,0.039867611373765086,1.952438284560444,0.37397645562686654,0.38828237507813623
0.9339999999999999,-0.0245,-2.363,0.040466642688797315,1.942558352142359,0.3800914708493063,0.38508783740991415
0.935,-0.0321,-4.363,0.04093141114124079,1.942558352142359,0.38483590755951186,0.38508783740991415
0.9359999999999999,-0.0673,-2.363,0.04092511759331778,1.8923851177235507,0.3847716619343056,0.36886502529896986
0.937,0.0034,-1.363,0.040931327837943135,1.887897461914442,0.3848350571850482,0.3674140046930018
0.938,0.0506,-2.362999999999889,0.040958054231806505,1.8833991132058037,0.38510788483397773,0.36595952668784465
0.9390000000000001,0.0935,-1.362999999999667,0.04128121597940577,1.937333994299186,0.3884067758206257,0.38339861452699864
0.94,0.086,1.637000000000222,0.04126217436575799,1.937333994299186,0.38821239573665683,0.38339861452699864
0.9410000000000001,0.07919999999999582,3.636999999999889,0.0409440867824452,1.9535348469860103,0.38496530269625023,0.3886369331687985
0.942,0.0603,2.636999999999778,0.040745483808475466,1.9699876872129884,0.38293792920412917,0.39395672844979784
0.9430000000000001,0.007399999999995337,0.637,0.04071029939808202,1.964518717475115,0.38257876066026614,0.39218841373926167
0.944,-0.0136,0.637,0.0406420131977925,2.0128947585521035,0.38188168332261396,0.40783012857296014
0.9450000000000001,-0.04529999999999345,0.636999999999778,0.04001093712447858,2.044779067229899,0.37543954966784077,0.4181394728868943
0.946,-0.0158,-1.362999999999889,0.03905801050821613,2.114713988939717,0.36571191003017123,0.44075194959951114
0.9470000000000001,-0.010700000000005329,-0.363000000000111,0.03853446435476004,2.1597284025344,0.36036746038673056,0.4553067293040687
0.948,-0.0347,-1.363000000000111,0.03848913791382477,2.172876291874983,0.35990476024177526,0.4595579150388238
0.9490000000000001,-0.03039999999999205,-2.363,0.03851519389935189,2.1887205300258463,0.3601707442465103,0.46468092736880345
0.95,0.0054,-2.363,0.03836276535657633,2.1992199399785948,0.35861472733050537,0.4680757644151344
0.9510000000000001,0.05829999999999216,-2.362999999999778,0.03825048283890559,2.1862304858639376,0.357468527979085,0.46387580649002164
0.952,0.023,-0.363000000000111,0.03815779194318898,2.182347160797815,0.35652232329150846,0.4626201877593741
0.9530000000000001,-0.008800000000006528,-1.363000000000111,0.038136616145362054,2.1696064665335992,0.35630615708648794,0.4585006628452322
0.954,-0.0382,-2.362999999999667,0.03816847191789559,2.174559706258973,0.3566313463196329,0.4601022234848047
0.9550000000000001,-0.03310000000000104,0.636999999999889,0.03816967703489125,2.160017250663451,0.3566436483622613,0.4554001242980426
0.956,-0.0378,-0.363,0.03814638595128855,2.130990716493521,0.356405888954358,0.44601480131607124
0.9570000000000001,-0.033399999999997355,-0.36299999999988897,0.038128719273406074,2.1161488702026983,0.3562255444523757,0.4412158983443052
0.958,-0.0215,0.637,0.038190502896330115,2.1106990898606894,0.3568562423561366,0.43945378825595927
0.9590000000000001,0.01119999999999518,0.637,0.0383340695616714,2.123793200515676,0.3583217956952799,0.4436875854065
0.96,-0.0105,0.637,0.038308503746623056,2.1183630863558784,0.3580608154355312,0.4419318341025268
0.9610000000000001,-0.030400000000000777,2.637,0.038397676726610604,2.118363086355878,0.35897110863117965,0.4419318341025266
0.962,-0.0339,0.637,0.038640298817663794,2.1183630863558784,0.36144783688037074,0.4419318341025268
0.9630000000000001,-0.003999999999997313,0.637,0.03863796966996131,2.114355116473252,0.3614240605379683,0.4406359132175101
0.964,0.0081,2.637,0.03842110655552627,2.109979918154987,0.35921028437522357,0.43922125416497904
0.9650000000000001,-0.0027000000000007105,1.637,0.03822305346690171,2.0964376088829217,0.35718852420776853,0.43484253827364994
0.966,-0.0059,-1.363,0.03818579404285784,2.0828072500498354,0.35680817356584027,0.4304353527908855
0.9670000000000001,0.032899999999994135,-1.363,0.03822975034308535,2.069087101545407,0.35725688707758535,0.4259991350764031
0.968,0.0065,-1.363,0.03821483088798032,2.0646159764571905,0.3571045867006462,0.4245534594473376
0.9690000000000001,0.001800000000000977,0.637,0.03821628055001008,2.0649834930824476,0.35711938510125885,0.42467229079692576
0.97,0.0062,0.637,0.03834695374660893,2.0694538241386975,0.3584533196824983,0.4261177096868843
0.9710000000000001,0.026199999999991185,0.637,0.038879003530874895,2.073548585715045,0.3638845758593262,0.42744169344957544
0.972,-0.0135,0.637,0.039105685060053484,2.1197954975605624,0.3661985800971488,0.44239498418859113
0.9730000000000001,-0.03980000000000104,1.637,0.03899356153839508,2.1597284025343986,0.36505400380450903,0.45530672930406824
0.974,-0.0445,1.637,0.038685084903850094,2.1607822338440115,0.3619050209906338,0.4556474708873151
0.9750000000000001,-0.05749999999999896,2.637,0.038118788785390344,2.175668391892027,0.35612417231396054,0.46046070144468676
0.976,-0.0528,-0.363,0.036604503967609656,2.1607822338440115,0.34066609110940765,0.4556474708873151
0.9770000000000001,-0.040699999999995934,-0.363,0.0357547476394554,2.1557973387206895,0.33199163160849127,0.4540356749185047
0.978,-0.0224,-3.363,0.036352572895816664,2.1263563623702346,0.3380943351755183,0.4445163478663675
0.9790000000000001,0.0005000000000072387,-3.363,0.03731106033192135,2.1303417535388447,0.34787874062347396,0.4458049682406749
0.98,0.0331,-5.363,0.03709120659314801,2.1303417535388447,0.34563443565047447,0.4458049682406749
0.9809999999999999,0.0636,-2.363,0.037619681670730445,2.1314101145141175,0.3510292006034932,0.44615040778766213
0.982,0.0675,0.637,0.03834067260314771,2.0772699988058236,0.35838920068418245,0.4286449602123871
0.9829999999999999,0.071,-1.363,0.038442840888698315,2.0883298192051893,0.35943215220560487,0.4322209981218036
0.984,0.0676,-1.363,0.03847681708985582,2.083899980863354,0.3597789871407161,0.43078867198349674
0.9849999999999999,0.0229,0.637,0.03842178200149571,2.070187074436439,0.35921717944444853,0.42635479589327197
0.986,-0.0092,0.637,0.03829624386357077,2.027369628988711,0.35793566442988467,0.4125103750458748
0.9869999999999999,-0.0267,0.637,0.03771950591976951,2.017856612598262,0.35204822379497636,0.4094344745324182
0.988,-0.0533,4.637,0.03775164195558685,2.013271716750434,0.3523762740041734,0.4079520127228667
0.9889999999999999,-0.0098,2.637,0.037432773445889946,1.9994539491694652,0.3491212091322337,0.40348423124823396
0.99,0.0311,2.637,0.03639913106804051,1.9952071290396882,0.3385696090464051,0.4021110814835754
0.9909999999999999,0.0362,2.637,0.03560661816018944,1.989807475940846,0.3304795002760004,0.4003651793367136
0.992,0.022,0.637,0.034928579734372946,1.9625863825591343,0.3235579668081819,0.3915636203281831
0.9929999999999999,-0.0085,-4.363,0.0344797464609834,1.946460869394796,0.31897619916058095,0.38634966166500484
0.994,-0.0206,-4.363,0.034483191508002636,1.946460869394796,0.3190113667961218,0.38634966166500484
0.9949999999999999,0.0336,-5.363,0.034465439537200195,1.946460869394796,0.3188301516092674,0.38634966166500484
0.996,0.041,-4.363,0.03417474946413974,1.9464608693947965,0.3158627370899093,0.38634966166500495
0.9969999999999999,0.034,-2.363,0.034165263600761595,1.9417073962226796,0.3157659037566599,0.38481269274045904
0.998,0.015,3.637,0.03416924399909679,1.9420981718251435,0.315806536350984,0.38493904455432454
0.9989999999999999,-0.0026,2.637,0.034190153062009315,1.9669036367054553,0.316019979679886,0.39295954394487354
1.0,0.0025,-0.363,0.03449465712748631,1.9570967305030822,0.3191284098219503,0.3897886182799514
1.001,-0.0215,0.637,0.03470617597613908,1.9570967305030822,0.3212876307956902,0.3897886182799514
1.002,-0.0171,0.637,0.03429648357659683,1.9424888688142543,0.3171054199548698,0.3850653709496641
1.003,-0.0211,1.636999999999778,0.034256572688791315,1.9484091968548845,0.31669800271248627,0.38697962604106584
1.004,-0.003,0.637,0.03424744094957461,1.9440508715849252,0.3166047843398967,0.38557042265220826
1.005,0.0002,0.637,0.03405334792345621,1.9293442368409892,0.31462344917510726,0.38081523843897525
1.006,-0.0086,0.637,0.03396032396424049,1.9436604885754654,0.3136738445177528,0.38544419777778804
1.007,-0.022,-0.3630000000004441,0.03380676371471167,1.9436604885754656,0.3121062749435648,0.3854441977777881
1.008,-0.0388,-2.363,0.033641450845258214,1.9484091968548884,0.3104187325934313,0.3869796260410671
1.009,-0.0323,-0.363,0.03358339298552241,1.9625863825591443,0.3098260679243937,0.3915636203281863
1.01,-0.0341,-0.363,0.033571051698070134,1.9621996872249978,0.30970008592855913,0.3914385878118914
1.011,-0.0432,0.637,0.03356253540214739,1.9665177903147644,0.3096131501075101,0.392834785922546
1.012,-0.0384,0.637,0.03344902790670216,1.9559331591758844,0.30845444597119753,0.38941239380015713
1.013,-0.0156,-0.363,0.03329260409939986,1.9719812159564734,0.3068576447042153,0.39460130802729465
1.014,0.0007,-0.363,0.03331048101225599,1.9719812159564734,0.3070401353211534,0.39460130802729465
1.015,0.0037,-0.363,0.03340545769595359,1.9555451482139317,0.3080096737275995,0.3892869358940512
1.016,0.0226,-0.363,0.03342975558069911,1.9496464894389527,0.30825771073562125,0.3873796872559769
1.017,0.006,-0.36299999999977794,0.03342628760117344,1.94490080215993,0.30822230900109016,0.3858452357908343
1.018,-0.0095,0.637,0.03329619168674935,1.9460709698324115,0.3068942674160893,0.3862235931064203
1.019,-0.0316,-1.363,0.03329318216513988,1.9413165419593916,0.3068635456992235,0.38468631549271864
1.02,-0.0641,-1.363,0.03330240382099876,1.9409256089877487,0.30695768195644096,0.38455991279573487
1.021,-0.0423,-4.363,0.03330330041051905,1.9570967305030886,0.30696683449726353,0.3897886182799535
1.022,0.0016,-4.363,0.033282938953641865,1.9570967305030886,0.3067589812254386,0.3897886182799535
1.023,0.0191,1.637000000000222,0.03327754037993464,1.962586382559144,0.30670387165174734,0.3915636203281862
1.024,0.0141,2.637,0.03305330775408462,1.9614260678456539,0.3044148662424613,0.39118844882878895
1.025,0.0189,-0.363,0.03275977180700681,1.9555451482139317,0.3014184005491486,0.3892869358940512
1.026,0.0059,0.637,0.032265094598823575,1.9536039374447187,0.2963686500898229,0.38865927260023575
1.027,0.0657,-0.363,0.03190257072295562,1.958328534219629,0.29266794369301097,0.3901869047464825
1.028,0.0912,-1.363,0.03207678076310199,1.9630417599934273,0.29444630989969184,0.3917108602388979
1.029,0.0524,0.637,0.032054402408938705,1.9334130549006376,0.29421786779169573,0.38213083372917145
1.03,0.0735,1.637,0.03208610182541445,1.9037218354326473,0.29454146091517247,0.37253059407243816
1.031,0.0798,2.637,0.03222630929744738,1.825306908168209,0.2959727230282976,0.34717622642123747
1.032,0.0741,2.637,0.03168930730699885,1.8159890128658316,0.2904909138746367,0.34416341557675156
1.033,0.0372,-0.363,0.0311061866439367,1.8219038918971895,0.28453831733808943,0.3460759088073796
1.034,0.0134,-0.363,0.03051752858091222,1.816824561637924,0.27852919406543897,0.3444335785609841
1.035,-0.0083,-1.363,0.02976123485201762,1.8121497953238441,0.27080881693527614,0.34292205839581297
1.036,-0.0122,-1.363,0.02968670176635624,1.816824561637924,0.27004797031180666,0.3444335785609841
1.037,-0.0159,-0.363,0.02970989321633366,1.8320203051245667,0.2702847126424388,0.34934690923072265
1.038,-0.0126,0.637,0.030043396799274986,1.8366444962123984,0.2736891748721215,0.35084207660535927
1.039,-0.0332,0.637,0.03107748231494195,1.7844205857092794,0.2842452985853997,0.3339562071252511
1.04,-0.041,0.637,0.03268546410018141,1.7727490319394734,0.30065985463179956,0.3301823738046835
1.041,-0.0385,-1.363,0.03340044813576277,1.7727490319394734,0.30795853527113504,0.3301823738046835
1.042,-0.0227,0.637,0.03320583515226324,1.7900158733103593,0.3059718922915105,0.33576536494635795
1.043,-0.0088,0.637,0.03324510281507167,1.8244752440318754,0.3063727433819251,0.3469073194795297
1.044,0.008,0.637,0.035079151540229225,1.7705311920234568,0.3250950298327282,0.3294652663535401
1.045,-0.0077,0.637,0.03795035054325101,1.74822721589292,0.3544047256191452,0.32225358828884987
1.046,-0.0136,-0.363,0.03952578278308957,1.6795390700340478,0.37048701027903286,0.3000442390725694
1.047,-0.0119,0.637,0.039901231025739184,1.6207782925538166,0.37431965084627455,0.28104476527748457
1.048,-0.0367,-3.363,0.039765196759505926,1.6088629432224404,0.37293098953940274,0.27719210407917205
1.049,-0.0549,-1.363,0.0397370770125205,1.6055578765181335,0.37264393830092485,0.2761234570848294
1.05,-0.0386,-2.363,0.03978819383012041,1.5853274127029073,0.37316574761189436,0.26958222016451955
1.051,-0.0238,-0.363,0.03987580302393326,1.5853274127029073,0.3740600774079292,0.26958222016451955
1.052,-0.0159,1.637,0.03994868275483081,1.5848486706959077,0.37480404630014286,0.2694274256467027
1.053,-0.0039,0.637,0.040506244680607616,1.6022459922322985,0.3804957348279697,0.2750526057210563
1.054,0.0117,-0.363,0.04070097864651809,1.6008245157550363,0.38248361281696025,0.2745929912258403
1.055,0.0216,-2.363,0.04082493104437435,1.6180500736566292,0.38374894032276546,0.2801626339363565
1.056,0.0198,-0.363,0.04087356200116089,1.6175810163325717,0.38424537353680455,0.2800109708250264
1.057,0.0017,-1.363,0.04087442644061818,1.6175810163325715,0.38425419788422605,0.28001097082502635
1.058,0.0086,-2.363,0.040833327261855866,1.6560915223025394,0.3838346503623276,0.2924628031592398
1.059,0.0065,-0.363,0.040776910550335596,1.6768259626468662,0.3832587388179906,0.2991669938263956
1.06,-0.0073,-1.363,0.04073329642527526,1.6836807007054533,0.3828135182895062,0.30138337730022063
1.061,0.0129,1.637,0.04059116457615557,1.6836807007054533,0.38136261180239933,0.30138337730022063
1.062,0.0104,2.637,0.040557343917073205,1.683680700705453,0.3810173646676807,0.3013833773002206
1.063,-0.0116,0.637,0.040380279639449304,1.683680700705453,0.37920986191139794,0.3013833773002206
1.064,-0.0264,-0.363,0.04066190390883066,1.6841313483183884,0.38208473113953306,0.30152908788949356
1.065,-0.013,-0.363,0.041623752458940115,1.690956472328643,0.3919034474203079,0.3037358960758669
1.066,0.0035000000000024647,-0.363,0.04242348166001518,1.7077173063445583,0.4000672213594725,0.30915527683161476
1.067,0.0146,1.637,0.04265942134243058,1.7411907732946985,0.4024757344260559,0.31997845319894225
1.068,0.00469999999999718,-0.363,0.04265606114359856,1.7411907732946992,0.40244143293547835,0.31997845319894247
1.069,-0.008,-0.363,0.042710289964165676,1.741190773294699,0.4029950101107301,0.31997845319894236
1.07,-0.0066000000000037305,2.637,0.04269524998571396,1.735875285113334,0.40284147941063225,0.31825976459847416
1.071,-0.0234,0.637,0.042358446688891896,1.7358752851133343,0.3994033331312111,0.3182597645984742
1.072,-0.012099999999995092,1.637,0.042338926237705694,1.685932734195391,0.3992040649908701,0.3021115407642272
1.073,0.01,-1.363,0.042419829973043124,1.627402829687345,0.40002994430756994,0.28318671650873545
1.074,0.007200000000000555,-0.363,0.042433680715736395,1.627402829687343,0.4001713350834543,0.2831867165087348
1.075,0.0097,-2.363,0.042467209725816656,1.6079193316684004,0.4005136050147401,0.2768870005090269
1.076,0.021600000000006905,-1.363,0.042456071399237405,1.6079193316684004,0.40039990305146134,0.2768870005090269
1.077,0.0527,-1.363,0.0424667019167081,1.6079193316684004,0.4005084212115716,0.2768870005090269
1.078,0.018999999999998955,-0.363,0.041956880915597655,1.6083912066452188,0.39530408029603514,0.2770395746688844
1.079,0.0143,0.637,0.04098464949926937,1.6026353203627988,0.3853793739219422,0.27517848951515034
1.08,0.044699999999995556,-0.363,0.040665654439670275,1.6021617501406227,0.3821230172067235,0.27502536722146737
1.081,0.0247,1.637,0.040001750427817756,1.600740198855371,0.3753457702801608,0.2745657285381366
1.082,-0.02980000000000171,1.637,0.03919973782447753,1.5804480677483235,0.3671586869759263,0.2680045523633577
1.083,-0.0375,-0.363,0.03853264939221075,1.560378384215825,0.3603489329352626,0.2615153014939383
1.084,-0.0025000000000014212,0.637,0.03835326487212798,1.566289566289478,0.35851774474284365,0.26342659936510976
1.085,-0.0089,-1.363,0.038372992222531384,1.5662895662894774,0.358719124946162,0.26342659936510954
1.086,-0.014900000000008238,-2.363,0.038369336295058995,1.5608646316669152,0.35868180460649896,0.261672522791904
1.087,-0.052,-1.363,0.03836167711352938,1.5549328264749578,0.35860361835735016,0.2597545567244867
1.088,-0.09570000000000133,-1.363,0.03834512968113191,1.5554207762885608,0.3584346993067704,0.2599123284575102
1.089,-0.1017,1.637,0.03834646836997621,1.5731435732087369,0.3584483648739212,0.26564274643528085
1.09,-0.07539999999998401,2.637,0.0382035557565312,1.5731435732087369,0.3569894882096054,0.26564274643528085
1.091,-0.0034,3.637,0.03798634484624601,1.5731435732087362,0.35477216168669656,0.26564274643528063
1.092,0.027300000000018875,3.637,0.03779858617876406,1.5672582424057173,0.3528554887499314,0.263739807210132
1.093,0.1123,-0.363,0.03774026762725406,1.5667739792094935,0.3522601628941953,0.2635832274931656
1.094,0.14629999999999319,-3.363,0.037760668155700894,1.5662895662894656,0.35246841501535775,0.26342659936510576
1.095,0.1155,-2.363,0.037756030118046326,1.5658050035066724,0.352421069125171,0.26326992278102124
1.096,0.0682999999999867,-0.363,0.03775019369899993,1.5726611222597315,0.3523614899505642,0.2654867526830517
