time_sec,bts_raw,diy_raw,bts_rms,diy_rms,bts_norm_rms,diy_norm_rms
0.0,-0.0197,0.623,0.05301690799908494,2.341727301192686,0.2591005914423767,0.1365434980230526
0.001,-0.0033,-0.377,0.05308186945462488,2.3660160363203344,0.25944817889577343,0.1386182275631428
0.002,0.0115,0.623,0.05309046534481776,2.366016036320334,0.25949417268635255,0.13861822756314274
0.003,0.0037,0.623,0.053211346589339716,2.3855739975616435,0.2601409685993687,0.140288857166456
0.004,0.0155,-0.377,0.053760530593574586,2.3891705387705464,0.26307947217647604,0.14059607161171414
0.005,-0.0001,0.623,0.053901420608036855,2.4011056679821583,0.2638333284583116,0.14161556336416598
0.006,0.0056,-0.377,0.05427362427639597,2.4011056679821583,0.2658248682745695,0.14161556336416598
0.007,0.0075,-1.377,0.05481365619034576,2.397232184431161,0.26871440201673386,0.14128469266612126
0.008,-0.0167,0.623,0.0551866387133383,2.3975270307817476,0.2707101092288167,0.14130987826883526
0.009000000000000001,-0.07000000000000005,-0.377,0.05526732540519886,2.3927616740528186,0.2711418372668311,0.14090282428588322
0.01,-0.0919,0.623,0.05530931098901718,2.3927616740528186,0.2713664883624306,0.14090282428588322
0.011,-0.07,-0.377,0.05552812176344092,2.3927616740528186,0.27253727308739645,0.14090282428588322
0.012,-0.0118,1.623,0.05601701288350676,2.397232184431161,0.2751531692060952,0.14128469266612126
0.013000000000000001,0.011300000000000036,3.623,0.05624102326948155,2.397527030781748,0.2763517753479715,0.1413098782688353
0.014,0.0319,1.623,0.05625735155584408,2.3984113523536346,0.27643914265567593,0.14138541649997372
0.015,0.0757,2.622999999999778,0.056725831479034795,2.3984113523536346,0.27894582515094785,0.14138541649997372
0.016,0.1388,0.622999999999889,0.057093085251220706,2.4022829345941417,0.28091087969542233,0.14171612478918902
0.017,0.0783,-0.37700000000033307,0.05737943646564191,2.4385901964193564,0.282443051174193,0.1448174698461745
0.018000000000000002,0.05469999999999997,-3.377000000000111,0.05760346041958418,2.4942067430440487,0.2836417299138155,0.14956820271034502
0.019,0.0474,-4.377000000000555,0.05761171678607972,2.494490127120761,0.28368590702439034,0.14959240921233272
0.02,0.0029,-9.376999999999779,0.05767470142744843,2.499061509610367,0.28402291719318185,0.14998289402928147
0.021,-0.0142,-7.376999999999556,0.05771644292042085,2.539874661837123,0.28424626223868105,0.1534691296073812
0.022,-0.0506,-3.3769999999996667,0.05777566709179478,2.5642161472098817,0.28456315136526067,0.15554836504253766
0.023,-0.0546,-0.3769999999995559,0.05786562389569748,2.5841888251683516,0.28504448073395106,0.15725441950512578
0.024,-0.084,3.622999999999889,0.05787178850531341,2.587782480593846,0.28507746553916785,0.15756138744845402
0.025,-0.0634,2.6230000000001112,0.05813966724091146,2.60649011744824,0.2865107968392711,0.1591593828402729
0.026000000000000002,-0.044799999999999895,3.623,0.05846242506975645,2.62860221041254,0.2882377681772687,0.1610481848806077
0.027,-0.0149,3.623,0.05849712865307465,2.6837438391737294,0.2884234556753251,0.1657583505388143
0.028,-0.0266,3.623,0.05851622094944496,2.7155107605685633,0.28852561229450324,0.16847186237338327
0.029,-0.0027,3.623,0.05852501755396377,2.768922191843049,0.28857268004164377,0.17303423557484035
0.03,0.0512,2.623,0.058559706405389815,2.778209459515539,0.2887582887141745,0.17382754854423024
0.031,0.1513,4.623,0.05860867509020953,2.778209459515539,0.28902030409408247,0.17382754854423024
0.032,0.054,3.623,0.058710442565494854,2.7789726433902273,0.2895648284936519,0.1738927392641675
0.033,-0.0333,0.623,0.059055574116786545,2.815982517522794,0.29141151428606893,0.17705410105325667
0.034,-0.044,-2.377,0.05935408766754111,2.8702334125525932,0.2930087624395897,0.1816881807574127
0.035,-0.0334,-4.377,0.05938628645106242,2.892039887615573,0.2931810475750384,0.18355087709547369
0.036000000000000004,-0.005000000000000057,-3.377,0.05939011874791088,2.8991909955737736,0.2932015529391985,0.18416172055221525
0.037,-0.0132,-4.377,0.059425996735561225,2.931516797215281,0.29339352428985144,0.18692297161038118
0.038,-0.0827,-2.377,0.05952004653312428,2.9385718384296626,0.2938967539258826,0.18752560910208693
0.039,-0.0914,-2.377,0.05991689820122312,2.938812373539426,0.2960201771088176,0.18754615547039438
0.04,-0.133,-1.377,0.060161962980079246,2.938812373539426,0.2973314384051022,0.18754615547039438
0.041,-0.1395,0.623,0.06016490196160335,2.9390528889635488,0.2973471639318019,0.18756670015716595
0.042,-0.1035,1.623,0.06017862983018066,2.9392933847068634,0.2974206172563878,0.1875872431628144
0.043000000000000003,-0.05839999999999939,3.623,0.06041644638173849,2.949002910623934,0.2986930956644609,0.18841662518433788
0.044,0.0295,3.623,0.06069567527836942,2.9521525112385176,0.30018715795552287,0.18868566222559263
0.045,0.2166,4.623,0.060745317663452564,2.949002910623934,0.30045277808469284,0.18841662518433788
0.046,0.1882,3.623,0.06088316665484465,2.949002910623934,0.3011903628489662,0.18841662518433788
0.047,0.1132,4.623,0.06151366106743276,2.949242594993668,0.304563931766578,0.1884370988829299
0.048,0.0902,-0.377,0.061578022813666665,2.9523919399138783,0.3049083103720705,0.18870611408292093
0.049,0.029,-2.377,0.061612292468817706,2.9523919399138783,0.3050916760627516,0.18870611408292093
0.05,-0.0264,-3.377,0.06162947796249456,2.935889235203115,0.3051836300057914,0.18729646270441702
0.051000000000000004,-0.009699999999999685,-1.377,0.06187896498745599,2.945370002157944,0.3065185532913165,0.1881063042692626
0.052000000000000005,0.03570000000000029,-3.377,0.062102624189917556,2.964955867773117,0.30771528036533596,0.18977931744786078
0.053,0.0765,-1.377,0.06214717849010952,2.9743439858349596,0.3079536758201926,0.1905812449984884
0.054,0.0388,-2.377,0.06214643350346782,2.9935041802286495,0.3079496896408891,0.19221789759046337
0.055,-0.0636,-0.377,0.06218911001421001,2.996607007899076,0.3081780376599635,0.19248293931420118
0.056,-0.0769,-0.377,0.062314724081655955,3.0070718305858524,0.3088501573569659,0.1933768383437701
0.057,-0.0642,0.623,0.06251192978102177,3.0177346049764875,0.3099053404077172,0.19428764629203518
0.058,-0.03,-0.377,0.06318134756432771,3.0146535229324685,0.31348717552246047,0.19402446206697888
0.059000000000000004,0.02140000000000019,0.623,0.06336319836008204,3.017500361029978,0.3144601995175209,0.19426763731121108
0.06,0.0491,0.623,0.06297762445395996,3.017734604976487,0.3123971199419286,0.19428764629203513
0.061,0.0737,1.623,0.06237242735521484,3.017734604976487,0.309158908657907,0.19428764629203513
0.062,0.05,0.623,0.06214941781298912,3.0497651183404924,0.3079656577028426,0.1970236739983486
0.063,-0.0137,1.623,0.06234460416897833,3.0649630814682998,0.30901003590915244,0.19832187511441127
0.064,-0.0729,0.623,0.06244059402235068,3.0446276519459667,0.309523646147844,0.1965848346255313
0.065,-0.0648,-1.377,0.06237598920862447,3.0411089789314456,0.3091779669678808,0.1962842716358664
0.066,-0.0574,-4.377,0.06191503568465112,3.0305284473120895,0.3067115557675709,0.19538048881699296
0.067,-0.0509,-5.377,0.06041007968389799,3.034059390853181,0.29865902955140156,0.19568209994785643
0.068,-0.0099,0.623,0.05991235983274438,3.034292356461539,0.2959958937868233,0.19570199973378374
0.069,0.0268,1.623,0.05968962582203236,3.0182374888325163,0.294804117110566,0.1943306023367141
0.07,0.0218,4.623,0.059500737130867246,2.985868786135814,0.2937934356442746,0.19156568669552043
0.07100000000000001,-0.026300000000000084,3.623,0.05950018495852234,2.833645987166655,0.29379048115106626,0.1785629042930305
0.07200000000000001,-0.032399999999999436,3.623,0.059501371004961674,2.739027753764954,0.29379682729676193,0.1704806701693525
0.073,0.0083,-1.377,0.059287584818894894,2.729607176762621,0.2926529274969697,0.16967596999502413
0.074,0.0556,-3.377,0.05908159329746511,2.729866124316458,0.29155073439245904,0.1696980891435288
0.075,0.0612,-3.377,0.058541512709515145,2.710966916466792,0.28866094021167576,0.16808372986940706
0.076,0.02,-5.377,0.05824442889960223,2.6993544020125193,0.2870713421327113,0.16709179568072308
0.077,0.0148,-4.377,0.058109015868067805,2.675978198460924,0.2863467913910975,0.16509501405381782
0.078,0.01,-5.377,0.05810586063963129,2.663151707112999,0.2863299087980579,0.16399938266933464
0.079,-0.0203,-3.377,0.05804965182156622,2.639454895631423,0.2860291538385626,0.16197521490068006
0.08,-0.0241,-0.377,0.05808404084944596,2.6155433999546807,0.28621315825358307,0.15993270893371417
0.081,-0.0347,1.623,0.05785867656341314,2.603505299117594,0.2850073078363221,0.15890442140527644
0.082,-0.0639,4.623,0.05584600282288902,2.5637053211137975,0.27423815043101885,0.15550473057636124
0.083,-0.0596,5.623,0.055590577881602786,2.5393589391296283,0.2728714553017648,0.15342507687552376
0.084,-0.0197,3.623,0.05553905385798087,2.5516996798703895,0.27259576714159905,0.1544792157274192
0.085,0.0066,2.623,0.055420040223088274,2.5407503631841313,0.27195896419548327,0.15354393150395534
0.08600000000000001,0.020500000000000178,4.623,0.05532842377011124,2.5150165861910607,0.27146875458865033,0.15134576733340366
0.08700000000000001,0.033300000000000496,2.623,0.05533792934412679,2.4918967836942567,0.27151961579915856,0.14937088733454493
0.088,0.0687,0.623,0.05532512199440367,2.457240705369556,0.2714510878692035,0.14641058540585009
0.089,0.0541,-0.377,0.05476539436027555,2.450242182550792,0.26845616878487444,0.1458127756824217
0.09,0.0058,0.623,0.05402798370655441,2.4388374084634905,0.2645105261094736,0.14483858655430837
0.091,-0.013,0.623,0.05237973726055993,2.4586786025033422,0.25569129969326176,0.14653340973751655
0.092,-0.0537,-2.377,0.05053885270773155,2.4586786025033422,0.24584132991662144,0.14653340973751655
0.093,-0.0583,-1.377,0.04947715870231169,2.458678602503342,0.2401605533305186,0.14653340973751652
0.094,-0.0247,-0.377,0.049136884795750964,2.4332815946039084,0.23833985920265885,0.1443640121858557
0.095,0.0408,-1.377,0.049049669550199744,2.407616698494279,0.2378731990139893,0.14217173178005635
0.096,0.0877,0.623,0.04403915259661683,2.3642228280316027,0.21106356530702614,0.13846505276055987
0.097,0.028,-1.377,0.03981218861615003,2.3377999120575104,0.18844646670050275,0.1362080227415546
0.098,0.0204,-0.377,0.038212582799171675,2.2933934594373264,0.17988750034513473,0.13241484954675797
0.099,-0.0147,-1.377,0.037161299112249094,2.2983648523032643,0.17426242596067504,0.13283950301595465
0.1,-0.059,-2.377,0.03705112250532508,2.2908810233901713,0.1736729070543281,0.1322002387299647
0.101,-0.0529,-3.377,0.0370139602111188,2.2705075312828047,0.17347406380030655,0.13045994695734656
0.10200000000000001,-0.026399999999999667,-2.377,0.037108530023436496,2.26641085570743,0.17398007586482234,0.13011001132719838
0.10300000000000001,-0.002499999999999581,-3.377,0.03699547209874778,2.2410428456177893,0.17337513997164938,0.12794309075147967
0.10400000000000001,0.027700000000000162,-1.377,0.036267365855754734,2.236892208657187,0.16947928214794955,0.1275885457713852
0.105,0.0394,2.623,0.03608270338103467,2.2282505403135837,0.1684912137804478,0.12685037951884426
0.106,0.0498,2.623,0.03553577125900876,2.2324172444127073,0.16556475928684483,0.12720629694450822
0.107,0.0919,-0.377,0.03479843641063579,2.232417244412707,0.1616195222210121,0.12720629694450816
0.108,0.0506,-1.377,0.034328712691817795,2.2321005882116234,0.1591061845830708,0.12717924835712854
0.109,0.0027,0.623,0.0342627893886801,2.2321005882116234,0.15875345059848445,0.12717924835712854
0.11,-0.029,0.623,0.03427192186928923,2.2321005882116234,0.15880231550847973,0.12717924835712854
0.111,-0.046,-4.377,0.03393359285598218,2.2321005882116234,0.15699202786685942,0.12717924835712854
0.112,-0.0508,-3.377,0.03355839404468301,2.2269812754896656,0.1549844620225755,0.12674195966039792
0.113,-0.0366,0.623,0.03420506501654149,2.2410428456177884,0.1584445864059596,0.12794309075147958
0.114,-0.015,0.623,0.0343574200780196,2.2362601187335356,0.1592597883959876,0.1275345530200253
0.115,0.0047,-0.377,0.033579770426612615,2.2362601187335356,0.15509884003482888,0.1275345530200253
0.116,0.0298,1.623,0.03298144165377971,2.2448709542825793,0.15189737891123836,0.1282700855532993
0.117,-0.013,0.623,0.03253653962944087,2.2448709542825793,0.1495168540235855,0.1282700855532993
0.11800000000000001,-0.018699999999999786,-1.377,0.03214177066771613,2.2711300896525124,0.1474045747197204,0.13051312552894673
0.11900000000000001,-0.003199999999999935,-0.377,0.03212698882214504,2.3132149268587834,0.1473254819097479,0.13410798769376753
0.12,0.0015,0.623,0.03221052393069709,2.333215530455672,0.14777245089173094,0.13581642754804643
0.121,0.0144,1.623,0.032679070081263216,2.292468627488771,0.15027948774797847,0.13233585094295244
0.122,0.0023,2.623,0.032575324246282455,2.269930609844088,0.14972437779421047,0.13041066666568354
0.123,-0.0231,0.623,0.032418892163468,2.242396892108421,0.1488873609995115,0.12805875261027985
0.124,-0.0262,1.623,0.03251005062533825,2.2525538152869293,0.14937512004606734,0.12892635104404473
0.125,-0.0232,0.623,0.03218554144371015,2.2270279656506102,0.14763877779344317,0.12674594790662128
0.126,-0.0206,-0.377,0.03181669842615101,2.247434826161214,0.1456652197179515,0.12848908998871572
0.127,-0.0136,-2.377,0.03203406562439901,2.181615365132355,0.14682828034002376,0.12286683014720004
0.128,0.0067,-0.377,0.03267380639557493,2.1515904866348103,0.15025132349136405,0.12030212259742054
0.129,0.02,-0.377,0.032956510125746845,2.0824049098242545,0.15176397847760884,0.11439233111578663
0.13,-0.005,0.623,0.03324541140224509,2.084779659641758,0.1533097945026107,0.11459518085542125
0.131,0.007,0.623,0.033194532989881106,2.114701184158698,0.15303756079664654,0.11715105996866344
0.132,0.0091,0.623,0.03304939309675105,2.15782349835473,0.15226096480722429,0.12083454281078625
0.133,0.0228,2.623,0.0328295220351588,2.1244704788579076,0.15108450683319546,0.11798554740457873
0.134,0.0244,0.623,0.032499683680191814,2.080996727778698,0.14931964992100621,0.11427204502956656
0.135,0.0094,2.623,0.032478041170439065,2.0509281384914497,0.14920384794601127,0.11170360372971147
0.136,0.0112,-0.377,0.032588516382928215,2.039767477000702,0.1497949645928505,0.11075026655673356
0.137,-0.0055,1.623,0.03275067994367497,2.0026870298261703,0.1506626486471133,0.10758287645970124
0.138,-0.0257,1.623,0.032655994214366865,2.034910150015997,0.15015601634878095,0.11033535652835695
0.139,-0.0176,0.623,0.031930702283706855,2.0391252742597814,0.14627521698780754,0.1106954099744409
0.14,-0.0107,-3.3769999999995557,0.03146658083774696,2.053096307924188,0.14379185527543312,0.11188880749377664
0.14100000000000001,-0.021899999999999618,0.623000000000111,0.03146978837622361,2.0666309050825418,0.14380901776234944,0.11304492486218141
0.14200000000000002,-0.00809999999999995,1.622999999999889,0.031498808824603416,2.0800774375182858,0.14396429666835495,0.11419351979351904
0.14300000000000002,-0.006299999999999961,0.623,0.031209415024046176,2.0666309050825418,0.1424158453085691,0.11304492486218141
0.14400000000000002,-0.004900000000000377,0.622999999999889,0.030895602711502598,2.077647267191541,0.14073673849584545,0.1139859360664188
0.145,-0.0185,-0.376999999999889,0.030861165807036423,2.077987460049995,0.1405524779089055,0.11401499514129661
0.146,-0.0057,0.623,0.030589841686375373,2.0790077046260977,0.13910071148277153,0.11410214383590886
0.147,0.019,0.623000000000111,0.029303356451105184,2.084151326835751,0.13221715071518508,0.11454150903485183
0.148,0.0153,1.623,0.029247340532341484,2.085168555517963,0.13191742789661645,0.1146284001135729
0.149,0.0055,1.623,0.029175131523962314,2.085168555517963,0.13153106116381771,0.1146284001135729
0.15,0.0202,1.622999999999778,0.02917410874930243,2.0810466932373157,0.13152558863189132,0.11427631304980036
0.151,0.028,-0.376999999999889,0.028581588088572946,2.071755066770808,0.12835520481219262,0.11348262775477637
0.152,0.021,0.622999999999889,0.028095827159555775,2.071755066770808,0.1257560573196785,0.11348262775477637
0.153,0.0231,-0.377000000000111,0.027978803122999187,2.0858464323707935,0.12512990006204286,0.11468630395762733
0.154,0.0133,-1.377,0.02797781397331541,2.1278928321043025,0.1251246074463409,0.11827788281601959
0.155,-0.0106,-1.376999999999889,0.027844626982418533,2.136940379997608,0.12441196751845392,0.11905071906216294
0.156,-0.0267,-0.377,0.02761445135351556,2.1218560356194467,0.12318037318271458,0.11776222319320186
0.157,-0.0294,-0.377,0.027449844432865377,2.1120746479795938,0.12229961551057321,0.11692670278537398
0.158,-0.0211,-0.377,0.02603574659579072,2.117471783318782,0.11473324154377709,0.11738772292747814
0.159,-0.0231,0.623,0.025831789139243923,2.1282249933165946,0.11364193205366281,0.11830625583238265
0.16,0.0107,0.623,0.02583309438583148,2.1572164411451773,0.11364891600027627,0.12078268833921478
0.161,0.0539,-0.377,0.02574883287027882,2.171729773351225,0.11319806025255846,0.12202240868260775
0.162,0.0829,2.623,0.02538492079915932,2.1318753509526425,0.11125088605503788,0.11861806724535248
0.163,0.0349,0.623,0.025025385681237536,2.1341950550020714,0.10932713149925692,0.11881621500769267
0.164,0.003,0.623,0.024775725187946965,2.1631064894186185,0.10799128004156777,0.12128581281569503
0.165,-0.0142,-2.377,0.024762463214379516,2.163106489418619,0.10792031956845322,0.12128581281569506
0.166,-0.0192,-4.377,0.0248040100604191,2.1683766091428947,0.10814262312202255,0.12173598335830682
0.167,-0.0049,-6.377,0.024640326074680384,2.1683766091428947,0.10726680377204255,0.12173598335830682
0.168,-0.0005,-4.377,0.02515546917778471,2.1683766091428947,0.11002316564624388,0.12173598335830682
0.169,0.0354,-3.377,0.025329285330252,2.1772559339272655,0.11095319889893439,0.12249445008493429
0.17,0.0592,-1.377,0.02534188337061461,2.2036792529884752,0.11102060688311567,0.12475151453540524
0.171,0.0025,1.623,0.025344277661798684,2.216294452071339,0.11103341795036231,0.12582909745826162
0.17200000000000001,-0.00500000000000058,0.623,0.025852580300595677,2.2240292779673565,0.11375317874244696,0.12648980175964183
0.17300000000000001,-0.025900000000000166,2.623,0.026949569915986717,2.2137414845075765,0.11962281056715235,0.12561102446304004
0.17400000000000002,-0.03190000000000016,0.623,0.027408069179881204,2.218572756861121,0.12207608982631811,0.1260237089200709
0.17500000000000002,-0.03760000000000014,4.623,0.027716006118150564,2.2185727568611213,0.12372375943732339,0.12602370892007092
0.176,-0.0425,0.623,0.02768694360508486,2.23268728486536,0.12356825545697298,0.12722936364193785
0.177,-0.0662,2.623,0.027621082434644294,2.233003857868589,0.12321585392408109,0.12725640512260544
0.178,-0.0444,-0.377,0.02761505586411717,2.2204835917037644,0.12318360772077748,0.1261869313140503
0.179,-0.0483,3.623,0.02793412836003552,2.224664843019977,0.12489086005038402,0.12654409135448452
0.18,-0.0155,3.623,0.028031693519515965,2.2288382504148996,0.12541289923565446,0.12690058137175264
0.181,0.0151,4.623,0.02809913929953216,2.2285210856655593,0.12577377949493024,0.12687348934447856
0.182,0.051,2.623,0.02818124493323867,2.2285210856655593,0.126213099825615,0.12687348934447856
0.183,0.037,3.623,0.028232481729657855,2.2282038757706744,0.12648725112717565,0.12684639346089846
0.184,0.0154,0.623,0.028187135099249923,2.2188913436089894,0.12624461617306929,0.12605092241362706
0.185,0.0275,-1.377,0.028092470933966496,2.2185727568611213,0.12573809925676402,0.12602370892007092
0.186,0.0384,-2.377,0.02807848487895613,2.2043678556387225,0.1256632644612116,0.12481033457079795
0.187,0.0222,-4.377,0.02812148999787258,2.204688495055437,0.1258933707549045,0.12483772340212568
0.188,0.0073,-1.377,0.02826500965232912,2.1998267302161003,0.12666129737831974,0.12442243429480358
0.189,-0.0007,-2.377,0.028247576529402137,2.194632135110612,0.12656801845233853,0.12397871502092932
0.19,-0.0076,-2.377,0.028193884567313324,2.207299041065917,0.12628073036411444,0.12506071471456917
0.191,-0.0188,-2.377,0.028190296570916668,2.185176535478002,0.12626153217158714,0.123171023234019
0.192,-0.0326,0.623,0.028106263181618088,2.1891023403876173,0.12581189705267218,0.12350636319189677
0.193,-0.038,2.623,0.02809616250790939,2.184205883023393,0.1257578516587872,0.12308811066940191
0.194,-0.0199,0.623,0.02809377913907498,2.1891023403876186,0.12574509903345313,0.12350636319189688
0.195,-0.0032,1.623,0.028114728302633146,2.189102340387619,0.12585719114024863,0.12350636319189692
0.196,0.0033,1.623,0.028059854014925306,2.189425215426894,0.12556357681521862,0.1235339429887954
0.197,0.0214,1.623,0.028104336590521913,2.1894252154268936,0.1258015884952778,0.12353394298879536
0.198,-0.0007,-0.377,0.028286753206386125,2.189102340387619,0.12677764000826314,0.12350636319189692
0.199,0.0142,0.623,0.028345933878545934,2.1842058830233935,0.12709429638480765,0.12308811066940195
0.2,0.0063,-1.377,0.02834085122840733,2.192053938754201,0.12706710079007383,0.12375848699700437
0.201,-0.0056,-3.377,0.028271548826086314,2.1868408803327952,0.12669628635346955,0.12331319059748971
0.202,0.0056,-3.377,0.028200308844347863,2.191086332995158,0.12631510456456593,0.1236758346793395
0.203,-0.0002,-5.377,0.028351000874929717,2.2170260371975727,0.12712140822143092,0.12589158903159844
0.20400000000000001,-0.005800000000000314,-2.377,0.02827065900237032,2.242980895558927,0.12669152519846089,0.12810863784324533
0.20500000000000002,-0.017100000000000636,-0.377,0.028244306812646724,2.242980895558927,0.12655052326983537,0.12810863784324533
0.20600000000000002,-0.03999999999999973,1.623,0.028225931968551346,2.2391495556026237,0.12645220550259034,0.12778136702639567
0.20700000000000002,-0.030300000000000243,1.623,0.0281283365874442,2.2391495556026237,0.12593000461130247,0.12778136702639567
0.20800000000000002,-0.03909999999999903,2.623,0.027975967482270808,2.239465215093098,0.12511472747806468,0.12780833047533835
0.209,-0.004,3.623,0.02792741580436123,2.2394652150930985,0.12485494336543265,0.12780833047533838
0.21,0.0198,2.623,0.027873573219154856,2.244241111571688,0.12456684934228268,0.12821628475753827
0.211,0.0154,1.623,0.02786113854048741,2.249006866180064,0.12450031545298017,0.12862337272711982
0.212,0.0273,3.623,0.027405314271694122,2.249006866180064,0.12206134921570325,0.12862337272711982
0.213,0.0091,3.623,0.026133094848699287,2.2474348261612236,0.11525412013308617,0.12848908998871655
0.214,0.0123,0.623,0.025966972988069957,2.3368926541556183,0.11436525651373312,0.13613052530253017
0.215,0.015,1.623,0.026015845841206486,2.3405640009479325,0.1146267591297192,0.13644412959694477
0.216,-0.0095,1.623,0.026046184879383646,2.3530461375155456,0.11478909337747972,0.13751034639762072
0.217,-0.0524,0.623,0.026082964540338295,2.3153978658205734,0.11498588928640392,0.1342944530623607
0.218,-0.0351,-2.377,0.026468352256726335,2.229882735728238,0.11704797262176476,0.12698980069595311
0.219,-0.0087,-3.377,0.02667639798133428,2.1861943192181243,0.11816115709408759,0.12325796172546195
0.22,-0.004,-2.377,0.026532831963550104,2.1743798897434874,0.11739298239570466,0.12224878007390533
0.221,0.0529,-2.377,0.025867454758001528,2.217297952116538,0.11383276708798794,0.1259148158448435
0.222,0.076,-1.377,0.025867786522709484,2.2584621671017295,0.11383454225218348,0.12943103899831607
0.223,0.0548,1.623,0.02600538076619199,2.3035421049453415,0.11457076394390231,0.13328174090675368
0.224,0.0486,1.623,0.025894064073635432,2.3035421049453415,0.11397514481307033,0.13328174090675368
0.225,0.0191,2.623,0.025805374768970005,2.317139111872463,0.11350059741729611,0.13444318928108248
0.226,-0.0075,0.623,0.025532732315137988,2.2770359048551385,0.11204177702253082,0.13101759680729066
0.227,-0.0123,0.623,0.025216505977348366,2.2817331634650015,0.11034975355206401,0.1314188338887652
0.228,-0.0428,-1.377,0.024773414564136162,2.2679238952713794,0.10797891665100826,0.13023925428127373
0.229,-0.031,-1.377,0.02438457193248881,2.2679238952713794,0.10589834719666032,0.13023925428127373
0.23,-0.0202,-0.377,0.023920413621900827,2.2441947795278736,0.10341478823374567,0.12821232710147057
0.231,-0.0228,0.623,0.023877077765335205,2.216022414018858,0.10318291227131209,0.12580586012702372
0.232,-0.0195,-0.377,0.02384063612436179,2.173079160061747,0.1029879249965002,0.12213767250571801
0.233,-0.0166,1.623,0.023555389302394245,2.1585749005724977,0.10146166275971508,0.12089872714848432
0.234,-0.0085,-0.377,0.0233898733405166,2.133630008951604,0.10057604110596091,0.11876794910474404
0.23500000000000001,0.0034000000000004357,0.623,0.023352385639959155,2.133298689317151,0.10037545670922662,0.11873964797546747
0.23600000000000002,0.01910000000000027,0.623,0.02322316264817756,2.1289380017038595,0.09968402684115578,0.1183671605915484
0.23700000000000002,0.02879999999999985,0.623,0.02295305610552698,2.1208564034665374,0.09823877527581819,0.11767683519971577
0.23800000000000002,0.023399999999999314,-0.377,0.022954031848125712,2.080027448776652,0.09824399615460308,0.11418924978446364
0.23900000000000002,-0.0013999999999997003,-2.377,0.023258572107614187,2.075554842667583,0.09987349125092666,0.11380720238813338
0.24,0.0094,-1.377,0.023344738973756704,2.0617360013915347,0.10033454190505246,0.11262680505354351
0.241,-0.0005,-1.377,0.023335383635040306,2.0478239118505894,0.10028448455438092,0.11143844250673791
0.242,0.0024,0.623,0.023267323797743565,2.0338166604834735,0.09992031867589281,0.11024195129243244
0.243,0.0048,1.623,0.023039897224761234,2.0334690780052695,0.09870343363720907,0.1102122610005602
0.244,0.0117,0.623,0.022789218929145108,2.017611295426836,0.09736213625292453,0.10885769849317165
0.245,0.0052,0.623,0.02278159434526485,2.0172609206985115,0.09732133960401755,0.10882776968892822
0.246,-0.0169,0.623,0.02291149139913767,2.011594936279247,0.09801637615737234,0.1083437846157427
0.247,-0.0375,-0.377,0.022960959613812056,2.006265304093095,0.09828106435778035,0.10788853055346599
0.248,-0.0241,0.623,0.022902182721865196,2.00056817826703,0.09796656847679101,0.10740188539953646
0.249,-0.0019,-2.377,0.0229038850955442,2.006265304093095,0.09797567732028746,0.10788853055346599
0.25,-0.0048,-0.377,0.02285902964460931,2.011594936279247,0.09773567050652643,0.1083437846157427
0.251,0.0196,-1.377,0.02285530522974823,2.0126488365917075,0.0977157423835157,0.10843380816365825
0.252,0.0359,-3.377,0.022878974176490346,1.9836825580731412,0.09784238715854875,0.10595952560455786
0.253,0.0091,-3.377,0.02294602436226326,1.968860129227099,0.09820115072270957,0.1046934024070694
0.254,0.0055,-1.377,0.023007054184574244,1.9080490979610025,0.0985277012955379,0.09949895970480202
0.255,0.0022,0.623,0.023003667357141343,1.9080490979610023,0.09850957949218987,0.099498959704802
0.256,-0.0126,-0.377,0.022972719195927475,1.9229726793994495,0.09834398602673826,0.1007737232975361
0.257,0.0008,0.623,0.02264942704377538,1.9318822574604548,0.09661415569988234,0.10153477424134855
0.258,0.0128,-0.377,0.02246768283392839,1.9307842719788395,0.09564170201107185,0.10144098496408378
0.259,0.0149,1.623,0.02214719052861388,1.9189249688027572,0.09392685274681817,0.10042797022721117
0.26,-0.0071,1.623,0.022322088331849406,1.89082110460295,0.09486267355819053,0.09802735459450784
0.261,0.0199,-0.377,0.022240757870590985,1.8889509954811363,0.09442750092116405,0.0978676109677678
0.262,0.0091,-2.377,0.02220398491422592,1.88327431514175,0.09423074088630086,0.09738271225534503
0.263,0.0189,-6.377,0.02204283369480719,1.849612737046983,0.09336847353862585,0.09450735995427907
0.264,0.0161,-1.377,0.022144733323695525,1.815716422043042,0.09391370504880331,0.09161195656380669
0.265,-0.019,-3.3769999999997777,0.022141979280793582,1.871491649541344,0.09389896906804557,0.09637624385533604
0.266,-0.0237,-1.376999999999667,0.02209088842147677,1.898764974612729,0.09362559862807963,0.09870591532174654
0.267,-0.0454,1.622999999999889,0.022119007418565373,1.8987649746127293,0.0937760541637332,0.09870591532174657
0.268,-0.0334,0.623000000000222,0.021533149983008718,1.8987649746127293,0.09064132307764372,0.09870591532174657
0.269,-0.0225,2.6230000000002223,0.021298038148021888,1.888576751438137,0.08938331672130129,0.0978356432606339
0.27,-0.0061,4.623,0.021323971344231557,1.8626726981908885,0.08952207675298522,0.09562293419210123
0.271,-0.0031,4.623,0.021343709853498396,1.8476446445015802,0.08962769104553582,0.09433924664083894
0.272,-0.0273,4.622999999999778,0.0206740075486772,1.8383268483546567,0.08604433354943426,0.09354332594702912
0.273,0.0091,2.623,0.019242825565733212,1.833264661372742,0.07838654791849327,0.09311091689758122
0.274,0.0233,2.622999999999889,0.018653715016146398,1.832107575135387,0.07523441048564088,0.09301207926834876
0.275,0.0016,1.623,0.018116769828823796,1.8414568411565537,0.07236139280579011,0.09381068810039929
0.276,0.0136,1.622999999999889,0.018017352256197952,1.839536548035817,0.0718294419650234,0.09364665778584044
0.277,0.0462,0.622999999999889,0.01801946211232241,1.839536548035817,0.0718407311135075,0.09364665778584044
0.278,0.0067,-0.377000000000111,0.01797948549043287,1.8391522488100274,0.07162682931462548,0.0936138311708772
0.279,-0.0089,-1.376999999999889,0.01748208919585574,1.8403049057350869,0.06896542479522194,0.09371229045084556
0.28,0.0052,-0.377000000000111,0.017209870978266185,1.8352481748606035,0.06750887434951999,0.09328034745890136
0.281,-0.0078,-1.376999999999778,0.017211039061813465,1.8356332914244404,0.06751512438166873,0.09331324389040227
0.28200000000000003,-0.03569999999999939,0.622999999999778,0.017777554379960137,1.8352481748606033,0.07054636213809132,0.09328034745890135
0.28300000000000003,-0.02469999999999909,-1.376999999999889,0.0183267601433782,1.8356332914244404,0.07348498214145494,0.09331324389040227
0.28400000000000003,-0.00829999999999884,-0.377,0.018615167030990292,1.8294048611700546,0.07502815285359402,0.09278121502314125
0.28500000000000003,0.01260000000000015,-0.377,0.019027083767016187,1.8294048611700546,0.07723218427648447,0.09278121502314125
0.28600000000000003,0.015300000000000388,1.623,0.019265983656048792,1.8464965693403614,0.0785104592682532,0.09424117873245647
0.28700000000000003,0.022300000000000878,1.623,0.019221733992250866,1.852285965460591,0.07827369382287727,0.09473570556091411
0.28800000000000003,0.03809999999999899,-0.377,0.02032248155932342,1.852285965460591,0.08416343321512573,0.09473570556091411
0.289,0.0199,-0.377,0.020768216402904584,1.852667540358718,0.08654841424553544,0.09476829946540279
0.29,0.0033,-0.377,0.02150043522344204,1.8926893659273996,0.09046627712351982,0.09818694038347844
0.291,0.0054,-0.377,0.021609002718327622,1.8877729612300338,0.09104718619883662,0.09776698397146043
0.292,-0.0004,-0.377,0.02167934292727607,1.8979654991318105,0.09142355359849796,0.09863762459404407
0.293,-0.017,-0.377,0.022120938907577048,1.9024840607431024,0.09378638892826782,0.09902359748247964
0.294,-0.019,-0.377,0.02231732972824363,1.9114891400045595,0.09483721183022725,0.09979280608294444
0.295,-0.0247,-0.377,0.022301513826119498,1.91597580826123,0.0947525861226164,0.1001760546596932
0.296,-0.0156,0.623,0.022297924475457434,1.91597580826123,0.09473338068385884,0.1001760546596932
0.297,-0.0141,-0.377,0.022425205500776032,1.9204519945390917,0.09541441972598766,0.10055840787194652
0.298,0.0027,1.623,0.02217157798908954,1.9204519945390917,0.09405734205330141,0.10055840787194652
0.299,0.0006,1.623,0.022325008629300102,1.924917771962241,0.09487829911253828,0.10093987196592187
0.3,-0.0051,1.623,0.022324325002629285,1.9148687020452937,0.09487464125032433,0.10008148629464048
0.301,0.0116,-0.377,0.022398120526949474,1.919715715624602,0.09526949690984322,0.10049551535796385
0.302,0.0183,-2.377,0.022311314940305742,1.9297395450058874,0.09480502867169618,0.10135174499746051
0.303,0.0166,-2.377,0.02216020056819294,1.8995093743725446,0.09399646520374803,0.09876950151358439
0.304,0.0039,-2.377,0.02233983341453077,1.8687902544423818,0.09495762167855304,0.09614549226692204
0.305,0.0119,-2.377,0.022590730651267384,1.8641900250811128,0.09630009054500162,0.0957525433670779
0.306,0.0105,-2.377,0.022787148082128224,1.8687902544423816,0.09735105582938737,0.09614549226692203
0.307,0.0093,-1.377,0.02278339625761219,1.8840248354482285,0.09733098104629821,0.09744682126069691
0.308,-0.0095,-1.377,0.022854613971459384,1.888576751438137,0.09771204368701542,0.0978356432606339
0.309,-0.0283,-1.377,0.022826209081583743,1.8934910691144224,0.09756005843277772,0.09825542140053262
0.31,-0.0061,-2.377,0.022781301475135327,1.9025387143997579,0.09731977255196106,0.09902826596584616
0.311,0.0087,0.623,0.02284373067723686,1.8965300222450436,0.09765381074731398,0.0985150069984616
0.312,0.0062,-0.377,0.02299584067962445,1.9268069372687915,0.09846770150648215,0.10110124336080988
0.313,0.023,0.623,0.02306199412856022,1.9167677717354519,0.09882166692578925,0.10024370371617991
0.314,0.0118,4.623,0.022984404679449268,1.811371656244635,0.09840651121841214,0.0912408292119971
0.315,-0.002,3.623,0.022991689661303424,1.8219916464654506,0.09844549076820334,0.09214798256151484
0.316,-0.0147,1.623,0.022960388126418943,1.7899426559416771,0.0982780065160807,0.08941037654702737
0.317,-0.0133,0.623,0.022872610036513252,1.784743238904718,0.09780833473177795,0.0889662453865888
0.318,-0.0148,-1.377,0.022443424195128132,1.7943393101055083,0.0955119019871443,0.08978593617264481
0.319,-0.0137,-1.377,0.022252206603854713,1.7943393101055076,0.09448875933981679,0.08978593617264476
0.32,-0.0101,0.623,0.022141884327492745,1.781571971816941,0.0938984610040597,0.08869535760787375
0.321,0.0,1.623,0.02213456891769408,1.7278646900797558,0.09385931864431211,0.08410771303303366
0.322,0.0091,-0.377,0.022134835548325925,1.6724335812477333,0.09386074529741817,0.0793728201565891
0.323,0.0279,-1.377,0.022092429843933004,1.6151011671551252,0.0936338462743449,0.07447551889748752
0.324,0.0199,-2.377,0.022075771373703673,1.5950895361628454,0.09354471226100775,0.07276613708954786
0.325,0.0032,-2.377,0.02199713007994526,1.574823633492513,0.09312392847773024,0.07103503554367653
0.326,-0.008,0.623,0.022126472875720598,1.574823633492513,0.0938159993776983,0.07103503554367653
0.327,0.0018,-0.377,0.02218385591973789,1.56801012731105,0.09412303723533773,0.07045302983312898
0.328,0.0073,1.623,0.021695483904168075,1.5748236334925145,0.09150991867462804,0.07103503554367667
0.329,0.0026,-0.377,0.0217065712026038,1.575272418936837,0.09156924317399912,0.07107337053368767
0.33,-0.0203,0.623,0.021691345129559794,1.6301049175109776,0.09148777344844249,0.07575713047222907
0.331,-0.0501,-0.377,0.02176655751870608,1.688664316277002,0.09189021028717938,0.08075924004406476
0.332,-0.0487,0.623,0.0219269040098344,1.7000510156494517,0.09274817179757265,0.08173188524061333
0.333,-0.0367,-0.377,0.0218472280856263,1.7063373561717754,0.09232185204592398,0.08226886076907072
0.334,-0.0404,-0.377,0.02171156382667136,1.7374279148643923,0.09159595706873849,0.08492459809744454
0.335,-0.0306,2.623,0.021709025542441647,1.773220411673694,0.09158237554190739,0.08798197222802702
0.336,0.014,1.623,0.021802377591598927,1.8306772557332347,0.09208187175495013,0.09288990222208374
0.337,0.0719,0.623,0.022090060082523413,1.8585496090156068,0.09362116645788035,0.09527074232770705
0.338,0.0487,0.623,0.022191156088826738,1.8585496090156068,0.09416209804704319,0.09527074232770705
0.339,0.0555,4.623,0.022108965149739285,1.8738674485296358,0.0937223212752292,0.09657918321452541
0.34,0.0235,-0.377,0.022034474973162306,1.925025803887515,0.09332374875920015,0.10094909998975517
0.341,-0.0176,-2.377,0.02204541710191361,1.9298473070106414,0.09338229650317836,0.10136094996484098
0.342,-0.0442,-1.377,0.02207643391251236,1.9346567941419686,0.09354825728898433,0.1017717735409394
0.343,-0.0301,-2.377,0.022084177553640987,1.9493766892539206,0.09358969097419882,0.10302913836686778
0.34400000000000003,-0.00849999999999934,-1.377,0.022134973879511476,1.9541381116364367,0.09386148546224532,0.10343585628025173
0.34500000000000003,0.0033999999999981844,0.623,0.022083740200521645,1.9599702022895942,0.09358735084102718,0.10393403005072593
0.34600000000000003,-0.029299999999999285,-1.377,0.02194829879731833,1.960330816755085,0.09286264829191368,0.1039648335273255
0.34700000000000003,-0.016399999999997132,-0.377,0.022099046657893345,1.964705951690116,0.09366925067677029,0.10433855499301255
0.34800000000000003,0.03529999999999804,-1.377,0.02220940019921616,1.9792023752242862,0.09425971630108383,0.10557683100754923
0.34900000000000003,-1.049160758270772e-15,-1.377,0.022306205502048183,1.9734271224396303,0.09477768974251932,0.10508351229453916
0.35000000000000003,-0.018899999999999036,-1.377,0.02246953516515811,1.9723522646349747,0.09565161322826417,0.10499169856990528
0.35100000000000003,-0.0014999999999985346,-2.377,0.022484806336217113,1.9712768207537634,0.09573332425851534,0.10489983478295499
0.352,0.0249,-0.377,0.022501862848085665,1.9712768207537632,0.09582458806218082,0.10489983478295498
0.353,0.0296,-0.377,0.02244819986691431,1.9567216814238455,0.09553745504134573,0.10365654329950783
0.354,0.0339,0.623,0.022387857447468414,1.9424213987504901,0.09521458253590902,0.1024350215225143
0.355,0.0298,-1.377,0.022384326503734245,1.9599702022895875,0.09519568961347609,0.10393403005072537
0.356,0.0116,-2.377,0.022356125308573085,1.9511888844725622,0.09504479426288184,0.10318393502189185
0.357,-0.0182,-1.377,0.022331007571548413,1.9423678672989513,0.09491039748597886,0.1024304488972521
0.358,-0.0063,-1.377,0.02241681348352244,1.9434593084716556,0.09536951679267448,0.10252367916347961
0.359,0.0045,-2.377,0.022479892573728167,1.9551698015035204,0.09570703232623129,0.10352398262492143
0.36,-0.0184,-0.377,0.022304481902922394,1.9562541001825302,0.0947684673286151,0.10361660278351757
0.361,-0.0333,-3.377,0.022315315837249557,1.9474560260779077,0.09482643615969726,0.10286507644240381
0.362,-0.0199,-1.377,0.022309894076522258,1.9529461566473607,0.0947974260953681,0.10333404018265352
0.363,0.0022,-1.377,0.022307035777784232,1.9529461566473607,0.09478213227580788,0.10333404018265352
0.364,0.0171,-2.377,0.022386478279944534,1.9671699313974,0.09520720306259753,0.10454902669761218
0.365,0.0144,-0.377,0.022508133651289033,1.9138152869886134,0.0958581410744724,0.09999150419698968
0.366,0.0122,-0.377,0.0226251244900165,1.8856352686637374,0.09648412070140709,0.09758438352349072
0.367,0.01,-2.377,0.02257911511447053,1.894720427240486,0.09623793961532345,0.09836043245220284
0.368,0.0157,0.623,0.02255551184117751,1.8992467093269563,0.09611164623738792,0.09874706481910989
0.369,0.003,-1.377,0.022509094052790456,1.8992467093269565,0.0958632798680746,0.0987470648191099
0.37,0.0016,-1.377,0.02246993226045028,1.8992467093269565,0.09565373795499964,0.0987470648191099
0.371,0.003,-1.377,0.022460559176402505,1.9037622300004209,0.09560358565487705,0.09913277795241589
0.372,0.0233,-1.377,0.022462758591848663,1.8977574117529032,0.09561535400593288,0.09861984989191694
0.373,-0.0036,-0.377,0.022461173162157358,1.9026480170032842,0.09560687089137887,0.09903760253027213
0.374,-0.0144,-0.377,0.022447781050820168,1.897757411752903,0.09553521409371925,0.09861984989191692
0.375,-0.0241,1.623,0.022383933427913,1.8826339602737903,0.09519358639361189,0.09732801351727925
0.376,-0.0212,0.623,0.02243888255618599,1.8673880322228888,0.09548760116597232,0.09602571526555645
0.377,-0.0024,1.623,0.022431041115812574,1.86700946586586,0.0954456441890588,0.0959933783488877
0.378,0.0096,0.623,0.02244572096463951,1.8673880322228886,0.0955241912478892,0.09602571526555644
0.379,0.0031,-4.377,0.022433392443433023,1.8612658671925877,0.09545822537236051,0.09550276351154707
0.38,-0.019,-4.377,0.02243273802979207,1.8612658671925877,0.09545472381949294,0.09550276351154707
0.381,-0.0277,-2.377,0.022598451710602624,1.865873305951687,0.09634140340244231,0.09589632823393471
0.382,-0.0304,1.623,0.022137809707300646,1.865873305951687,0.09387665904712449,0.09589632823393471
0.383,-0.0036,3.623,0.02161064849037963,1.865494432210005,0.09105599218558173,0.09586396506064879
0.384,0.0073,3.623,0.02132297835714276,1.865873305951687,0.08951676360458695,0.09589632823393471
0.385,0.0237,4.623,0.02093975489477782,1.865873305951687,0.0874662604830335,0.09589632823393471
0.386,0.0386,3.623,0.02071846299604772,1.8489607241231438,0.08628220007524864,0.09445166539190271
0.387,0.0307,1.623,0.020679850478599184,1.8427773400052658,0.08607559715205951,0.0939234843392598
0.388,0.033,-2.377,0.019388059416321067,1.8423937167664068,0.07916364664347172,0.09389071546670456
0.389,0.0084,-4.377,0.018772065306545453,1.8423937167664068,0.07586766409282455,0.09389071546670456
0.39,-0.0079,-1.377,0.017932451092919285,1.7853139839528482,0.07137516367200845,0.08901499809458256
0.391,0.0128,-1.377000000000111,0.017803701462427116,1.7853139839528482,0.07068626660502345,0.08901499809458256
0.392,-0.006,-2.3769999999998888,0.017718202885103403,1.76962910607484,0.07022879174529344,0.0876752050055152
0.393,-0.0227,-1.376999999999667,0.017205500483595468,1.7708270171975813,0.06748548926524113,0.0877775298725654
0.394,-0.0115,1.622999999999889,0.017059853370441903,1.755012671352127,0.06670617930774633,0.08642667770548744
0.395,0.0024,0.622999999999778,0.01704075098408406,1.7562205523157322,0.06660396870035254,0.08652985419050956
0.396,0.0299,-1.377000000000111,0.017043395278402106,1.7562205523157322,0.06661811745241483,0.08652985419050956
0.397,0.026,-2.3769999999997777,0.01679398907426635,1.7513246594761558,0.06528362661263384,0.08611164988937976
0.398,-0.0211,-0.377000000000111,0.016759958737926666,1.751728226679533,0.0651015414384605,0.08614612236371233
0.399,-0.0272,-1.377,0.016380889778348402,1.7464150415643958,0.06307326769941932,0.08569227320061636
0.4,-0.0098,-1.376999999999889,0.016422993736701298,1.7464150415643958,0.06329855217834862,0.08569227320061636
0.401,-0.0148,-0.377,0.016395339408183156,1.757427603102279,0.06315058293189127,0.08663295976229322
0.402,-0.0101,-0.376999999999889,0.01640002429513473,1.7464150415643958,0.06317565022620317,0.08569227320061636
0.403,0.003,0.6230000000003331,0.0162229456834157,1.7464150415643958,0.06222816062353255,0.08569227320061636
0.404,-0.0009,3.622999999999778,0.015954090723642695,1.7468197430355876,0.060789605867887946,0.08572684256344185
0.405,-0.0045,1.623,0.015588337656921736,1.746415041564395,0.0588325811064059,0.0856922732006163
0.406,-0.0012,1.623,0.015401729034395316,1.741085642539997,0.05783409953996457,0.08523703905488016
0.40700000000000003,-0.02189999999999986,1.623000000000111,0.015440478548439633,1.7249986569352918,0.058041435487028496,0.08386289815912412
0.40800000000000003,-0.019399999999999078,2.622999999999889,0.0153503014019191,1.7200138955664444,0.05755892713722123,0.08343710276023258
0.40900000000000003,-0.002800000000000361,1.623,0.015347631715692468,1.7146024373592277,0.05754464252137987,0.08297485916712363
0.41000000000000003,-0.009299999999999899,1.623,0.015341024305275005,1.6982646054039523,0.057509288434229824,0.08157929112290489
0.41100000000000003,-0.007499999999999301,1.622999999999778,0.01525279506742655,1.7150146458426367,0.057037202705177426,0.08301006977453937
0.41200000000000003,0.005100000000001366,-0.377,0.014911507650412275,1.6864467587112997,0.055211085615122384,0.08056981757458523
0.41300000000000003,0.0296999999999998,-2.377,0.014817674962764068,1.6978483303025922,0.05470901766307415,0.08154373314736368
0.41400000000000003,0.026099999999997264,-0.377,0.014835570133033348,1.6923659976399457,0.054804768852918954,0.08107543549974981
0.41500000000000004,-0.023199999999998826,-1.377,0.014933246068178176,1.6753895381316388,0.05532740076245583,0.07962531626369558
0.41600000000000004,-0.002100000000000344,-2.377,0.01496788352483219,1.6753895381316388,0.055512734438409345,0.07962531626369558
0.417,-0.0083,-1.377,0.014938060665598316,1.6753895381316388,0.05535316209496428,0.07962531626369558
0.418,-0.0025,-1.377,0.01504461536730253,1.675389538131626,0.055923301373786975,0.07962531626369447
0.419,0.0026,-1.377,0.01508176115698913,1.6817680641923995,0.05612205631753416,0.08017016622689646
0.42,0.0074,-1.377,0.01508338404024655,1.6766547814772579,0.05613073983384268,0.0797333926098191
0.421,0.003,-0.377,0.015099295452959065,1.6779190707600284,0.056215876587302385,0.07984138746045245
0.422,-0.009,-1.377,0.015129410919313165,1.6727940227455667,0.05637701457552742,0.0794036088583926
0.423,-0.0271,-0.377,0.01499919274907022,1.6676532244583682,0.05568025983374217,0.07896448487725309
0.424,-0.0109,-0.377,0.015030871109257925,1.6676532244583675,0.0558497603545342,0.07896448487725304
0.425,0.0159,-0.377,0.014996206415591016,1.6680770348826637,0.05566428094225332,0.07900068651566954
0.426,0.005,-0.377,0.014873026519737454,1.6612205030608793,0.055005185699489124,0.07841500558010565
0.427,0.0082,0.623,0.014764648040980528,1.660794942951505,0.054425287987514843,0.07837865448461374
0.428,-0.0005,-0.377,0.0147853899478236,1.654335554014585,0.05453627113156929,0.07782689726185477
0.429,0.002,-0.377,0.01484024078278674,1.660794942951505,0.05482975996865052,0.07837865448461374
0.43,0.0338,-1.377,0.014902095528151695,1.6016580249279295,0.055160724434320296,0.07332721355578005
0.431,0.0207,-0.377,0.014783278843129289,1.5402522569692212,0.054524975302397194,0.06808196879328794
0.432,-0.0073,-0.377,0.014657947552610965,1.5220440752055855,0.05385436865203659,0.0665266365630252
0.433,-0.0102,0.623,0.014509386171129783,1.5149932176785073,0.05305946540005521,0.06592435643944049
0.434,0.0007,-0.377,0.014586303863841008,1.4734189145800427,0.05347102675914773,0.062373103799328276
0.435,-0.0025,0.623,0.014568220611661081,1.43810147880083,0.05337426920465471,0.0593563091039157
0.436,0.0062,-0.377,0.014391001270824395,1.387554838129303,0.052426026606608306,0.055038644639199934
0.437,0.0037,-0.377,0.013862296242288392,1.3420384782286945,0.04959709931519501,0.05115066381406126
0.438,0.0058,0.623,0.013536955551646877,1.3420384782286945,0.04785630793041937,0.05115066381406126
0.439,0.0037,-0.377,0.013125463845523806,1.3291810057597817,0.04565455070320868,0.05005238604035439
0.44,-0.0101,-0.377,0.013118760331900854,1.2793037820894713,0.045618682399309926,0.04579190278411915
0.441,-0.0011,0.623,0.013114809459346087,1.2720188222369095,0.04559754257541601,0.045169625776895504
0.442,-0.0124,1.623,0.013051350503698479,1.2652506939883765,0.04525799450640444,0.04459149622282227
0.443,-0.0201,0.623,0.01303833325442995,1.251604645111334,0.045188343472789654,0.04342585871383208
0.444,-0.0023,1.623,0.012852506658815691,1.2697121944324519,0.04419404627599686,0.04497259497974814
0.445,0.0045,0.623,0.01286655955294339,1.2697121944324534,0.04426923870575542,0.04497259497974827
0.446,0.0023,0.623,0.012869494036093094,1.2942165549874474,0.04428494016312831,0.0470657431176517
0.447,0.0121,0.623,0.012553345220503564,1.3117360101139892,0.042593331488541414,0.04856224472163786
0.448,-0.0006,-0.377,0.012286466999350116,1.2969445159629334,0.04116535361324982,0.04729876394769119
0.449,-0.0119,-1.377,0.012170362317392089,1.296944515962933,0.040544115520694854,0.047298763947691155
0.45,-0.0163,-2.377,0.011893169644108671,1.2897592002939444,0.03906094839326536,0.0466849984883135
0.451,0.004,-1.377,0.011911071075161676,1.2830846539710368,0.03915673308251152,0.046114862647560165
0.452,0.0069,-0.377,0.011820680663232394,1.3051738561367516,0.03867308361941317,0.04800170936927621
0.453,0.0043,0.622999999999778,0.011800973416022575,1.3138897325331287,0.03856763659988158,0.04874621443025627
0.454,0.0022,-0.377,0.011847458236560754,1.334940102583755,0.03881636163626157,0.05054432472065791
0.455,0.0177,-0.37699999999977796,0.011970660107099556,1.2875651151365883,0.03947557445836291,0.04649758101821814
0.456,0.0159,0.623,0.012042612699753217,1.2792225015454302,0.03986056919467082,0.04578495984761503
0.457,0.0068,0.622999999999778,0.012046005735908761,1.2775637192291043,0.03987872421885841,0.04564326763292481
0.458,0.0053,-0.377,0.011856304294765665,1.2691553645767526,0.03886369399386482,0.04492503089934824
0.459,0.001,0.6229999999993339,0.011703720896527752,1.251039755726316,0.0380472702486868,0.04337760619315445
0.46,-0.0081,-2.377,0.011825683746877765,1.241882859167749,0.03869985347992462,0.042595429448018675
0.461,0.0082,-1.377000000000222,0.011794694258769644,1.2556345674074398,0.038534038887809346,0.04377009231793118
0.462,0.0104,-2.377,0.011781316832812971,1.246511424879603,0.03846246066680683,0.04299079882234647
0.463,-0.0078,-0.377,0.011790743218951641,1.246511424879603,0.03851289816894469,0.04299079882234647
0.464,-0.0244,-0.377,0.011486959828047063,1.230936411684993,0.036887452828302324,0.04166039031023881
0.465,-0.0179,-0.377,0.011286626734847587,1.230936411684993,0.03581553611834682,0.04166039031023881
0.466,-0.0081,-0.377,0.011391920316201698,1.2326579417590156,0.03637892755558754,0.04180744240166956
0.467,-0.0207,-2.3769999999991116,0.01184082024589378,1.2092448204952833,0.03878084392422099,0.03980750728539897
0.468,-0.0192,1.623,0.011917294911043687,1.2109971873065255,0.03919003478806301,0.03995719343287642
0.46900000000000003,0.003700000000000183,0.623000000000222,0.011923643301712352,1.2127470220264251,0.03922400294544723,0.040106663290593245
0.47000000000000003,0.0070000000000001615,1.623,0.012148881609247661,1.2056462059605462,0.040429179293065394,0.03950011573786144
0.47100000000000003,0.00990000000000014,0.623,0.012180273576874439,1.1979133905268813,0.040597147421147055,0.0388395831689988
0.47200000000000003,0.012399999999999878,0.623,0.012310690053870525,1.1979133905268813,0.04129496323736088,0.0388395831689988
0.47300000000000003,0.010199999999998873,-0.37699999999977796,0.012438176091191671,1.2139121771969583,0.041977099231509774,0.04020619016337561
0.47400000000000003,-0.01009999999999865,0.623,0.012402315596450384,1.237236977880132,0.041785221479678815,0.0421985809873428
0.47500000000000003,0.014199999999999817,-0.377,0.012884787862775759,1.2447255208187118,0.0443667724161949,0.04283824794263103
0.47600000000000003,0.010899999999999839,-0.377,0.012858168910806838,1.252169279658651,0.04422434313024273,0.04347408946642242
0.47700000000000004,0.008000000000000439,0.623,0.012850206287840645,1.2747942855252243,0.04418173774500047,0.04540670422669702
0.47800000000000004,0.015899999999999883,1.623,0.012869765183918835,1.3188804348315932,0.04428639098625812,0.04917251729987889
0.47900000000000004,0.013799999999999134,0.623,0.013005631535994598,1.3620589009334092,0.045013367297484404,0.05286079660493194
0.48,-0.0018,0.623,0.013055969840295015,1.3688647604330304,0.04528271106225478,0.05344214914039164
0.481,-0.0199,0.623,0.012617047315588319,1.3620589009334092,0.04293418051697693,0.05286079660493194
0.482,-0.0221,0.623,0.012448150691940442,1.3854405802421021,0.04203047005031451,0.054858045967803866
0.483,-0.0155,0.623,0.012533413223499055,1.3859506912722839,0.0424866819065343,0.05490161935346935
0.484,-0.0018,1.623,0.012548193396217855,1.4084341493840664,0.0425657657656226,0.056822143187367814
0.485,0.0073,2.623,0.012557680296675039,1.431058316394152,0.04261652706004146,0.05875468629301215
0.486,0.0026,0.623,0.012558264589444175,1.4385206366880572,0.042619653419110455,0.059392113325338586
0.487,-0.0079,1.623,0.012575524940728328,1.446433218883786,0.04271200790066764,0.060068001465811705
0.488,-0.0014,1.623,0.012581435671483444,1.446921827172104,0.042743634283324984,0.060109738099851255
0.489,0.0073,2.623,0.012574547070713142,1.446921827172104,0.0427067756387747,0.060109738099851255
0.49,-0.0072,-0.377,0.012586756753479941,1.446921827172104,0.04277210564876938,0.060109738099851255
0.491,-0.0014,0.623,0.012554191700565046,1.446921827172104,0.0425978607258634,0.060109738099851255
0.492,0.0004,1.623,0.01258027810348225,1.446921827172104,0.04273744051641623,0.060109738099851255
0.493,0.0051,2.623,0.012520748613051096,1.4390119316510068,0.04241891772764886,0.05943407945355285
0.494,0.0127,1.623,0.012419302164257772,1.4385206366880572,0.041876111035601564,0.059392113325338586
0.495,0.0036,2.623,0.012463908902722297,1.4305642899444668,0.04211478707046481,0.0587124868427995
0.496,-0.0101,2.623,0.012478125579460715,1.4365537766304535,0.042190855847283285,0.05922410529028497
0.497,-0.0047,-1.377,0.012582449671365297,1.4365537766304535,0.04274905986429063,0.05922410529028497
0.498,-0.0126,-0.377,0.01259910059858276,1.4360616407016344,0.04283815351744398,0.05918206732725831
0.499,-0.0082,-0.377,0.012618191562530875,1.4558315841406837,0.04294030300726774,0.06087080432584399
0.5,-0.0118,0.623,0.01256345615084863,1.4494341373922865,0.04264743176232534,0.060324338168578163
0.501,-0.0006,-2.377,0.012541583372034475,1.4360616407016342,0.042530397693067955,0.05918206732725829
0.502,0.0071,1.623,0.01254572932736539,1.429575724874768,0.0425525813409464,0.058628044193084455
0.503,0.0108,-2.377,0.012528934663395257,1.4300700928303365,0.04246271859954827,0.05867027281452981
0.504,0.017,0.623,0.012541994332482372,1.429575724874769,0.04253259660770656,0.05862804419308453
0.505,0.0137,0.623,0.012589243422477662,1.4494341373922872,0.04278541099941423,0.060324338168578226
0.506,0.0029,-1.377,0.01258502560372834,1.4494341373922879,0.04276284283394163,0.06032433816857828
0.507,0.0043,0.623,0.012623782613895511,1.4489463762960924,0.04297021889030163,0.06028267390119403
0.508,0.0032,-1.377,0.012910752214949988,1.4489463762960932,0.04450569915323186,0.0602826739011941
0.509,0.017,-0.377,0.012930943074757797,1.4489463762960932,0.04461373382524089,0.0602826739011941
0.51,-0.0034,-2.377,0.013314609527695965,1.448946376296096,0.04666660724413369,0.06028267390119433
0.511,0.0046,-0.377,0.013813904480232564,1.4290811859004668,0.04933817085987394,0.05858580096331904
0.512,-0.0072,-0.377,0.01416772440998891,1.4225634443325286,0.05123134531729354,0.058029059292968234
0.513,-0.0137,-1.377,0.015596230088126897,1.4089359355228952,0.058874810918544636,0.05686500546568592
0.514,-0.0154,-0.377,0.017096586622643378,1.4089359355228952,0.06690272689864568,0.05686500546568592
0.515,-0.0279,1.623,0.016957812265177712,1.4170137278519475,0.06616019080385944,0.05755500575906147
0.516,-0.0325,-0.377,0.018119104224900078,1.417512476903615,0.07237388339394936,0.05759760861117165
0.517,-0.0159,1.623,0.018943547496232595,1.4255416713272604,0.07678520907578142,0.05828345769990835
0.518,0.0044,1.623,0.018851559461263247,1.4058485723790484,0.07629301125551696,0.05660128471275822
0.519,0.0233,0.623,0.01882881669549991,1.3977062545281504,0.07617132217128737,0.05590577268706892
0.52,0.0114,-0.377,0.01895471310494018,1.4053456838812495,0.0768449525877461,0.05655832827158203
0.521,0.018,-0.377,0.020247463143011783,1.3977062545281496,0.08376203426144027,0.055905772687068846
0.522,0.0197,-2.377,0.020901631091469947,1.3972004354030814,0.0872622725090043,0.05586256591342641
0.523,0.0251,-2.377,0.020863944692285193,1.3972004354030814,0.08706062494105123,0.05586256591342641
0.524,0.0364,-1.377,0.021127733563618568,1.4200035945236926,0.08847207271818407,0.05781039842040017
0.525,0.0136,-1.377,0.021773147658723385,1.4200035945236926,0.09192547196607963,0.05781039842040017
0.526,-0.0026,-2.377,0.023248498214003523,1.4265330319356995,0.09981958914856741,0.05836813914290655
0.527,-0.0111,-3.377,0.02482849766741975,1.4265330319356995,0.10827364827973168,0.05836813914290655
0.528,-0.0189,-3.377,0.024866356037984948,1.4340189010121895,0.10847621601016709,0.059007577698459907
0.529,-0.0118,-1.377,0.0248577141666251,1.4325393735219087,0.1084299761894367,0.058881197326105035
0.53,-0.0052,-0.377,0.0255703120866428,1.4399940187192068,0.11224285406072244,0.059517968756170984
0.531,-0.0035,2.623,0.030863789786355747,1.447410270518913,0.14056651796206915,0.06015146064468362
0.532,-0.0164,0.623,0.03331786877764507,1.447410270518913,0.1536974901659199,0.06015146064468362
0.533,-0.0119,2.623,0.03338186924157394,1.4469218271721138,0.15403993566823118,0.06010973809985209
0.534,-0.0051,2.623,0.03339373358868029,1.466063307697673,0.15410341790031223,0.061744792164163245
0.535,0.0025,1.623,0.033433833235203415,1.4974221301605966,0.15431797796367955,0.06442344442680045
0.536,0.009,1.623,0.033431576415419426,1.5145265703695683,0.15430590246082987,0.06588449569940726
0.537,0.0053,0.623,0.03343174671809159,1.5201852840500407,0.15430681369460122,0.06636785971034022
0.538,0.0041,0.623,0.03342704193693815,1.5126585415516633,0.1542816399529367,0.06572492977100963
0.539,0.0066,-0.377,0.03342763076708567,1.5112560046397014,0.15428479059003003,0.06560512588879751
0.54,0.004,-0.377,0.033471351852911176,1.4898501803167685,0.15451872778795014,0.06377665290247819
0.541,-0.0083,0.623,0.03367285806797901,1.4898501803167676,0.15559692148845886,0.06377665290247812
0.542,0.0007,-0.377,0.03382013807737098,1.4898501803167676,0.15638496853844105,0.06377665290247812
0.543,0.0119,-0.377,0.03385769944721557,1.4826462297302605,0.15658594711538112,0.06316129565935175
0.544,-0.0109,-0.377,0.03385414115386329,1.461305035925169,0.15656690785410723,0.06133834337404268
0.545,-0.0077,-1.377,0.033830642162550315,1.453473416856036,0.15644117245486197,0.06066937105646128
0.546,-0.0165,0.623,0.033842337684568444,1.4316974327678538,0.156503751359239,0.05880927923962324
0.547,-0.014,-0.377,0.033854043198887934,1.4090835274122024,0.156566383729145,0.05687761267849523
0.548,-0.0071,-2.377,0.03385284590584915,1.4029767716314878,0.15655997740658248,0.05635597717356757
0.549,-0.0007,-0.377,0.03382999570024414,1.4029767716314872,0.15643771344698026,0.056355977173567516
0.55,-0.0145,-1.377,0.03400886662649182,1.4034805089469746,0.15739479313715005,0.05639900612025391
0.551,-0.0054,-0.377,0.03489838672261491,1.4029767716314865,0.1621543235754194,0.056355977173567454
0.552,0.0026,0.623,0.035915123287331256,1.3829623904890378,0.16759454763394285,0.05464636044940984
0.553,0.0071,-0.377,0.037588846420252266,1.3751986242905434,0.17655009145031417,0.0539831840843288
0.554,0.011,-2.377,0.03992301161997915,1.3542520779986642,0.18903944426479172,0.052193942358638494
0.555,0.0174,-0.377,0.04064079031063419,1.374684523443118,0.19288004274143486,0.05393926989080932
0.556,0.0187,-0.377,0.04080540641755418,1.3741702302616965,0.1937608495662946,0.05389533926823246
0.557,0.0278,0.623,0.04369346446429916,1.3673907777201193,0.2092139014319935,0.05331624239967471
0.558,0.0089,-0.377,0.045911468716089,1.3876297731111085,0.22108171509310706,0.055045045541491505
0.559,-0.0319,0.623,0.04646902740599098,1.3876297731111087,0.2240650288678898,0.05504504554149152
0.56,-0.0378,-0.377,0.04644658675786695,1.3876297731111087,0.22394495631611006,0.05504504554149152
0.561,-0.0327,-0.377,0.04664728280470086,1.3751986242905356,0.22501881507198257,0.05398318408432814
0.562,-0.0662,-1.377,0.046763202851517416,1.3834734152717496,0.2256390652424213,0.05469001188728169
0.5630000000000001,-0.07059999999999336,-0.377,0.047162515585209064,1.3834734152717496,0.22777565678057465,0.05469001188728169
0.5640000000000001,-0.010899999999991451,1.623,0.04793993469574845,1.397349266828852,0.2319353715931251,0.05587527900671502
0.5650000000000001,0.06609999999999885,0.623,0.04856983203968776,1.397349266828852,0.2353057457921239,0.05587527900671502
0.5660000000000001,0.05569999999999476,1.623,0.04856367071049898,1.389665879357546,0.2352727785393974,0.05521896854547031
0.5670000000000001,0.008499999999997192,0.623,0.04899003673565147,1.3896658793575458,0.23755412337174214,0.05521896854547029
0.5680000000000001,-0.01679999999999569,-0.377,0.04930882329572864,1.401968754011439,0.23925984575239595,0.05626987289838586
0.5690000000000001,0.022000000000005484,1.623,0.04980611531063114,1.3943108225814782,0.24192069230544477,0.05561573687729521
0.5700000000000001,0.07139999999999792,0.623,0.050833528577847294,1.401968754011439,0.2474180438990848,0.05626987289838586
0.5710000000000001,0.05269999999999415,-0.377,0.052091083781569035,1.410086458958274,0.25414680955149055,0.056963282504214334
0.5720000000000001,-3.885780586188045e-15,0.623,0.05276263609967488,1.4181576979484973,0.25774006586222015,0.05765272301522234
0.5730000000000001,-0.03500000000000208,2.623,0.05289996833052434,1.405996488358622,0.2584748856102307,0.05661391960916843
0.5740000000000001,-0.05370000000000324,0.623,0.05284124292150644,1.4085079735519852,0.2581606651975174,0.05682844920458727
0.5750000000000001,-0.08290000000000057,-1.377,0.05305221056460507,1.4460163546247542,0.25928948389784157,0.06003239316476697
0.5760000000000001,-0.08799999999999202,-0.377,0.056286286838475495,1.4474821068365262,0.27659396586768026,0.060157596860893336
0.577,-0.0161,1.623,0.05783914309380445,1.43556933606082,0.28490279064376767,0.05914001495295172
0.578,0.0145,-1.3769999999993339,0.05899150945672399,1.3946685880193006,0.2910687252912906,0.055646296991618674
0.579,0.0614,1.623,0.060417853329460196,1.3735043457027352,0.2987006237805043,0.05383845979890207
0.58,0.1727,1.622999999999778,0.06050935756599753,1.4084341493840602,0.29919023295395436,0.05682214318736729
0.581,0.1269,0.623,0.06050753130884894,1.4758156673937997,0.29918046125062275,0.06257783302202606
0.582,0.03,-0.3770000000004441,0.06052025249838157,1.5513613847432897,0.2992485281656429,0.06903090398634622
0.583,0.0176,-2.377,0.060498962570823676,1.642631986335748,0.29913461274239167,0.07682718536001565
0.584,-0.0166,-3.377,0.06056567267767257,1.6817680641924093,0.2994915566557123,0.08017016622689731
0.585,-0.0065,-3.377,0.06068878740308676,1.6681393684915207,0.30015030319281916,0.07900601101605856
0.586,0.0028,-1.376999999999778,0.06102007062103939,1.6617085290311115,0.3019228910932,0.07845669247287511
0.587,-0.0055,-0.377,0.06142670622012011,1.6548256104320005,0.3040986648835211,0.07786875759423434
0.588,0.0022,-1.376999999999778,0.06175943949427507,1.6548256104320005,0.30587901155929365,0.07786875759423434
0.589,-0.0188,-0.377,0.062030233074987604,1.6612830939361878,0.30732793924008084,0.0784203520560444
0.59,-0.0376,-0.37699999999977796,0.06209271065010109,1.6681393684915207,0.3076622362635634,0.07900601101605856
0.591,-0.0317,0.623,0.062096935857832526,1.687284832054427,0.30768484396505713,0.0806414053090889
0.592,-0.0161,0.623,0.06209265396232582,1.705801142863386,0.30766193294586097,0.0822230577420766
0.593,-0.002,0.623,0.06224232424271226,1.7422434984870019,0.3084627695523731,0.08533594243226046
0.594,0.0023,-0.37699999999977796,0.06250733950698834,1.760583301008468,0.30988077935611497,0.08690251763062856
0.595,-0.0098,0.623,0.06265735784376772,1.7670543269246055,0.3106834782982884,0.087455268877342
0.596,-0.0135,-0.37699999999977796,0.0626647859439484,1.7617873627539504,0.31072322362732885,0.08700536788027377
0.597,-0.0037,0.623,0.0627436884367872,1.7617873627539506,0.3111454050012611,0.0870053678802738
0.598,-0.0008,-0.37699999999977796,0.06287121193982344,1.7943393101054979,0.3118277414621697,0.08978593617264392
0.599,-0.0359,0.623,0.0630545794866757,1.7783365807132718,0.3128088810951447,0.08841899239324855
0.6,-0.0793,-0.37699999999977796,0.06353336302870174,1.778734019340587,0.3153706948771462,0.08845294136820052
0.601,-0.085,0.623,0.06364903570668666,1.7739002638459178,0.3159896214580575,0.08804004480270801
0.602,-0.1113,0.622999999999778,0.06366970954258944,1.779131369184431,0.31610024037682494,0.08848688275932036
0.603,-0.1351,-0.377,0.06370867313791548,1.778734019340587,0.31630872180264874,0.08845294136820052
0.604,-0.0781,-2.3769999999995557,0.06398038955157212,1.779131369184431,0.31776258726000345,0.08848688275932036
0.605,0.039,-0.377,0.06406825793234475,1.763391499521792,0.3182327421611367,0.08714239230419273
0.606,0.1561,-0.377,0.06408320031449617,1.7637923057554885,0.3183126939497246,0.08717662893811096
0.607,0.1409,-2.377,0.0640639985361409,1.7637923057554885,0.3182099515283346,0.08717662893811096
0.608,0.0717,-1.377,0.0640200147093366,1.763391499521792,0.31797460848956677,0.08714239230419273
0.609,0.0091,-0.377,0.06403879322748632,1.7795286303042772,0.318075086184347,0.08852081657168821
0.61,0.0432,1.623,0.06396079877084458,1.779131369184431,0.31765776341443935,0.08848688275932036
0.611,0.0331,1.623,0.06385156247465103,1.779131369184431,0.3170732758025652,0.08848688275932036
0.612,0.0615,-0.377,0.06377209481007395,1.784347138748377,0.316648070379932,0.08893241074304412
0.613,0.0869,-2.377,0.06344271533828337,1.779131369184431,0.3148856688011919,0.08848688275932036
0.614,0.0793,-0.377,0.06305114542934467,1.779131369184431,0.3127905065800944,0.08848688275932036
0.615,-0.0268,0.623,0.06304478589078372,1.7727044294813985,0.31275647877399293,0.08793789733112975
0.616,-0.0723,-0.377,0.06269748986676617,1.7775414368700024,0.31089821159756176,0.08835107167149907
0.617,-0.0583,-2.377,0.06248545483220279,1.7715077878839045,0.30976368163541435,0.08783568090618322
0.618,-0.0705,0.623,0.06248260104936088,1.78717617787494,0.3097484119789339,0.08917406560959458
0.619,-0.1045,1.623,0.06246221306156438,1.78717617787494,0.3096393225396784,0.08917406560959458
0.62,-0.1145,1.623,0.06243169050349787,1.781175166430054,0.3094760063371502,0.08866146272394856
0.621,-0.086,1.623,0.062023229645168036,1.78717617787494,0.3072904661829304,0.08917406560959458
0.622,-0.0431,1.623,0.061806861611733065,1.787571651157018,0.3061327517642336,0.08920784670590659
0.623,-0.0042,2.623,0.06180839291498715,1.7935512608444668,0.3061409452659654,0.08971862146595727
0.624,0.0596,3.623,0.061712636770056714,1.7819686888439505,0.30562858552453387,0.08872924494414992
0.625,0.1884,1.623,0.0614864996986439,1.7879670369659437,0.3044186001860335,0.08924162033031309
0.626,0.133,1.623,0.06092732682294223,1.800689033204504,0.3014266494321874,0.09032832580370811
0.627,0.1164,-0.377,0.060297851015214274,1.801081539397792,0.2980585307352706,0.09036185345303209
0.628,0.1317,-2.377,0.060276745024613235,1.801081539397792,0.29794559949837857,0.09036185345303209
0.629,0.0351,-3.377,0.06026005066060984,1.8022585450842465,0.29785627342922283,0.09046239258994918
0.63,-0.002,-4.377,0.0599487259600364,1.8022585450842465,0.29619047701268036,0.09046239258994918
0.631,-0.013,-5.377,0.05740391102912849,1.7963079207286936,0.28257400654033415,0.08995409373998592
0.632,-0.0027,-5.377,0.05598518496614304,1.7963079207286938,0.27498286845388115,0.08995409373998595
0.633,-0.0309,-4.377,0.05590573301767485,1.802650709534639,0.2745577471229946,0.09049589104779501
0.634,-0.0391,-1.377,0.05588555405370882,1.793099118736031,0.2744497761017353,0.08967999975166213
0.635,-0.0637,0.623,0.05586590863407563,1.760524240498147,0.2743446599012984,0.08689747271640097
0.636,-0.0713,-0.377,0.05586335928529774,1.7277443301622413,0.2743310191716971,0.08409743195931789
0.637,-0.0644,0.623,0.05586443239359957,1.728971261235254,0.27433676102244153,0.0842022356935369
0.638,-0.0582,1.623,0.055872203825948326,1.728971261235254,0.2743783434093647,0.0842022356935369
0.639,-0.0288,1.623,0.05588961794038034,1.7239979862779795,0.2744715206271205,0.08377742145719971
0.64,0.0082,2.623,0.05588479280615605,1.7244079488181088,0.27444570291562714,0.08381244021745489
0.641,0.0035,2.623,0.055772595753944984,1.7248178139164807,0.27384537326887703,0.08384745065429218
0.642,0.043,3.623,0.05571348485134933,1.7248178139164807,0.273529090206399,0.08384745065429218
0.643,0.0586,2.623,0.055693708599489716,1.7409064706163802,0.27342327396560695,0.08522173429402172
0.644,0.0445,1.623,0.055698513146106965,1.7458315797696191,0.2734489815195639,0.08564243423556629
0.645,-0.0124,-0.377,0.055711219124276255,1.7458315797696196,0.2735169670435654,0.08564243423556633
0.646,-0.0356,0.623,0.05571302915007379,1.74542664917903,0.2735266518982583,0.08560784530149598
0.647,-0.0425,-3.377,0.05569733269849142,1.7454266491790307,0.273442665331339,0.08560784530149604
0.648,-0.0487,-0.377,0.05569687657587565,1.7503390394867053,0.2734402247687449,0.08602745880669598
0.649,-0.078,0.623,0.05570800429625757,1.7507428338873166,0.2734997655526992,0.08606195068808331
0.65,-0.0411,0.623,0.05559613109796197,1.7507428338873166,0.2729011687420873,0.08606195068808331
0.651,-0.0172,-1.377,0.055034566596787945,1.7507428338873172,0.2698964211843441,0.08606195068808337
0.652,0.0223,-0.377,0.05437752098654975,1.755640349244314,0.26638078551192956,0.08648029358370167
0.653,0.0592,0.623,0.05323121336345019,1.760524240498154,0.26024726919505076,0.08689747271640158
0.654,0.0352,0.623,0.05152443808656587,1.7605242404981545,0.25111487419124806,0.08689747271640161
0.655,0.0222,0.623,0.0509475320238039,1.7495311710964665,0.24802803896660824,0.08595845116159116
0.656,0.0103,-0.377,0.05081716866369267,1.7499351519112702,0.24733050736143292,0.08599295896636973
0.657,-0.0149,-0.377,0.04837282650033654,1.7499351519112702,0.23425163373199565,0.08599295896636973
0.658,-0.0181,-2.377,0.046285979950222475,1.7339302718576557,0.22308560193737395,0.08462583147873717
0.659,-0.0033,-0.377,0.045726047331466076,1.7285623809746966,0.22008958604749554,0.08416730938096936
0.66,0.0045,-0.377,0.045717252234905865,1.7289712612352637,0.22004252636894722,0.08420223569353773
0.661,0.0066,-1.377,0.04551200504679739,1.7223571603080359,0.2189443159480369,0.08363726306310885
0.662,0.013,-0.377,0.045390783689771126,1.7161295028079349,0.21829570020450348,0.0831053002040666
0.663,0.0031,-0.377,0.04497021977561432,1.7161295028079349,0.2160454005660903,0.0831053002040666
0.664,-0.0061,-0.377,0.04412248862088319,1.699806348434272,0.21150946905425883,0.08171098591027945
0.665,-0.0048,-1.377,0.04340158130239585,1.699806348434272,0.20765213031568933,0.08171098591027945
0.666,-0.0217,0.623,0.043324927770362474,1.699806348434272,0.20724198239378874,0.08171098591027945
0.667,-0.0064,-2.377,0.04272403145967797,1.700222144142936,0.2040267832168261,0.0817465029363771
0.668,-0.0049,-0.377,0.04232645895199484,1.6833249163328812,0.20189950305757592,0.08030315162561873
0.669,-0.0106,0.623,0.04173909595779612,1.6884179990257164,0.1987567162207342,0.08073819976861235
0.67,-0.0061,1.623,0.04043121780735413,1.6871615772249986,0.19175868897693515,0.08063087695369166
0.671,-0.0108,0.623,0.03878978198550607,1.68080351927517,0.18297590397792093,0.08008777536454802
0.672,-0.0045,1.623,0.03785420303985848,1.6739991146636546,0.17796992773452697,0.07950654710477886
0.673,-0.0058,1.623,0.037609924426370706,1.667166938666192,0.17666287295141342,0.07892294662947479
0.674,-0.0092,1.623,0.037607767567406955,1.6482166625988535,0.17665133230614438,0.0773042251380861
0.675,0.0016,2.623,0.037130319008089045,1.6096469481977431,0.17409666157898976,0.07400962270612434
0.676,0.0092,0.623,0.031986904393670995,1.602981466076809,0.14657593605445388,0.07344026112419894
0.677,0.0,1.623,0.029084232393955287,1.5958452763575355,0.13104468971704966,0.07283069197469592
0.678,0.0035,1.623,0.026656305189187775,1.5958452763575355,0.11805364714998635,0.07283069197469592
0.679,-0.0069,1.623,0.023167402231047823,1.5778306564982683,0.09938567112807378,0.07129189368902596
0.68,-0.0036,0.623,0.022904444494570606,1.54116983152797,0.0979786704810996,0.06816034747510347
0.681,-0.0075,0.623,0.02294495044558163,1.4772518525609284,0.09819540454658982,0.06270051111850254
0.682,-0.0046,1.623,0.022955100989281246,1.3750473953409694,0.09824971677844818,0.053970266195960015
0.683,-0.0096,1.623,0.023016202928392387,1.264050602514285,0.09857665322463333,0.04448898511143575
0.684,-0.0073,-0.377,0.022811733616765435,1.1925037012464041,0.0974826049657778,0.038377490676576705
0.685,0.0033,0.623,0.022487734461260137,1.208574102084694,0.09574899169574365,0.039750214911291444
0.686,0.0044,1.623,0.021577875639111635,1.231426087290739,0.09088063540180728,0.04170221811390843
0.687,0.0106,-0.377,0.020414657129015117,1.2319999698525674,0.08465663447221318,0.041751238826486126
0.6880000000000001,0.014000000000000333,0.623,0.019397321339436478,1.231426087290739,0.07921320415788521,0.04170221811390843
0.6890000000000001,0.016999999999999457,0.623,0.018514307817512232,1.229702832675656,0.07448848826521544,0.041555018713189555
0.6900000000000001,0.012100000000000676,0.623,0.018291737051234817,1.2203858497120634,0.07329758505641407,0.04075916748102397
0.6910000000000001,0.018199999999998613,0.623,0.018286679623432375,1.2174863596339351,0.07327052441813284,0.040511494735420865
0.6920000000000001,0.005700000000000189,-2.377,0.018290859497906393,1.1914048855790353,0.0732928895562269,0.038283630485330726
0.6930000000000001,0.007400000000000511,-1.377,0.0177748332375036,1.1474398314807173,0.07053180219683175,0.03452816129395192
0.6940000000000001,0.011999999999999834,-0.377,0.01678914967385283,1.1474398314807173,0.06525773256743858,0.03452816129395192
0.6950000000000001,0.010499999999998613,-0.377,0.016237182530263138,1.1653462507448358,0.06230433732399236,0.036057717148106586
0.6960000000000001,-0.001999999999999489,-0.377,0.01625089557529021,1.1750997058284642,0.06237771133262035,0.036890851573328755
0.6970000000000001,0.002599999999998457,-1.377,0.01597589290805196,1.1744980210207228,0.060906262209626506,0.0368394560091759
0.6980000000000001,-0.011299999999999399,0.623,0.01569277376280919,1.1523575421373724,0.05939138447351598,0.03494822926024814
0.6990000000000001,-0.005900000000000166,0.623,0.015385591539326128,1.1523575421373726,0.057747753093927004,0.034948229260248154
0.7000000000000001,-0.007399999999998823,-0.377,0.013413740651761992,1.1517439766130046,0.04719702539255833,0.03489581885223403
0.7010000000000001,0.0032000000000001225,-1.377,0.012776024610160194,1.1517439766130046,0.043784815905436834,0.03489581885223403
0.7020000000000001,0.004300000000001532,-1.377,0.013004152027194913,1.1517439766130049,0.045005450930899235,0.03489581885223405
0.7030000000000001,0.0180999999999994,-0.37700000000022205,0.01294832797703652,1.1763021521493704,0.04470675473834061,0.03699356383435205
0.704,0.0127,-1.377,0.011511484511793159,1.18357902931665,0.037018676371522105,0.03761515042332913
0.705,0.0142,0.622999999999778,0.011016062016706135,1.18357902931665,0.03436783300615336,0.03761515042332913
0.706,0.0128,-0.377,0.010879391308769849,1.18357902931665,0.033636552850395574,0.03761515042332913
0.707,0.0117,0.622999999999778,0.010953299289589477,1.18357902931665,0.034032010227778284,0.03761515042332913
0.708,0.003,-0.377,0.01089897060039879,1.21041334692236,0.03374131522155937,0.03990732212894231
0.709,-0.0024,0.622999999999778,0.010758471891346813,1.1865613784886504,0.03298955268669933,0.03786990094423911
0.71,0.0024,-0.377,0.010787022845438553,1.1865613784886504,0.03314231948267564,0.03786990094423911
0.711,0.0017,0.622999999999778,0.010783199954565195,1.1871569492604737,0.03312186444680491,0.037920774251021944
0.712,-0.0004,-0.377,0.01079142050747134,1.1793029040216867,0.033165849930603127,0.03724988630315318
0.713,0.0048,0.622999999999778,0.010773168602970864,1.1799021386074917,0.03306818997282924,0.03730107257078217
0.714,-0.0016,-0.377,0.010818893292290703,1.1895362504789966,0.03331284779624065,0.03812401276866805
0.715,-0.0069,0.623,0.0109196658346306,1.1901303325519346,0.03385204863577082,0.038174758911663345
0.716,-0.0061,0.623,0.010950626186552587,1.182893758109018,0.03401770732970531,0.037556614957814954
0.717,-0.0008,-0.37700000000022205,0.010913023591269564,1.182893758109018,0.0338165081689584,0.037556614957814954
0.718,0.0033,-1.377,0.010905025443546745,1.1590853267740568,0.03377371270238891,0.03552291268660759
0.719,0.0118,-1.376999999999556,0.010913756933444428,1.1590853267740568,0.03382043204253714,0.03552291268660759
0.72,0.0084,0.623,0.011067485568683802,1.1590853267740568,0.03464298357548661,0.03552291268660759
0.721,0.014,-0.377,0.011182161781693395,1.157254355348588,0.03525657839896893,0.035366512178984726
0.722,0.0011,-0.377,0.01132116195532875,1.164650251560604,0.03600032276205374,0.035998265305109606
0.723,-0.0006,0.622999999999778,0.011445011917897976,1.162828042614441,0.036663003312157,0.035842613283340985
0.724,0.001,-0.377,0.011462947918637239,1.1535836941609325,0.03675897297246193,0.03505296644851883
0.725,-0.0003,0.622999999999778,0.01144260460648496,1.1442646643925676,0.03665012257793348,0.03425694037948744
0.726,-0.0012,-0.377,0.011579626673153542,1.126023048130404,0.03738328273908789,0.03269875219392735
0.727,-0.0072,-0.377,0.011795837362585583,1.126023048130404,0.038540155261604356,0.03269875219392735
0.728,0.0006,-0.377,0.011797781533430968,1.124138226888153,0.0385505578824739,0.032537751866469525
0.729,-0.0057,0.623,0.012051203310878911,1.1222502400897916,0.039906534738692004,0.03237648113906133
0.73,-0.0139,0.623,0.012220272093958333,1.1120333479120565,0.04081116637403656,0.0315037601884782
0.731,-0.0147,0.622999999999778,0.012225839604279984,1.1120333479120565,0.040840956296666495,0.0315037601884782
0.732,-0.0171,-0.377,0.012230911904644847,1.1197279724805485,0.040868096513153825,0.03216103051598823
0.733,-0.0031,-1.377,0.012270012853998948,1.1094878538507316,0.041077312875355404,0.0312863255754611
0.734,0.0069,-2.377,0.012669599150401738,1.0997952448459458,0.04321536815789872,0.030458388586684683
0.735,0.0053,-2.377,0.013001501099266191,1.1004377755431256,0.044991266684560785,0.030513273182809088
0.736,0.0132,0.623,0.013046424515623368,1.1004377755431256,0.045231637159016534,0.030513273182809088
0.737,0.0087,-0.377,0.013046447180116971,1.0906647425243716,0.04523175842929209,0.02967846642182611
0.738,0.0046,-1.377,0.013018082173181013,1.0913126489885026,0.04507998657559051,0.02973381021281742
0.739,0.0012,-0.377,0.012997868803834665,1.0906647425243716,0.04497183146241967,0.02967846642182611
0.74,-0.0073,-2.377,0.013055042703583486,1.0900164509442989,0.04527775025763869,0.029623089734456435
0.741,0.0052,0.623,0.013097384721503683,1.0893677735607274,0.04550430851527364,0.02956768009197768
0.742,0.0006,1.623,0.012974272070264158,1.0893677735607274,0.04484557307639551,0.02956768009197768
0.743,-0.0068,2.623,0.012961906115936634,1.063467581942347,0.04477940690850721,0.02735530088152297
0.744,-0.0132,2.623,0.012950959544750387,1.0546928534406834,0.04472083539451589,0.026605768708151407
0.745,-0.0141,1.623,0.012897470469494585,1.0654597362697233,0.04443463288722634,0.027525469538297587
0.746,-0.0194,-0.377,0.012853877562304307,1.0661229604827471,0.044201381531164714,0.027582121762434908
0.747,-0.0301,2.623,0.012852895000676219,1.0667857723671823,0.04419612416598911,0.027638738765705495
0.748,-0.0376,-0.377,0.01285000645397558,1.0847203173484385,0.04418066849949661,0.02917069710215803
0.749,-0.0197,-0.377,0.012906812553776707,1.0840684709057582,0.044484619317765046,0.02911501676050483
0.75,0.0025,0.623,0.013101982581688675,1.0919601710222087,0.04552891015788605,0.02978912116598682
0.751,0.0295,-1.377,0.013199129400721868,1.0926073093089756,0.04604871094056061,0.029844399339717262
0.752,0.0188,-2.377,0.013204179502306153,1.0847203173484383,0.04607573237865011,0.029170697102158014
0.753,0.0026,-1.377,0.013199979310954459,1.0767755575706548,0.04605325853160374,0.028492060371457094
0.754,0.0114,0.623,0.013178814733838173,1.0853717723089373,0.04594001381747406,0.029226344003632394
0.755,0.014,0.623,0.013298397136764508,1.0774318162362484,0.04657986005488895,0.02854811760260938
0.756,0.0163,-0.377,0.013261991549402247,1.076775557570655,0.0463850656911315,0.028492060371457115
0.757,0.0098,2.623,0.013228260894884377,1.0774318162362497,0.04620458401614714,0.028548117602609495
0.758,0.0041,-0.377,0.01317518446334848,1.0774318162362508,0.0459205894301329,0.02854811760260959
0.759,-0.0086,-0.377,0.01317259291406107,1.086022836491755,0.04590672289943903,0.029281957525105932
0.76,-0.0038,0.623,0.013174204191114317,1.0860228364917563,0.04591534431475369,0.029281957525106046
0.761,-0.0081,-0.377,0.013184301098704306,1.0860228364917563,0.04596936955737203,0.029281957525106046
0.762,-0.0117,0.623,0.013184044254924386,1.0860228364917577,0.04596799527050237,0.029281957525106157
0.763,-0.0106,1.623,0.013226137798169828,1.0866735105992744,0.04619322402160589,0.029337537726575772
0.764,-0.0161,0.623,0.013217569935861356,1.0964821183652302,0.0461473801990483,0.0301753832616453
0.765,-0.0096,0.623,0.01328710456987593,1.1068425680320577,0.04651943723131629,0.031060366808932458
0.766,-0.0197,0.623,0.01341467801265283,1.1062037575199477,0.04720204090340629,0.031005799988839546
0.767,-0.0048,0.623,0.013521182123881842,1.1139386512003944,0.0477719094891804,0.03166651008032603
0.768,-0.0066,-0.377,0.013524700680410203,1.1145730285157185,0.04779073613173574,0.03172069821934394
0.769,0.021,0.623,0.013602675514183172,1.1062037575199468,0.048207953906105265,0.03100579998883947
0.77,0.0169,-1.377,0.01365691948099733,1.0984143970580318,0.04849819559066046,0.03034043737675559
0.771,0.0205,-1.377,0.013634031559193155,1.0977706820678947,0.048375729824040356,0.030285451619019858
0.772,0.0172,-1.377,0.013721267239051082,1.0977706820678947,0.048842499349986475,0.030285451619019858
0.773,0.0084,0.623,0.01372790467212852,1.1235092504713584,0.04887801407854824,0.03248402506904324
0.774,0.0058,0.623,0.013734730435518502,1.1235092504713593,0.048914536500875336,0.03248402506904331
0.775,0.0177,1.623,0.013790594764534007,1.1235092504713593,0.04921344821239444,0.03248402506904331
0.776,0.0242,0.623,0.013925632363129619,1.1235092504713604,0.04993599013542445,0.03248402506904341
0.777,0.002,-1.377,0.014517592801846647,1.1235092504713606,0.05310337639078245,0.03248402506904343
0.778,-0.025,-1.377,0.014503255766027803,1.1336227196064022,0.05302666361197986,0.03334791168384602
0.779,-0.0215,-0.377,0.014529454401020814,1.1342460877888734,0.05316684391957922,0.03340115942917851
0.78,-0.0052,0.623,0.014534505352821985,1.1342460877888734,0.05319386990690056,0.03340115942917851
0.781,-0.0083,-1.377,0.01448847253623014,1.158565076245054,0.05294756339546472,0.03547847319088674
0.782,-0.0109,-0.377,0.01490645353962353,1.1659526582934716,0.055184042725094085,0.03610951612602274
0.783,-0.0331,0.623,0.015037152273973826,1.1665587506157422,0.05588336880788271,0.03616128817748726
0.784,-0.0302,0.623,0.015097882524679827,1.1591750312835671,0.05620831647125618,0.035530575193312125
0.785,-0.0115,0.623,0.015199976427077167,1.1348691135637206,0.05675458747529497,0.03345437792625215
0.786,-0.0047,0.623,0.015373168203732577,1.110031106181512,0.05768127989769451,0.03133272987162842
0.787,0.0063,0.623,0.015438092634763482,1.1100311061815085,0.05802866924508049,0.03133272987162812
0.788,0.012,-0.377,0.015434770590836134,1.1354917974945684,0.05801089407703382,0.03350756722321142
0.789,0.0209,-0.377,0.015433592232093637,1.1272778448253087,0.05800458906568381,0.03280593619326055
0.79,0.016,-0.377,0.015446490736900772,1.1279047196862602,0.058073604736611634,0.03285948347701661
0.791,-0.0041,0.623,0.01559532248412009,1.127904719686246,0.05886995462702843,0.032859483477015394
0.792,-0.0016,0.623,0.015792621219524697,1.127904719686246,0.059925635483124955,0.032859483477015394
0.793,0.0052,-0.377,0.015838374816155062,1.1177395144564801,0.06017044798007881,0.031991177595279
0.794,0.0029,1.623,0.015893889379143766,1.0990577350261719,0.06046748820824629,0.030395390929492984
0.795,0.0009,0.623,0.015845365515465858,1.0700936736602813,0.06020785292045006,0.02792129775827661
0.796,-0.0011,0.623,0.015845308301871003,1.0681101622202227,0.060207546789259346,0.0277518673718786
0.797,0.0002,-2.377,0.015728134009490583,1.0945464284921822,0.05958058556196616,0.03001003776551468
0.798,-0.0166,-0.377,0.0157092766124364,1.0647960989576106,0.05947968581202562,0.02746878202747785
0.799,-0.0234,-1.377,0.015563146734292646,1.0647960989576095,0.05869779273732485,0.027468782027477757
0.8,-0.0177,0.623,0.015600798640990501,1.0654597362696971,0.05889925574728761,0.02752546953829535
0.801,-0.0051,0.623,0.015598904519739047,1.0647960989576097,0.0588891209253883,0.027468782027477774
0.802,0.0028,0.623,0.015325388176350615,1.056032409356783,0.05742562463407883,0.026720192790555382
0.803,0.0165,-1.377,0.01570108966018203,1.0286067684615883,0.05943588011430032,0.024377510595614955
0.804,0.0218,0.623,0.016332203389832774,1.0286067684615883,0.06281276279449417,0.024377510595614955
0.805,0.0103,-0.377,0.01705155553230157,1.028606768461587,0.06666178029599508,0.02437751059561484
0.806,0.0087,0.623,0.017079061774879688,1.0279193386975654,0.06680895718313182,0.02431879074747712
0.807,-0.0006,0.623,0.01704891722557962,1.0279193386975654,0.06664766358159668,0.02431879074747712
0.808,-0.0019,-1.377,0.017105031925049047,0.996181215993754,0.06694791494334007,0.02160773888024142
0.809,-0.0032,0.623,0.017153335325172853,0.9968905317813701,0.06720637060292907,0.021668328219706212
0.81,-0.0059,-0.377,0.01727899946744195,0.9975993432294809,0.06787875823389498,0.02172887447878561
0.811,-0.0018,0.623,0.017294840893632736,0.9975993432294809,0.0679635205124194,0.02172887447878561
0.812,0.0104,0.623,0.017320652628549614,0.9975993432294809,0.06810163064454217,0.02172887447878561
0.8130000000000001,0.0011999999999983346,1.623,0.017578638918048697,0.9968905317813701,0.06948203070844039,0.021668328219706212
0.8140000000000001,-0.013800000000000666,1.623,0.01760212962021769,0.9968905317813701,0.0696077217551935,0.021668328219706212
0.8150000000000001,-0.019799999999999814,-0.377,0.017611474445768237,1.0075735455101487,0.06965772285336093,0.022580865000390842
0.8160000000000001,-0.018099999999998357,-1.377,0.01826548179313514,1.0075735455101487,0.07315710177713272,0.022580865000390842
0.8170000000000001,-0.0032999999999979903,0.623,0.018257091037340786,1.0068717556647138,0.0731122055934744,0.022520918522502757
0.8180000000000001,0.014800000000000233,-0.377,0.018263282922841514,1.0068717556647138,0.07314533634300938,0.022520918522502757
0.8190000000000001,0.016899999999997743,0.623,0.01833324316588264,1.0181444724931923,0.07351967066965835,0.023483827396851394
0.8200000000000001,-0.003399999999997313,-0.377,0.018211030399039464,1.0181444724931923,0.07286575021719145,0.023483827396851394
0.8210000000000001,0.020799999999998167,-0.377,0.018658426341620273,1.0202251313499813,0.07525961924381872,0.023661556058732866
0.8220000000000001,0.004299999999999023,-2.377,0.019217771383097257,1.0110751880521225,0.07825249120029037,0.02287997325705752
0.8230000000000001,-0.004500000000000899,0.623,0.019140648125866657,1.0025469916207081,0.07783982993284136,0.0221514997088485
0.8240000000000001,-0.01259999999999647,-0.377,0.019127447755224757,1.0025469916207081,0.07776919907678718,0.0221514997088485
0.8250000000000001,0.019200000000002406,0.623,0.01911861201905806,1.0018416806817252,0.07772192194902673,0.02209125246121019
0.8260000000000001,0.04089999999999513,-0.377,0.019125336364680386,0.9997227622603867,0.07775790171812513,0.021910255689715576
0.8270000000000001,-0.003000000000000655,1.623,0.018986794104068973,0.9990154574004293,0.07701660749752169,0.021849838122514533
0.8280000000000001,-0.008899999999998279,0.623,0.01902967284245003,1.001135872843759,0.07724603757039886,0.022030962768751532
0.8290000000000001,0.006599999999998423,0.623,0.018886513593070534,0.9918098371921825,0.07648003935640547,0.021234338261276277
0.8300000000000001,-0.007600000000003386,-2.3769999999997777,0.01876839872024979,0.9918098371921826,0.07584804539151042,0.021234338261276287
0.8310000000000001,-0.038099999999998684,-1.377,0.01877639333021867,1.0004295670551158,0.07589082192871834,0.021970630541637465
0.8320000000000001,-0.02619999999999557,0.623,0.018907219620812057,0.991096885220933,0.07659083052314916,0.021173438321133525
0.833,0.0137,0.623,0.019062459982496005,0.991096885220933,0.07742147080874025,0.021173438321133525
0.834,0.0188,0.623,0.018927646332844404,0.991096885220933,0.07670012716309631,0.021173438321133525
0.835,0.0235,0.623,0.018763372241492302,0.990383420013727,0.07582115035142326,0.021112494540675736
0.836,0.0193,0.6229999999993339,0.018737223939212254,1.001135872843759,0.07568123935767126,0.022030962768751532
0.837,0.0081,-2.377,0.018736733508375084,1.0004295670551158,0.07567861522303107,0.021970630541637465
0.838,0.0042,-0.37699999999977796,0.018727509965675508,1.0004295670551158,0.07562926306964113,0.021970630541637465
0.839,-0.0066,0.623,0.018689096977414724,1.001135872843759,0.07542372776172743,0.022030962768751532
0.84,-0.0228,-2.3769999999993336,0.018571821520504135,1.001135872843759,0.07479622523619633,0.022030962768751532
0.841,-0.0256,0.623,0.018560173640654987,1.0018416806817252,0.0747339012494478,0.02209125246121019
0.842,-0.0122,-0.3769999999995559,0.018626951785888416,1.032721737770771,0.07509120921386023,0.024729008865798954
0.843,0.0147,1.623,0.0187107371603409,1.0320370489511181,0.07553951728663613,0.024670523147525134
0.844,0.0039,0.6229999999995559,0.01875652188434036,1.0320370489511181,0.07578449633593806,0.024670523147525134
0.845,0.0138,-1.377,0.018760069831862545,1.0216098830528137,0.07580348024006663,0.023779840738789602
0.846,-0.001,-2.3769999999995557,0.018780157605740137,1.029980251576741,0.07591096333305596,0.024494832719506802
0.847,0.0288,-0.377,0.01889307058096124,1.0292937391150971,0.07651512364914399,0.024436191226801362
0.848,-0.0309,-0.37699999999977796,0.0189380776955587,1.0018416806817252,0.07675594196544613,0.02209125246121019
0.849,-0.0225,0.623,0.01922496083316091,1.0131703645805483,0.07829095959078713,0.02305894200995402
0.85,0.0009,-0.377,0.019144675477545975,1.004659953505353,0.07786137897145991,0.0223319876764647
0.851,-0.0059,-0.377,0.01916101014086822,1.0046599535053533,0.0779487804001853,0.02233198767646472
0.852,0.0389,-0.37700000000022205,0.019172812276091987,1.0046599535053533,0.07801192975687653,0.02233198767646472
0.853,0.0449,-1.377,0.01917109355396211,1.0039561269900341,0.07800273343817868,0.02227186722742704
0.854,0.0502,0.622999999999778,0.019125617649380228,0.994656534778402,0.07775940678034526,0.021477501503116312
0.855,0.017,-0.377,0.019014662231668002,0.9939456247304627,0.07716572071277478,0.021416775982867724
0.856,0.0128,-0.377,0.01901094488118156,0.9939456247304628,0.07714583038891695,0.021416775982867734
0.857,0.0169,-0.377,0.019004944521285164,0.9932342058468794,0.0771137244301062,0.021356006998176212
0.858,0.0134,0.623,0.019006347353777157,1.0209177419824944,0.07712123052690438,0.02372071845362513
0.859,-0.0226,0.623,0.019007822976172723,1.0396438422065926,0.07712912609861512,0.025320290975678793
0.86,-0.0084,0.623,0.01901235573952437,1.0389637151419377,0.07715337942941189,0.025262194919847217
0.861,-0.0125,-0.377,0.019015644500074872,1.0396438422065926,0.07717097650901977,0.025320290975678793
0.862,-0.0323,-0.377,0.019017708582593013,1.0389637151419377,0.07718202073794164,0.025262194919847217
0.863,-0.014,1.623,0.01898989936952709,1.0389637151419377,0.07703322275504226,0.025262194919847217
0.864,-0.0171,1.623,0.01899813515775914,1.0286067684615872,0.07707728975807504,0.02437751059561486
0.865,-0.0495,0.623,0.018967857062411404,1.0286067684615872,0.07691528159541694,0.02437751059561486
0.866,-0.0189,-0.377,0.01886736027544992,1.0376021235851633,0.0763775562325205,0.02514588856591273
0.867,-0.0068,0.623,0.018782663215659388,1.0292937391150971,0.07592437003036283,0.024436191226801362
0.868,-0.0174,1.623,0.018826722865161922,1.0292937391150971,0.07616011877153323,0.024436191226801362
0.869,-0.0009,0.623,0.01892723066981045,1.040323524628101,0.0766979030864613,0.02537834905035303
0.87,0.0439,1.623,0.018903367118656273,1.040323524628101,0.07657021704701313,0.02537834905035303
0.871,0.0503,-0.377,0.018910237545931866,1.040323524628101,0.07660697845115073,0.02537834905035303
0.872,-0.0024,0.623,0.018851633535664436,1.0410027632774008,0.07629340760335519,0.0254363692182649
0.873,0.0046,0.623,0.018846737155807546,1.0131703645805483,0.07626720867983704,0.02305894200995402
0.874,-0.0014,-0.377,0.018886137168435256,1.0236834984119016,0.07647802523157893,0.023956967749219515
0.875,-0.0187,-1.377,0.018903428339848347,1.0243737707386784,0.07657054462154282,0.02401593040740423
0.876,0.0079,-0.377,0.01884799791530383,1.0243737707386784,0.07627395459060854,0.02401593040740423
0.877,0.0128,1.623,0.01839922976456348,1.0243737707386784,0.07387274332794698,0.02401593040740423
0.878,-0.0088,-0.377,0.018455230116599827,1.022301555514679,0.07417238285406051,0.023838922995694175
0.879,0.0032,-0.377,0.01856701673824509,1.022301555514679,0.07477051642139737,0.023838922995694175
0.88,-0.0076,-1.377,0.018868156333243107,1.022301555514679,0.0763818156768139,0.023838922995694175
0.881,-0.0238,-0.377,0.018876584215213776,0.9946565347784073,0.07642691051047125,0.02147750150311677
0.882,-0.0267,-0.377,0.018512767135438816,0.9852691710562844,0.07448024458049592,0.0206756383877465
0.883,-0.0241,0.623,0.018604970584075137,0.9960768327245075,0.07497359500867698,0.02159882252247068
0.884,-0.017,-0.377,0.018782575206134893,0.995366937080963,0.0759238991202479,0.02153818365205184
0.885,-0.0057,1.623,0.018717111288588047,0.995366937080963,0.07557362315736571,0.02153818365205184
0.886,0.0042,-0.377,0.018571134648479655,0.9946565347784074,0.07479255000915878,0.021477501503116777
0.887,0.0025,0.623,0.018499161919990844,0.9946565347784112,0.07440744753259777,0.0214775015031171
0.888,-0.0021,0.623,0.018495768265515265,0.9662208722373176,0.07438928919998238,0.019048543850279667
0.889,0.0023,-0.377,0.018536630717169687,0.9669521659335549,0.07460793078354994,0.019111010529836738
0.89,0.0146,0.623,0.018534936539030454,0.9669521659335549,0.0745988657917002,0.019111010529836738
0.891,0.0161,2.623,0.0184534589199739,0.9369225825631075,0.07416290576153613,0.016545901092567306
0.892,0.0176,-0.377,0.01830199091809613,0.9369225825631075,0.07335245013664,0.016545901092567306
0.893,0.014,-0.377,0.018262292058176675,0.937676726261922,0.07314003455100596,0.016610319605971997
0.894,-0.0049,0.623,0.01820335473355599,0.9354124711610539,0.07282468024737088,0.016416908260367447
0.895,0.0086,-1.377,0.018198890337009197,0.9354124711610565,0.07280079272493538,0.016416908260367673
0.896,0.0205,-0.377,0.018156467260998385,0.9261878458049058,0.07257380075202942,0.01562894616097926
0.897,-0.0132,0.623,0.018180859778567374,0.8947912383510753,0.07270431711736126,0.01294706632653172
0.898,-0.0371,1.623,0.018100228205969255,0.8947912383510753,0.0722728840044514,0.01294706632653172
0.899,-0.0154,0.623,0.01801634008832954,0.9261878458049185,0.07182402618656113,0.01562894616098035
0.9,-0.0194,0.623,0.017908845575034128,0.9376767262619374,0.0712488582839962,0.016610319605973315
0.901,-0.0085,0.623,0.01790884938523759,0.9384302639140817,0.07124887867114589,0.01667468635122611
0.902,0.0013,-0.377,0.017899722634340125,0.9391831969783113,0.07120004441895945,0.016739001452933056
0.903,0.01,-0.377,0.017484538663685947,0.9391831969783102,0.06897853109461444,0.016739001452932962
0.904,0.0075,-0.377,0.016905833720276254,0.9292355970059198,0.06588207064932478,0.015889283284932304
0.905,0.0096,-0.377,0.0161583034142369,0.9284745971142141,0.06188228103172091,0.0158242791195433
0.906,0.0073,-0.377,0.01607959797650949,0.9292355970059226,0.061461154035092495,0.01588928328493254
0.907,-0.0025,-2.377,0.01606205550528868,0.941438383143608,0.0613672900222368,0.01693163813536851
0.908,0.0028,-2.377,0.016060997277680938,0.9421889123273551,0.061361627793208334,0.01699574789901147
0.909,-0.0053,-0.377,0.01605849473175412,0.9749601945852465,0.06134823749032055,0.019795051650719993
0.91,-0.0069,0.623,0.01590449679482898,0.985880874285653,0.06052424501233109,0.020727889719611654
0.911,-0.0034,-0.377,0.015886593859210197,0.985880874285653,0.06042845227264667,0.020727889719611654
0.912,-0.0025,0.623,0.015868453870328317,0.9865975955468329,0.060331391138660526,0.020789111630294354
0.913,-0.0059,0.623,0.015544049945321338,0.9873137965182806,0.0585956120797115,0.020850289098132614
0.914,-0.0086,1.623,0.015483187732502401,0.9764091435145371,0.058269958330330586,0.019918820020290596
0.915,-0.0026,-1.377,0.015420967364387167,0.9653813227332727,0.05793703753717989,0.0189768300229743
0.916,-0.002,0.623,0.014653162063141698,0.9653813227332715,0.053828763066631306,0.018976830022974196
0.917,-0.0134,0.623,0.014723894759370151,0.9653813227332715,0.054207230537065616,0.018976830022974196
0.918,-0.0247,1.623,0.014791912038949907,0.9742349120048637,0.05457116870316111,0.019733098437161326
0.919,-0.0143,0.623,0.014699982157312292,0.9742349120048638,0.05407928204231137,0.019733098437161336
0.92,0.0059,-0.377,0.014705086534474646,0.9735090890754826,0.054106593891226885,0.01967109906730746
0.921,0.0146,0.623,0.014214715885688418,0.9617133211095075,0.051482781299353755,0.018663511470899445
0.922,0.001,-0.377,0.014100977347969583,0.9617133211095065,0.0508742036689703,0.01866351147089936
0.923,0.0128,1.623,0.014587987598841317,0.9617133211095065,0.05348003587318448,0.01866351147089936
0.924,0.0147,0.623,0.014588316410238975,0.9609780407183756,0.05348179523518475,0.018600704250197615
0.925,0.0127,0.623,0.01458788054203362,0.9609780407183756,0.053479463047301085,0.018600704250197615
0.926,0.0035,-0.377,0.014473537142139921,0.9609780407183657,0.05286764899770151,0.018600704250196772
0.927,0.0145,-1.377,0.014526198470074215,0.9727827245875649,0.053149422500419846,0.019609053437840324
0.928,0.022,0.623,0.014469118072806783,0.9609780407183637,0.05284400400632744,0.018600704250196602
0.929,0.0341,0.623,0.014449778488292224,0.972782724587563,0.052740524229353644,0.019609053437840165
0.93,0.0092,0.623,0.0144748306185633,0.9735090890754685,0.05287456996602487,0.019671099067306255
0.931,-0.0091,-0.377,0.014457533834076688,0.9639157970326544,0.052782020542344585,0.01885164567529812
0.932,-0.0321,1.623,0.014290182740463247,0.9646488381922466,0.05188657970025188,0.01891426162215229
0.933,-0.0294,-0.377,0.014163361283954205,0.9973908625986591,0.05120799966017046,0.021711066185310077
0.934,-0.0108,0.623,0.014019311252796419,0.9966819028851425,0.050437235164891125,0.021650507261486485
0.935,-0.004,-0.377,0.013941503599535512,0.9966819028851425,0.05002091191863773,0.021650507261486485
0.936,-0.0107,0.623,0.014016995843827866,0.9858808742856295,0.05042484617052113,0.020727889719609652
0.937,0.0073,0.623,0.014018984752601955,0.9858808742856295,0.05043548816938149,0.020727889719609652
0.9380000000000001,0.012899999999999212,0.623,0.014515855209042798,0.9945519914861634,0.05309407910129423,0.021468571476275233
0.9390000000000001,0.005799999999997724,0.623,0.01511966843306029,0.9938410066567716,0.05632488572530012,0.02140783956823874
0.9400000000000001,-0.014699999999997325,-0.377,0.015187514187086323,0.9945519914861634,0.056687906114385914,0.021468571476275233
0.9410000000000001,0.0093999999999989,0.623,0.015153951443485445,0.9938410066567714,0.056508322875675025,0.02140783956823873
0.9420000000000001,-0.0004999999999997002,0.623,0.015066796246400851,0.9706003696096299,0.05604198398666572,0.01942263795280626
0.9430000000000001,0.0021999999999997005,-1.377,0.014965898798769616,0.9706003696096299,0.05550211481986715,0.01942263795280626
0.9440000000000001,-0.0004999999999992561,0.623,0.014899076990248509,0.9713283660754991,0.05514457322751575,0.019484822984874924
0.9450000000000001,0.006199999999998246,0.623,0.014894037907409374,0.9713283660754991,0.05511761074711946,0.019484822984874924
0.9460000000000001,-0.009600000000001543,-0.377,0.014873569750566267,0.9909919664085829,0.05500809234957607,0.02116447621758429
0.9470000000000001,-0.023500000000000222,-0.377,0.014740413368801034,0.9909919664085829,0.05429561620111844,0.02116447621758429
0.9480000000000001,-0.025499999999998368,-2.377,0.014906649912641715,0.9909919664085829,0.0551850934527408,0.02116447621758429
0.9490000000000001,-0.010799999999998935,1.623,0.014548854159998688,0.9909919664085829,0.05327064567038025,0.02116447621758429
0.9500000000000001,-0.0011999999999998112,0.623,0.014507110392149046,0.9902784256105963,0.053047288452758794,0.021103525980206258
0.9510000000000001,0.0004999999999991008,0.623,0.01440131674797724,0.9902784256105962,0.0524812213433076,0.02110352598020625
0.9520000000000001,-0.007599999999998479,-0.377,0.014408775175564785,1.0215080982267828,0.05252112894436042,0.023771146338517644
0.9530000000000001,0.0061000000000001895,-0.377,0.014450334881404896,1.0326210482340539,0.052743501306506756,0.024720408024499194
0.9540000000000001,0.007799999999999822,-0.377,0.01462554714786797,1.0415817356306933,0.05368100470752466,0.02548582469785075
0.9550000000000001,0.006200000000000466,0.623000000000222,0.014783153979177429,1.0415817356306933,0.05452430719632279,0.02548582469785075
0.9560000000000001,0.01040000000000071,1.623,0.014769772883906329,1.0415817356306933,0.05445270934202163,0.02548582469785075
0.9570000000000001,0.01679999999999959,0.6230000000004441,0.014820654768222332,1.0504659893318293,0.05472496162526291,0.026244712449663744
0.9580000000000001,0.013099999999998146,2.623,0.014861453029335812,1.0228911130985527,0.054943259746288386,0.023889282659481467
0.9590000000000001,-0.003599999999999245,1.622999999999778,0.014920216433708241,0.9945519914861634,0.055257683459688345,0.021468571476275233
0.96,0.0032,0.623,0.015091435080794182,1.0263404968813905,0.05617381831257881,0.024183927003526173
0.961,0.0096,0.623,0.01557375473009339,1.0263404968813905,0.05875455264541769,0.024183927003526173
0.962,0.0037,0.623,0.01558170845936613,1.0270289834251458,0.05879711044342175,0.024242737121170286
0.963,-0.0019,0.623,0.015594996984744616,1.0538251188056025,0.05886821298657314,0.026531647323447743
0.964,-0.0099,0.623,0.01562075060266012,1.0538251188056027,0.059006012153673064,0.026531647323447764
0.965,-0.0114,0.622999999999778,0.015661041259051746,1.0429381316801802,0.05922159424823122,0.025601687254593306
0.966,-0.0238,-0.377,0.01575170346749707,1.0339891990582366,0.05970669800538854,0.024837274667217014
0.967,-0.0158,-1.3769999999993339,0.015872753979590485,1.0339891990582366,0.06035439961369147,0.024837274667217014
0.968,-0.0053,1.623,0.015967575826806815,1.0339891990582366,0.06086176023432954,0.024837274667217014
0.969,0.0038,-0.377,0.015786061816388787,1.0235819197858786,0.0598905382672011,0.023948290962431562
0.97,0.0227,-0.377,0.01573229127567328,1.0228911130985527,0.05960282973050464,0.023889282659481467
0.971,0.047,-0.37699999999977796,0.015726954338390813,1.0319362926069844,0.059574273528622594,0.024661916599574934
0.972,0.0373,0.623,0.015714445066359595,1.0312510822990195,0.059507340514683205,0.024603386336074683
0.973,0.0047,-0.377,0.015796765774632304,1.0312510822990195,0.05994781163886749,0.024603386336074683
0.974,0.0004,-0.377,0.015749621196296013,1.0312510822990195,0.05969555645478686,0.024603386336074683
0.975,-0.0036,-1.3769999999993339,0.015680831167612277,1.0579402832737077,0.05932748356155303,0.026883162263992694
0.976,0.0146,1.623,0.01563285165893235,1.057271926098818,0.059070760938904454,0.02682607158525675
0.977,-0.0016,-0.3769999999995559,0.015656521981725992,1.0579402832737077,0.05919741307673813,0.026883162263992694
0.978,-0.0045,1.623,0.015595394109700934,1.0497928736119093,0.05887033787203175,0.026187215298796165
0.979,0.009,0.622999999999778,0.01545038330370919,1.0497928736119093,0.058094432585570205,0.026187215298796165
0.98,0.0022,-0.377,0.015066053673265764,1.0793018632428315,0.056038010721244855,0.028707855923502786
0.981,-0.009,0.6230000000004441,0.015154761823242163,1.078646742331751,0.05651265895210035,0.028651895878675157
0.982,-0.0187,2.623,0.015466205533926492,1.0872281625704654,0.05817909215273319,0.029384915773355544
0.983,-0.0131,-0.377,0.015266137257703004,1.0766789878943737,0.0571085923916058,0.0284838114462247
0.984,-0.0083,-0.377,0.015147590298856435,1.077335305385376,0.05647428647602991,0.028539873702208975
0.985,-0.0157,0.622999999999778,0.0152465445998736,1.077335305385376,0.057003758502284944,0.028539873702208975
0.986,0.0048,-0.377,0.015519863817244042,1.0779912232881816,0.05846620003689258,0.028595901825603336
0.987,0.0376,-1.376999999999778,0.01549063533183146,1.0779912232881816,0.058309807992921896,0.028595901825603336
0.988,0.0422,-0.377,0.016255836722078473,1.077335305385376,0.06240414978931312,0.028539873702208975
0.989,0.0144,0.623,0.01674761246911628,1.077335305385376,0.06503548060132124,0.028539873702208975
0.99,-0.0109,-0.377,0.016737051916004046,1.077335305385376,0.06497897454350231,0.028539873702208975
0.991,-0.0009,-1.377,0.01668771153025962,1.0859270891608022,0.06471497031379453,0.029273778844130214
0.992,-0.0036,-0.377,0.016660507030144163,1.0852759675385355,0.06456940795166045,0.02921816041621256
0.993,-0.0009,0.623,0.016927472504638854,1.0852759675385355,0.06599785269097827,0.02921816041621256
0.994,-0.0029,0.623,0.01698654012891599,1.077335305385376,0.06631390418536114,0.028539873702208975
0.995,0.0038,-2.377,0.01709302667195666,1.077335305385376,0.0668836787695185,0.028539873702208975
0.996,-0.0058,-0.377,0.017083290118128053,1.0766789878943737,0.06683158166174873,0.0284838114462247
0.997,-0.0259,0.623,0.017119884201517506,1.0766789878943737,0.06702738460595627,0.0284838114462247
0.998,-0.0178,1.623,0.01699454685291244,1.0852759675385355,0.06635674554075943,0.02921816041621256
0.999,-0.0107,-0.377,0.01764010946303935,1.0693356791685664,0.06981093944385308,0.027856550312395974
1.0,-0.0082,0.623,0.017981294128417948,1.0592757325108275,0.07163650674358892,0.026997235556281574
1.0010000000000001,-0.009699999999995426,2.623,0.018254010905484768,1.0673507591102622,0.07309572481761953,0.027686999602651793
1.002,0.0109,1.623,0.01826951688006495,1.077335305385376,0.07317869220454093,0.028539873702208975
1.0030000000000001,0.024599999999999577,-1.377,0.018257206086517385,1.0779912232881816,0.07311282118390378,0.028595901825603336
1.004,0.0227,-0.377,0.018321389268268953,1.0885276808604583,0.07345624434938704,0.02949591986516873
1.0050000000000001,0.007299999999995159,-0.377,0.018413596019699937,1.0891768585753172,0.07394961244973963,0.02955137224565325
1.006,-0.0145,-1.377,0.018641523480682806,1.089176858575316,0.07516917757591673,0.029551372245653157
1.0070000000000001,-0.01140000000000051,-0.377,0.01866920810409851,1.07864674233175,0.07531730892043988,0.02865189587867508
1.008,-0.0137,-0.377,0.018597465471294556,1.077991223288178,0.07493343761046022,0.028595901825603034
1.0090000000000001,0.023100000000003507,2.623,0.018551850103208967,1.0477709318914592,0.07468936472913638,0.026014502220337687
1.01,0.0389,0.623,0.018571702107683878,1.03682037557313,0.07479558629734019,0.025079112108227785
1.0110000000000001,0.005799999999997157,0.623,0.018611703704858016,1.0361383951707694,0.07500962173078289,0.025020857741374015
1.012,-0.007,-2.377,0.018589940955243543,1.0464208002537059,0.07489317639170402,0.025899174765979287
1.0130000000000001,-0.010800000000000755,0.623,0.01885357291756747,1.045745080766368,0.07630378460016408,0.025841455202822675
1.014,-0.0142,-0.377,0.01904729540979242,1.045745080766368,0.07734033015134462,0.025841455202822675
1.0150000000000001,-0.017200000000000576,-0.377,0.020471500801635692,1.0539237825544883,0.08496078633032163,0.02654007512313651
1.016,-0.0198,0.623,0.02090777056853159,1.0532528766528075,0.0872951228381619,0.026482766733649677
1.0170000000000001,-0.021999999999994004,0.623,0.02123123838883828,1.0532528766528075,0.0890258931077268,0.026482766733649677
1.018,0.005,0.623,0.021404238578715155,1.044392330225563,0.089951560412079,0.025725904043298272
1.0190000000000001,-0.00569999999999778,-0.377,0.021489876790235285,1.0340897553778556,0.09040978240862016,0.024845864129190223
1.02,0.0043,-1.377,0.021507450814363813,1.0340897553778556,0.09050381525074162,0.024845864129190223
1.0210000000000001,0.013200000000000621,-0.377,0.021466898087001054,1.043037825258933,0.09028683090032714,0.02561020302174662
1.022,0.016,-0.377,0.020966852994559915,1.043715297472177,0.08761125353186318,0.025668072301724392
1.0230000000000001,0.004199999999998579,1.623,0.020703386781769258,1.043715297472177,0.08620153219482081,0.025668072301724392
1.024,-0.0022,-2.377,0.020723061388359682,1.043715297472177,0.08630680456509804,0.025668072301724392
1.025,0.0037,-0.377,0.020726559262178933,1.043715297472177,0.08632552054125699,0.025668072301724392
1.026,0.0092,0.623,0.020724907258277712,1.034773085963296,0.08631668120992961,0.0249042338278925
1.027,0.0047,0.623,0.020673944319012857,1.0236834984119385,0.08604399522822787,0.023956967749222666
1.028,0.0062,0.623,0.020685101590633345,1.0236834984119405,0.0861036941311725,0.023956967749222836
1.029,-0.0002,2.623,0.020690276890095678,1.0124724541476713,0.08613138546206596,0.022999326909216276
1.03,-0.019,-0.377,0.02067175185211592,1.0229927603186444,0.0860322640565811,0.023897965305534622
1.031,-0.0323,-1.377,0.020680490722443722,1.023683498411936,0.0860790228869915,0.023956967749222458
1.032,-0.0203,-0.377,0.020871819320606305,1.0505649685532301,0.08710275949579344,0.02625316719683012
1.033,-0.0224,0.623,0.020896535854496107,1.0202251313500132,0.08723500956624125,0.023661556058735597
1.034,-0.0205,0.623,0.020940491580735552,1.0209177419825266,0.08747020224809823,0.02372071845362788
1.035,-0.0294,0.623,0.020936162725257303,1.032037048951143,0.08744703996148842,0.024670523147527258
1.036,-0.0047,0.623,0.020899251343984484,1.0313519055837528,0.08724953926032131,0.024611998602051717
1.037,0.0497,-0.377,0.020924219603779243,1.0313519055837528,0.08738313623356757,0.024611998602051717
1.038,0.0422,0.623,0.020643395463080583,1.0223015555147086,0.08588053831444067,0.023838922995696697
1.039,-0.0001,0.623,0.02051992199450702,1.0229927603186357,0.08521987226028864,0.02389796530553388
1.04,0.0067,-1.377,0.020493927834965266,1.0229927603186357,0.08508078603379929,0.02389796530553388
1.041,0.0005,-0.377,0.02056170444059744,1.0229927603186366,0.08544343643249729,0.023897965305533956
1.042,0.0298,0.623,0.020561836226334097,1.0229927603186366,0.08544414157477308,0.023897965305533956
1.043,0.0142,0.623,0.020559377351003917,1.0229927603186375,0.08543098493893213,0.023897965305534032
1.044,-0.0192,0.623,0.020617234353082155,1.0313519055837574,0.08574055879078615,0.024611998602052116
1.045,0.0025,-0.377,0.02065924605910968,1.0396438422066203,0.0859653496577639,0.025320290975681163
1.046,0.0145,-0.377,0.020670399477936308,1.011774062304051,0.08602502794567157,0.02293967068665458
1.047,-0.011,-1.377,0.020668118896325385,1.011774062304051,0.0860128253010754,0.02293967068665458
1.048,-0.0538,1.623,0.020568953030104233,1.0110751880521511,0.0854822212587676,0.022879973257059965
1.049,-0.0366,0.623,0.020497266925863532,0.9997227622604138,0.08509865241459913,0.02191025568971789
1.05,-0.0316,-1.377,0.02048121833484251,1.0110751880521494,0.08501278166497941,0.022879973257059812
1.051,-0.0077,1.623,0.020484954551274734,1.0110751880521518,0.08503277293432862,0.02287997325706002
1.052,-0.0034,0.623,0.02046401952357781,1.0110751880521518,0.08492075646389272,0.02287997325706002
1.053,0.0164,1.623,0.020495535687650647,1.0110751880521485,0.08508938912644405,0.022879973257059736
1.054,0.0199,0.623,0.020472349965203473,1.0025469916207344,0.08496532992620613,0.022151499708850737
1.055,0.0296,0.623,0.02062738920084986,1.0138677945969425,0.08579489405230192,0.023118516073796953
1.056,0.0145,-0.377,0.021364906280541267,1.0138677945969425,0.08974110617818183,0.023118516073796953
1.057,-0.0046,-0.377,0.021446294723539382,1.004659953505371,0.09017658905649027,0.022331987676466238
1.058,-0.0026,-0.377,0.02141754668581766,1.0053632872916949,0.09002276773061646,0.02239206603688149
1.059,-0.0094,-0.377,0.021382344394149787,1.0145647451875124,0.08983441180766394,0.023178049185366548
1.06,0.0125,-0.377,0.021276582164686673,0.9831145343571646,0.08926851278802081,0.020491590581867235
1.061,0.0036,1.623,0.020915250634371215,0.9918098371921881,0.08733514621840831,0.021234338261276752
1.062,-0.0318,-0.377,0.020909172639783945,0.9918098371921881,0.08730262486181634,0.021234338261276752
1.063,-0.0273,0.623,0.0209055835244053,0.9632901457613099,0.0872834206819832,0.018798202909850206
1.064,-0.0758,-1.377,0.020892812975604278,0.9953669370809657,0.08721508966169848,0.021538183652052064
1.065,-0.0441,-0.377,0.02089348799344616,0.9953669370809648,0.08721870146089089,0.021538183652051988
1.066,0.0437,-0.377,0.020859796945192594,0.9960768327245091,0.08703843170604338,0.021598822522470817
1.067,0.0312,-0.377,0.020792304290694712,1.0046599535053506,0.08667730063678215,0.022331987676464493
1.068,0.0197,0.623,0.020708839703180316,1.0152612173396176,0.08623070898975388,0.023237541429002487
1.069,0.0094,-0.377,0.020704009534827407,1.0257529218532457,0.08620486434228854,0.02413373668848899
1.07,0.0185,-1.377,0.020754870262000423,1.02644180251343,0.08647700342059328,0.024192580471327826
1.071,0.0099,0.623,0.020850601904991328,1.0285056760741118,0.08698923206017839,0.024368875343039085
1.072,0.0173,0.623,0.020871171776834195,1.0395438231405942,0.08709929470134202,0.02531174740559544
1.073,0.0101,-0.377,0.020847624140269055,1.0395438231405942,0.08697329901729894,0.02531174740559544
1.074,0.0037,-0.377,0.02093084973158736,1.0285056760741118,0.08741861187402797,0.024368875343039085
1.075,-0.0024,-0.377,0.020962780675894476,1.0010320062247318,0.08758946388964264,0.022022090542940166
1.076,0.0024,-0.377,0.02098887084291425,1.0017378872453913,0.0877290638206744,0.02208238648662165
1.077,0.0068,-0.377,0.020969369556771762,1.0010320062247318,0.08762471883129742,0.022022090542940166
1.078,-0.0065,-0.3769999999995559,0.020997817776857435,1.0003256270983778,0.0877769359312848,0.021961752051361763
1.079,-0.0028,1.623,0.02112904035897248,1.008872601331142,0.08847906495173857,0.02269182958837274
1.08,-0.0066,0.6229999999993339,0.021137708873316983,0.9765156291360725,0.08852544733034595,0.019927915959763492
1.081,-0.0297,-2.377,0.02117391737173387,0.9772392190265228,0.08871918713576497,0.019989724584738737
1.082,-0.0213,0.623,0.021071902689690683,0.9794067811554166,0.08817334001387181,0.020174876473264935
1.083,-0.0189,0.623,0.02113896590149356,0.9794067811554166,0.08853217327604887,0.020174876473264935
1.084,-0.0071,1.622999999999556,0.021042305982286586,0.9881347116967993,0.08801497773473241,0.020920411192256922
1.085,-0.0095,-0.377,0.020945197165066928,0.9989113703010221,0.0874953802873046,0.021840947063398133
1.086,-0.0115,-0.377,0.0207440654913583,0.9982034905068791,0.08641919063482954,0.02178048038565543
1.087,0.0159,-0.377,0.02077820321477818,0.998203490506879,0.08660185040206617,0.021780480385655422
1.088,0.0357,0.623,0.020373833869919363,0.998911370301022,0.08443820259517922,0.021840947063398126
1.089,0.0101,0.623,0.020163156174245207,1.0074703425925589,0.08331093530847494,0.022572049467567835
1.09,0.0197,-0.37700000000022205,0.020281164912064248,1.0067684808072903,0.08394236137976828,0.022512096844621264
1.091,-0.0012,-1.377,0.020294487976589535,1.0067684808072903,0.08401364873057182,0.022512096844621264
1.092,0.0012,-0.37700000000022205,0.02029465823091982,1.0180423411922104,0.08401455970568164,0.023475103400891893
1.093,-0.0156,-1.377,0.020073874857386792,1.0173477729879632,0.08283322024952522,0.02341577379136774
1.094,-0.0136,-1.376999999999778,0.020054139609000737,1.0173477729879632,0.08272762340487874,0.02341577379136774
1.095,-0.008,-0.377,0.020017128403307025,1.0278181786970482,0.08252958857595916,0.02431014971943488
1.096,0.0046,-0.377,0.020093958177754175,1.0285056760741118,0.08294067951324134,0.024368875343039085
1.097,0.0158,-0.377,0.0200816817620414,1.0285056760741118,0.08287499243712865,0.024368875343039085
1.098,-0.0043,-0.3769999999995559,0.020203312580182042,1.019430057911387,0.08352579907285854,0.023593641350909536
1.099,-0.0069,1.623,0.01993727458447648,1.0081717157608205,0.08210231696850191,0.022631960353135635
1.1,-0.0091,0.6230000000004441,0.01992101552051274,1.0074703425925589,0.08201532004716144,0.022572049467567835
1.101,-0.0025,2.623,0.019881621925846516,0.998203490506879,0.08180453783582757,0.021780480385655422
1.102,0.0157,1.622999999999778,0.01992346283420932,0.9874191061568376,0.08202841482049104,0.020859284585827725
1.103,0.0226,0.623,0.019941794439500386,0.9874191061568376,0.08212650123106845,0.020859284585827725
1.104,0.0339,1.622999999999556,0.020036556105884694,0.9765156291360724,0.08263353984380242,0.01992791595976348
1.105,0.056,-0.377,0.020344169886006947,0.9874191061568376,0.0842794803414979,0.020859284585827725
1.106,0.0234,-0.37699999999977796,0.02048385467776732,0.998203490506879,0.08502688787174309,0.021780480385655422
1.107,0.0017,0.623,0.02059931912978339,1.02644180251343,0.08564470030375422,0.024192580471327826
1.108,0.0056,-1.376999999999556,0.020688957825980434,1.0354559655970266,0.08612432758239141,0.024962565006563638
1.109,0.0093,0.623,0.020734461896522765,1.0354559655970266,0.08636780494704603,0.024962565006563638
1.11,-0.0005,-1.376999999999556,0.020714179389365806,1.0354559655970266,0.08625927990011488,0.024962565006563638
1.111,-0.0033,0.623,0.02072056796839786,1.0354559655970266,0.08629346309225734,0.024962565006563638
1.112,-0.0058,0.6230000000004441,0.02072076327827272,1.025063578239868,0.08629450813137264,0.02407485336045932
1.113,-0.0079,2.623,0.02049891659634863,1.025063578239868,0.08510747926058176,0.02407485336045932
1.114,-0.0143,-0.37699999999977796,0.020502912015617637,1.0334059729461722,0.0851288574393406,0.024787455834046297
1.115,-0.0124,0.623,0.019285445592934543,1.025063578239868,0.07861459371265657,0.02407485336045932
1.116,-0.0104,-1.3769999999993339,0.01912276404758,1.0340897553778268,0.07774413809255946,0.024845864129187756
1.117,-0.0116,1.623,0.018925844242842143,1.0340897553778268,0.0766904847702424,0.024845864129187756
1.118,0.0024,1.623,0.018788475673049122,1.0340897553778268,0.07595547058445729,0.024845864129187756
1.119,0.0154,0.623,0.018686008225399616,1.0423599127289365,0.07540720086222706,0.025552296130169547
1.12,0.0203,1.623,0.019151650747001286,1.0694329119450077,0.07789870135173257,0.02786485587925598
1.121,0.0161,1.623,0.019434718214730175,1.0694329119450077,0.07941330257840688,0.02786485587925598
1.122,0.0126,-0.377,0.019458777418857914,1.0687717417178608,0.07954203549277902,0.027808379105390215
1.123,0.019,-0.377,0.019396310546282262,1.0945464284921786,0.07920779573506795,0.030010037765514377
1.124,0.0116,0.623,0.01937325955081533,1.1030041554175738,0.07908445741473608,0.030732491849760155
1.125,0.011,0.623,0.01942630692849791,1.1030041554175738,0.07936829654310544,0.030732491849760155
1.1260000000000001,-0.0025000000000021316,-0.377,0.0196732274679215,1.1931834532674255,0.08068948740584436,0.038435554696400594
1.127,-0.0121,-0.377,0.019676618965503174,1.2198065030654757,0.08070763419762753,0.04070968002952389
1.1280000000000001,-0.024499999999995938,-1.377,0.01971164880218501,1.229127877575772,0.08089506737048273,0.04150590638503883
1.129,-0.0062,-0.377,0.019772455520266616,1.2297028326756325,0.08122042418571607,0.04155501871318755
1.1300000000000001,-0.022700000000000446,0.623,0.01993249050331767,1.2209649214592229,0.08207671891850422,0.04080863145077576
1.131,-0.0247,1.623,0.019996555640231832,1.220964921459226,0.08241951046475914,0.040808631450776026
1.1320000000000001,-0.026399999999996246,-0.377,0.01980349087888759,1.1979133905268693,0.08138648421590869,0.03883958316899778
1.133,-0.0095,-1.377,0.01978507351549595,1.2209649214592257,0.08128793894184773,0.040808631450776005
1.1340000000000001,-0.0027000000000003553,1.623,0.019836326422782817,1.2209649214592257,0.08156217644738001,0.040808631450776005
1.135,-0.0043,-0.377,0.019925302940756656,1.2115807463478652,0.08203826062741534,0.04000704070467099
1.1360000000000001,0.01260000000000353,0.623,0.019905097775115167,1.2115807463478652,0.08193014940957993,0.04000704070467099
1.137,0.0285,0.623,0.01987988511420404,1.2209649214592315,0.08179524472607778,0.0408086314507765
1.1380000000000001,0.030499999999998046,-1.377,0.019903498604241527,1.2302775190773199,0.08192159277046379,0.04160410808929555
1.139,0.0217,-0.377,0.01968870822309283,1.2297028326756414,0.08077231985197625,0.041555018713188306
1.1400000000000001,0.009899999999997536,-1.377,0.019749306116974383,1.23666552558782,0.08109655931737035,0.04214976786696494
1.141,-0.0012,1.623,0.019689346523109413,1.2372369778801253,0.08077573518612205,0.04219858098734223
1.1420000000000001,-0.0025000000000019763,-0.377,0.019704720460303374,1.230277519077319,0.08085799608427333,0.041604108089295475
1.143,-0.0114,0.623,0.019820703572839125,1.2308519371571829,0.08147858369870171,0.04165317454551035
1.1440000000000001,-0.01480000000000069,1.623,0.01978442619072999,1.2232784672592494,0.08128447531922643,0.04100625317905599
1.145,-0.0179,0.623,0.019739092124229127,1.2162391388922007,0.08104190759046818,0.04040495786957378
1.1460000000000001,-0.013000000000002619,-0.377,0.019764652193375858,1.242368220272431,0.08117867114155417,0.042636888709532396
1.147,-0.0248,-0.377,0.01981395325450395,1.2429370506986412,0.08144246495813104,0.04268547787164224
