time_sec,bts_raw,diy_raw,bts_rms,diy_rms,bts_norm_rms,diy_norm_rms
0.0,-0.0437,1.556,0.04768581135409032,0.7650183486429416,0.2050400135654891,0.0
0.001000000000000112,-0.0227,0.556,0.04759867695019798,0.7795371390975425,0.2045264677159085,0.005223473710250289
0.0020000000000000018,-0.0288,0.556,0.047793283997437735,0.8185677972546861,0.20567342732020666,0.01926566389235313
0.0030000000000001137,-0.023,-0.444,0.047926891494787335,0.8200782317415799,0.20646087260785123,0.01980907795001969
0.0040000000000000036,0.014,1.556,0.047855077882111616,0.8216163117005431,0.20603762322430608,0.020362438111462128
0.0050000000000001155,-0.0002,1.556,0.047865623743470836,0.8351517473635626,0.2060997775868696,0.02523212698559018
0.006000000000000005,-0.0045,1.556,0.04786194816680918,0.83666211734512,0.2060781147642061,0.02577551783595652
0.007000000000000117,0.0155,0.556,0.04817716883669454,0.8381697656658982,0.20793593738638946,0.02631792950533855
0.008000000000000007,0.0119,-0.444,0.04835109334289449,0.8396449389774432,0.20896099986813552,0.02684865753223671
0.009000000000000119,0.0088,0.5560000000000018,0.048353354875471086,0.841147240990804,0.2089743287097471,0.02738914574275147
0.010000000000000009,0.0237,1.556,0.04841954779793998,0.8426468646487977,0.2093644513144477,0.027928670352414618
0.01100000000000012,0.0643,-0.444,0.04836768601358477,0.8790214877819859,0.2090587924366941,0.041015289947248706
0.01200000000000001,0.1054,-1.444,0.04842285351969864,0.8804282159588387,0.20938393431557234,0.04152139323954676
0.013000000000000123,0.0576,-0.4439999999999983,0.04861306327166246,0.8818327000800499,0.21050497748919034,0.04202668918045524
0.014000000000000012,0.013,0.556,0.04863432651816618,0.9165173202948644,0.21063029712762027,0.05450529078357202
0.015000000000000124,-0.028,-0.444,0.04796811829542844,0.9178665839186471,0.20670385186076362,0.05499071986177682
0.016000000000000014,-0.033,1.556,0.04690588590669869,0.9192410583467724,0.2004433507251125,0.05548521911522178
0.017000000000000126,-0.057,0.556,0.04693391965791779,0.9314393006677898,0.2006085738280849,0.059873821476715695
0.018000000000000016,-0.0876,0.556,0.046083852047706056,0.9327669796377382,0.19559851266296188,0.06035148497195405
0.019000000000000128,-0.0358,0.556,0.04494335898567651,0.9341195297061914,0.18887676496839526,0.06083809642532917
0.020000000000000018,-0.0007,0.556,0.043494088191123825,0.9460467077531237,0.18033516752566142,0.06512917708803564
0.02100000000000013,-0.0069,0.556,0.043349410555158376,0.9578253759023783,0.17948247793167516,0.06936682784908073
0.02200000000000002,-0.001,0.556,0.04337472756963929,0.9694609472250753,0.17963168934679555,0.07355299618713189
0.02300000000000013,-0.006,-1.444,0.04314050566987926,0.9809585137336584,0.17825125086177104,0.07768951407250481
0.02400000000000002,-0.0013,-1.444,0.04293049810781629,0.9923228724253795,0.17701352492275804,0.0817781073369147
0.025000000000000133,0.003,0.556,0.0428030324977165,1.0035585486709602,0.17626227820381696,0.08582040408809315
0.026000000000000023,0.015,-0.44400000000000345,0.04318390236666958,1.004815813015784,0.17850701887677595,0.08627273427858373
0.027000000000000135,0.0043,-1.444,0.04356763417204684,1.0159871384838384,0.1807686270039981,0.09029187933570794
0.028000000000000025,0.0206,-0.444,0.043313731936464685,1.0172290415833525,0.17927219811416986,0.09073868295969265
0.029000000000000137,0.0652,-1.444,0.042749464035981795,1.0184694303299402,0.17594656064607403,0.09118494175986963
0.030000000000000027,0.059,0.556,0.042391302868713454,1.0196837980426092,0.1738356587208268,0.09162183888580709
0.03100000000000014,0.0297,-0.444,0.04259807650134513,1.0306939873059353,0.17505432478264904,0.09558301143263166
0.03200000000000003,-0.0073,1.556,0.04277391291095106,1.0319181910135198,0.17609065548928768,0.09602344728729557
0.03300000000000014,-0.0213,2.556,0.042704187754696976,1.0331167506233856,0.17567971488481773,0.096454657079315
0.03400000000000003,0.027,1.556,0.04219596300429695,1.0343139213472041,0.17268438009668327,0.09688536718716463
0.03500000000000014,0.0716,-0.444,0.04201447236537835,1.0355097080021212,0.17161472494107402,0.09731557934392511
0.03600000000000003,0.0891,-0.444,0.041673200220950606,1.0367041153775005,0.16960336220122108,0.09774529527268183
0.037000000000000144,0.0735,-0.444,0.04155466179642623,1.047535426760667,0.1689047298216901,0.10164211232740937
0.038000000000000034,0.0014,-1.444,0.041587264140972566,1.0487399714870507,0.16909687893823258,0.1020754754047787
0.039000000000000146,-0.0922,0.556,0.04160068172680277,1.0499431343033143,0.1691759584430744,0.10250834130773084
0.040000000000000036,-0.1549,1.556,0.04160503052163077,1.0511449199547487,0.16920158902565524,0.10294071174349494
0.04100000000000015,-0.1437,0.556,0.04161829368156479,1.0618289364227562,0.16927975838737896,0.10678453601487792
0.04200000000000004,-0.0712,0.556,0.041538890903432546,1.062993771241718,0.16881178058144403,0.10720361252628954
0.04300000000000015,-0.0052,0.5559999999999862,0.0415539551236881,1.0734900256503073,0.16890056488986677,0.11097988501474543
0.04400000000000004,0.0032,-1.444,0.04154782259163948,1.0838846399145554,0.16886442145810723,0.11471959008916412
0.04500000000000015,0.042,-1.444,0.04154650607313919,1.085025796982133,0.16885666226562396,0.11513014797691636
0.04600000000000004,0.0209,-1.444,0.04160957130317449,1.0953109410522295,0.169228351124338,0.11883046859413832
0.04700000000000015,0.027,-1.444,0.04134904402655987,1.0964402058766032,0.16769287609230252,0.11923674796985292
0.04800000000000004,-0.0139,-0.444,0.04138086670036037,1.097568308824893,0.1678804300471445,0.11964260933353014
0.049000000000000155,-0.0509,1.556,0.04132666774427137,1.0987180029528703,0.1675609965317044,0.12005623862800177
0.050000000000000044,-0.0075,-1.444,0.04119406674136252,1.099843769581276,0.16677948324129152,0.12046125944607486
0.051000000000000156,0.0454,-2.443999999999986,0.04099675094688759,1.0906907570364532,0.16561655903704142,0.11716824956712026
0.052000000000000046,0.0386,-0.44399999999999307,0.040959866445911604,1.090667840124917,0.16539917208603325,0.11716000467335284
0.05300000000000016,-0.006,0.556,0.04087281877159809,1.0906449227318447,0.16488613739637628,0.11715175960634157
0.05400000000000005,0.0114,-1.444,0.04115388103464758,1.0998210433905828,0.16654263990531804,0.12045308316858186
0.05500000000000016,-0.015100000000009682,0.556,0.041950073576862146,1.0906678401249164,0.17123517646098824,0.11716000467335261
0.05600000000000005,-0.0587,0.556,0.042657542980862544,1.0905990865009703,0.175404803610542,0.11713526895254378
0.05700000000000016,-0.041499999999989386,-0.444,0.042724887617106605,1.108695813768931,0.1758017140946877,0.1236459889344419
0.05800000000000005,0.0063,0.556,0.04270989046403746,1.135366212929887,0.17571332506153725,0.13324128747496103
0.05900000000000016,-0.025699999999998537,0.5560000000000139,0.04305249208424334,1.161445847837407,0.1777325233604516,0.14262404478786017
0.06000000000000005,-0.0191,2.556,0.04502264659410307,1.161445847837407,0.18934406399623901,0.14262404478786017
0.061000000000000165,0.033900000000004704,-0.444,0.04608494662118806,1.2037676011019538,0.19560496377347203,0.15785028324348888
0.062000000000000055,0.0551,-0.444,0.046207811755647116,1.21208762780038,0.19632909657338848,0.1608436070237104
0.06300000000000017,0.061499999999990916,-2.444,0.04523301855266009,1.2285586585404669,0.19058393758645245,0.16676944473867675
0.06400000000000006,0.0206,-0.444,0.044868674159535875,1.236711913696456,0.18843659345429892,0.16970276856433852
0.06500000000000017,0.02569999999999032,0.556,0.04493960478045178,1.2447916883883625,0.18885463873093322,0.1726096560781359
0.06600000000000006,-0.0179,1.556,0.04485457229767739,1.244811767892138,0.1883534810175887,0.17261688014824103
0.06700000000000017,-0.01219999999999889,-0.444,0.0447566767322636,1.2367119136964562,0.1877765118863978,0.1697027685643386
0.06800000000000006,-0.0072,0.556,0.04440363707717683,1.2367119136964562,0.18569579472407927,0.1697027685643386
0.06900000000000017,0.0069000000000028865,-1.444,0.04355578703022142,1.2366917026796738,0.1806988032576699,0.16969549717935992
0.07000000000000006,0.0199,-1.444,0.04341722063201751,1.2447716085606828,0.1798821315928602,0.17260243189149863
0.07100000000000017,0.016000000000007238,-1.444,0.04341891048818674,1.2447515284090835,0.17989209113333254,0.17259520758832375
0.07200000000000006,0.0486,-1.444,0.04341369874695072,1.2447515284090835,0.17986137458554788,0.17259520758832375
0.07300000000000018,-0.008200000000001689,-1.444,0.04344321255288777,1.2447515284090838,0.18003532071781303,0.1725952075883238
0.07400000000000007,-0.0158,-1.444,0.043445317661785166,1.2367119136964557,0.18004772764193117,0.16970276856433844
0.07500000000000018,-0.06499999999999863,0.556,0.043449547554401904,1.2286196919636074,0.18007265744807505,0.16679140293706926
0.07600000000000007,-0.0588,1.556,0.04353960192665503,1.2285993478261128,0.1806034127759513,0.16678408365880754
0.07700000000000018,0.005700000000001865,0.556,0.043556255652632415,1.2286196919636074,0.1807015651873261,0.16679140293706926
0.07800000000000007,0.0141,0.556,0.04360832562396799,1.2204738167952434,0.1810084510610185,0.16386073423419212
0.07900000000000018,0.037300000000001554,-0.444,0.043561870889112383,1.2204738167952434,0.18073465982342718,0.16386073423419212
0.08000000000000007,0.0443,1.556,0.043088154387825185,1.212273206618355,0.17794270702124268,0.1609103733345751
0.08100000000000018,-0.03939999999999245,0.556,0.04271135754089504,1.2122525881526298,0.17572197160294423,0.16090295536033006
0.08200000000000007,-0.0054,-0.444,0.042614248733724505,1.2368129638262806,0.17514963940518485,0.1697391237068834
0.08300000000000018,0.004699999999997891,-0.444,0.04263818808465177,1.2528991569518866,0.17529073125594843,0.17552650710857612
0.08400000000000007,-0.0048,-0.444,0.042756483085604674,1.2367523347391542,0.17598792896491033,0.16971731097780857
0.08499999999999996,0.0035,-0.444,0.043163339951579435,1.2366917026796733,0.17838582974303327,0.16969549717935975
0.08600000000000008,-0.0042,1.5559999999999863,0.04300550830358687,1.2447314479335492,0.17745561407461372,0.17258798316860566
0.08699999999999997,0.0167,0.556,0.042564482450342514,1.2685646997574662,0.17485633082512672,0.1811625517403667
0.08800000000000008,0.0104,0.556,0.04255930052557871,1.276403700820689,0.17482579000730486,0.18398281532199257
0.08899999999999997,-0.0073,0.556,0.04268573790266147,1.2685844029755176,0.17557097660791487,0.1811696404329007
0.09000000000000008,-0.0127,1.556,0.04204614970574302,1.2764624465587502,0.17180142234122067,0.18400395047228704
0.09099999999999997,0.0012,-0.444,0.03933051295888279,1.29205509459804,0.155796217530939,0.18961376951066333
0.09200000000000008,-0.0119,-1.444,0.03675517642645646,1.2920550945980398,0.14061790301426424,0.18961376951066325
0.09299999999999997,-0.016,-1.444,0.03660040942728263,1.292035749302143,0.13970574953036632,0.18960680958897763
0.09400000000000008,0.0022,-0.444,0.03770973208708798,1.2920164037165898,0.1462437875766547,0.18959984956308135
0.09499999999999997,0.0321,-1.444,0.03827514513508403,1.2842921659329505,0.1495761742244806,0.18682087474966802
0.09600000000000009,0.0123,-0.444,0.038482248532126485,1.2765016088821626,0.1507967838256734,0.18401804003211755
0.09699999999999998,0.0161,-0.444,0.03860353966314312,1.2921518167331376,0.1515116398887446,0.18964856755609702
0.09800000000000009,0.0064,0.556,0.03851151639834128,1.2922098465391552,0.15096928045787922,0.18966944513313014
0.09899999999999998,-0.0142,-0.444,0.0385609603120401,1.2922291892287323,0.1512606890810268,0.18967640411713144
0.10000000000000009,-0.0167,0.556,0.038271328160999686,1.2844283932904736,0.1495536780448844,0.18686988572085492
0.10099999999999998,-0.0145,-0.444,0.03833497975979813,1.2766582461625142,0.1499288227973808,0.18407439394937536
0.10200000000000009,0.0102,-0.44399999999997225,0.03807677085288421,1.25299890163589,0.14840701158909808,0.1755623925865199
0.10299999999999998,0.053,1.5559999999999863,0.03787939582798425,1.2530188496198875,0.14724373829725934,0.1755695693393155
0.10400000000000009,0.0824,0.5559999999999723,0.03823521944304226,1.2530188496198875,0.1493408633423976,0.1755695693393155
0.10499999999999998,0.0772,-1.444,0.03868378364554509,1.2530188496198875,0.15198457551779038,0.1755695693393155
0.1060000000000001,0.0242,-2.444,0.03873231095940848,1.2999447209380666,0.15227058195741247,0.19245224671712835
0.10699999999999998,-0.011,-2.444,0.03832961905888612,1.2999254930544089,0.14989722832285374,0.19244532903723596
0.1080000000000001,-0.0557,-2.444,0.038178923775227705,1.307576497758639,0.14900907239342576,0.19519795654119468
0.10899999999999999,-0.1322,0.556,0.03844641132602631,1.3151639888191695,0.15058556933827014,0.19792773352953053
0.1100000000000001,-0.1014,3.556,0.03947115332859882,1.3151639888191693,0.15662511260481118,0.19792773352953047
0.11099999999999999,-0.0729,1.556,0.040323865657330836,1.292113128747924,0.16165076100251666,0.18963464865050375
0.1120000000000001,-0.0474,2.556,0.040318550417608234,1.2998678076969012,0.16161943446354773,0.19242457538359314
0.11299999999999999,0.0072,1.556,0.04002141567006751,1.2998870364338388,0.15986820521827438,0.1924314933704729
0.1140000000000001,0.0283,1.556,0.03954640854228188,1.2844867720209294,0.1570686458238367,0.186890888831598
0.11499999999999999,-0.0035,0.556,0.0394920781432374,1.2845062310081439,0.15674843762031443,0.1868978896563885
0.1160000000000001,0.014,-0.444,0.03945193468194885,1.2844867720209294,0.15651184326708967,0.186890888831598
0.11699999999999999,0.0089,0.556,0.039560755262095376,1.2766582461625144,0.15715320138497213,0.18407439394937544
0.1180000000000001,0.0135,-0.44399999999997225,0.03973497512958928,1.2766778244712904,0.15818000464372317,0.18408143770288246
0.119,-0.0082,1.5559999999999723,0.03981352537565872,1.2766582461625144,0.15864295786369742,0.18407439394937544
0.1200000000000001,0.0037,-0.444,0.03980772100571012,1.2688208177267377,0.15860874852773618,0.18125469615717577
0.121,0.0001,0.556,0.039777490712780104,1.2609346761425617,0.15843057962116977,0.17841747267295632
0.12200000000000011,-0.0162,0.556,0.039851247239170356,1.2530188496198875,0.15886527999570837,0.1755695693393155
0.123,-0.0074,-0.444,0.03958196113369509,1.245032621060487,0.15727818287173628,0.17269633722989694
0.12400000000000011,0.006,-0.444,0.03985628237041067,1.237015039321974,0.15889495565348585,0.16981182508256215
0.125,0.028,-0.444,0.040040917032598336,1.2289248136117787,0.15998314080446654,0.16690117757102618
0.1260000000000001,0.0192,0.556,0.039679572451890084,1.2530387972863188,0.1578534767291783,0.17557674597785922
0.127,0.0216,-0.444,0.03945828402152332,1.252978953334311,0.15654926450187626,0.17555521571946697
0.1280000000000001,-0.0053,-0.444,0.039454232629266964,1.2608950303235975,0.15652538672702115,0.17840320916431707
0.129,0.0128,-0.444,0.04019706563098504,1.2608950303235975,0.16090343704839796,0.17840320916431707
0.13000000000000012,0.0162,-0.444,0.04224504962590537,1.3076911858320162,0.17297368294000204,0.1952392182522193
0.131,0.0078,2.556,0.042477639399441484,1.3454204612338643,0.17434450212873434,0.2088132056160147
0.13200000000000012,0.0158,2.556,0.042325324298856576,1.3528511401882855,0.17344679945057656,0.21148656578944633
0.133,0.038,-1.444,0.04239083697624839,1.3602596029849388,0.17383291288070973,0.2141519331816331
0.13400000000000012,0.0649,-1.444,0.04238816808709738,1.3821925182545096,0.173817183193178,0.22204281132730158
0.135,0.0614,-1.444,0.04284640425435102,1.3893905741427581,0.17651789922850655,0.22463247992364554
0.13600000000000012,0.0646,-2.444,0.043187144778324416,1.4107821190788972,0.1785261287458241,0.2323285874571867
0.137,0.0732,-1.444,0.04318526837473463,1.410728966707193,0.17851506974693704,0.23230946465097896
0.13800000000000012,0.0327,0.556,0.043157012503568036,1.4318715715841082,0.17834853753100752,0.2399160101883711
0.139,-0.0554,1.556,0.04316179512563259,1.4388558605755977,0.17837672497020085,0.2424287711546453
0.14000000000000012,-0.0431,2.556,0.04316059875884173,1.4458064108015094,0.17836967391834788,0.24492939381259676
0.14100000000000001,-0.0319,0.5559999999999723,0.04319677603325094,1.4388558605755977,0.17858289267342134,0.2424287711546453
0.14200000000000013,-0.0627,-0.444,0.04343623758351653,1.4595225957513451,0.17999421219567316,0.249864111461042
0.14300000000000002,-0.0911,-0.44399999999997225,0.043615110423880825,1.4731450089881664,0.18104843877746374,0.2547650925472559
0.14400000000000013,-0.0658,0.5559999999999723,0.04374454725078247,1.506670580287126,0.18181130329789308,0.26682669925263697
0.14500000000000002,-0.0582,-0.444,0.04393346400145271,1.5066705802871263,0.18292472588287834,0.2668266992526371
0.14600000000000013,-0.0373,2.556,0.043974714096203134,1.506670580287126,0.1831678424247676,0.26682669925263697
0.14700000000000002,-0.0055,1.556,0.044051070213575766,1.5132766592730973,0.18361786406277933,0.26920339034263907
0.14800000000000013,0.0237,0.556,0.04409932299096123,1.5329403991991164,0.18390225246104808,0.27627787969971984
0.14900000000000002,0.0185,-0.444,0.04410630347328554,1.5329403991991164,0.18394339347499417,0.27627787969971984
0.15000000000000013,0.0231,0.556,0.04423508933135712,1.55243558240036,0.1847024213668824,0.28329172684123144
0.15100000000000002,0.01,0.556,0.044395142920772075,1.5716730631740001,0.18564573253770406,0.2902128595200705
0.15200000000000014,-0.0021,0.556,0.0443845000585754,1.57168896652892,0.18558300647928616,0.2902185811231605
0.15300000000000002,0.0522,0.556,0.044646170054313546,1.5780704000496126,0.18712521637880114,0.2925144507641804
0.15400000000000014,0.0597,-1.444,0.046105451630851314,1.578022882440792,0.19572581457565558,0.29249735519542597
0.15500000000000003,0.0243,-3.444,0.046366241996083385,1.5968738984342947,0.19726284017855086,0.29927944815017105
0.15600000000000014,0.0178,-0.444,0.04579371117655863,1.5906307640381978,0.19388850337253777,0.297033334846894
0.15700000000000003,0.0234,-1.444,0.047038688925474706,1.5780228824407907,0.20122605464064586,0.29249735519542547
0.15800000000000014,-0.0459,-1.444,0.04867029824166435,1.5653134534363204,0.21084230442301152,0.28792484149431996
0.15900000000000003,-0.0931,0.556,0.05114642310542743,1.5460615083213018,0.2254358930633845,0.28099850493109657
0.16000000000000014,-0.0848,0.556,0.05049612262460032,1.5460615083213018,0.22160320358608374,0.28099850493109657
0.16100000000000003,-0.0336,1.556,0.04953029739590373,1.5066871697551354,0.21591089933585636,0.2668326677009237
0.16200000000000014,-0.026,0.556,0.048997770616974044,1.5199198062749033,0.2127723351764254,0.27159341751644306
0.16300000000000003,-0.005,1.556,0.04877035068786617,1.5000187457171128,0.21143198560738985,0.26443354652341716
0.16400000000000015,0.0012,0.556,0.04892911562114728,1.4933038061622763,0.21236770179873718,0.2620176903031428
0.16500000000000004,0.0186,-0.444,0.04887604079695792,1.4933038061622763,0.21205489360286833,0.2620176903031428
0.16600000000000015,0.0341,0.556,0.048876407283278384,1.5000020824988014,0.21205705357092225,0.2644275515417381
0.16700000000000004,0.0389,0.556,0.04885649283769981,1.5066374008031067,0.21193968338857483,0.26681476215890754
0.16800000000000015,0.0258,-0.444,0.04884908208773764,1.5066374008031067,0.21189600649729715,0.26681476215890754
0.16900000000000004,-0.0021,-0.444,0.04883039585449653,1.5066374008031067,0.21178587505556346,0.26681476215890754
0.17000000000000015,-0.0129,-0.444,0.04882876008313586,1.4999687555068415,0.21177623427585293,0.26441556137858446
0.17100000000000004,-0.0293,0.556,0.04884069279037967,1.4999854190953799,0.2118465623208682,0.26442155649346133
0.17200000000000015,0.0153,-0.44399999999997225,0.04889703258132993,1.5198046872847653,0.2121786133192832,0.2715520007730568
0.17300000000000004,0.0472,0.5559999999999723,0.04894564215393971,1.5198046872847653,0.2124651045689908,0.2715520007730568
0.17400000000000015,0.0413,-0.4440000000000555,0.04899797689589555,1.5198046872847653,0.21277355092679798,0.2715520007730568
0.17500000000000004,0.0362,-2.4439999999999724,0.0490175671679091,1.5198046872847653,0.2128890105206588,0.2715520007730568
0.17600000000000016,0.0409,-1.444,0.04893784416931649,1.5198211333886442,0.2124191454247325,0.2715579176427517
0.17700000000000005,0.0014,-1.444,0.048907009830254235,1.5198046872847653,0.21223741643890562,0.2715520007730568
0.17800000000000016,-0.0784,0.556,0.04886295824610888,1.5198046872847653,0.21197778870066747,0.2715520007730568
0.17900000000000005,-0.1354,3.556,0.04897001489163542,1.5198046872847653,0.21260875068037074,0.2715520007730568
0.18000000000000016,-0.06299999999998954,3.556,0.04897451295005345,1.5263539227488307,0.21263526098087854,0.2739082410794209
0.18100000000000005,-0.0159,1.556,0.048979391675243546,1.532875176747521,0.2126640148250629,0.2762544144005758
0.18200000000000016,-0.02429999999999487,1.556,0.049080417551822846,1.5131445163911954,0.2132594331363151,0.2691558488568817
0.18300000000000005,-0.0012,2.556,0.0490914806505589,1.4931531560696463,0.21332463595157072,0.26196349041639877
0.18400000000000016,0.06249999999999813,-1.444,0.048989504899321405,1.4864744624394812,0.2127236193442776,0.25956067451344395
0.18500000000000005,0.0541,-2.444,0.04866523858021738,1.479765625864023,0.21081248419104456,0.2571470139824342
0.18600000000000017,-0.0003999999999985345,-1.444,0.04863424277959454,1.4730262344889662,0.2106298035958579,0.2547223606491711
0.18700000000000006,0.0062,2.556,0.048610599055253265,1.4525516402168779,0.21049045408565645,0.24735614751711207
0.18800000000000017,0.012199999999998669,1.556,0.048073750714679384,1.4525516402168774,0.20732641984842679,0.2473561475171119
0.18900000000000006,0.0062,1.556,0.04796641885310154,1.4525344324644223,0.20669383582215434,0.2473499566265661
0.19000000000000017,0.021500000000005307,0.556,0.04875496996552685,1.452534432464422,0.21134133592404927,0.247349956626566
0.19100000000000006,0.0454,-2.444,0.049955791973587516,1.4316969991903807,0.21841864558334956,0.2398532036955009
0.19200000000000017,0.040999999999999114,-2.444,0.05014793025436776,1.431696999190381,0.21955105496738767,0.23985320369550098
0.19300000000000006,0.037,-3.444,0.04994054471426419,1.4386995091035308,0.21832878249376386,0.24237252006358825
0.19400000000000017,0.04059999999999926,-0.444,0.049120206296649115,1.4456681007405332,0.2134939368897441,0.2448796335402358
0.19500000000000006,0.0373,-1.444,0.04868036149043806,1.4525344324644223,0.21090161440173613,0.2473499566265661
0.19600000000000017,0.028599999999999445,-1.444,0.04834513166790938,1.4593855856122266,0.20892586342020691,0.2498148188659074
0.19700000000000006,0.0261,-2.444,0.04832160672414993,1.4386300141060393,0.20878721396959257,0.24234751761634404
0.19800000000000018,-0.010400000000005839,0.556,0.04839478322681049,1.4316271642724385,0.20921849584620456,0.2398280789539414
0.19900000000000007,-0.0367,2.556,0.048343247040013956,1.4316097050106722,0.20891475594955855,0.23982179757705108
0.20000000000000018,-0.04129999999999321,2.556,0.04832844897244972,1.4316271642724385,0.20882754027079156,0.2398280789539414
0.20100000000000007,-0.0107,0.556,0.048281621046030815,1.431609705010672,0.2085515495463171,0.239821797577051
0.20200000000000018,0.04920000000001719,1.556,0.04827333299952382,1.431592245535978,0.2085027021141357,0.23981551612355498
0.20300000000000007,0.1266,-1.444,0.04828177423142303,1.431592245535978,0.20855245237825118,0.23981551612355498
0.20400000000000018,0.09589999999997276,-2.443999999999917,0.04799979120212507,1.4315747858483483,0.20689052313010867,0.2398092345934504
0.20500000000000007,-0.0268,0.5559999999999445,0.04762526034001496,1.4316271642724383,0.20468314279370164,0.23982807895394131
0.20600000000000018,-0.11040000000000337,-1.444,0.04773933634448399,1.3891566857236595,0.2053554749152847,0.22454833310631153
0.20700000000000007,-0.1256,-1.4439999999999722,0.04776319880751945,1.3891566857236595,0.2054961136102802,0.22454833310631153
0.20800000000000018,-0.16689999999998606,-0.44399999999997225,0.04796391282758264,1.3819754981528223,0.20667906600740052,0.22196473328083452
0.20900000000000007,-0.1042,0.556,0.047773095375852864,1.3819754981528223,0.20555444122102504,0.22196473328083452
0.2100000000000002,-0.024399999999993163,-0.444,0.04686147942892797,1.3819574116059952,0.2001816313429288,0.22195822622350384
0.21100000000000008,0.0064,2.556,0.04609647921695812,1.3819393248224547,0.1956729336731677,0.22195171908100997
0.21199999999999997,-0.0029,0.556,0.04604556459481109,1.3819393248224547,0.1953728571050319,0.22195171908100997
0.21300000000000008,0.0399,-0.444,0.045988359600609166,1.4034266377280797,0.19503570684020677,0.22968228137663746
0.21399999999999997,0.0169,1.556,0.04598633133513435,1.4033732067695832,0.19502375280976744,0.22966305834232942
0.21500000000000008,-0.004,1.556,0.04599062663903333,1.4104454535623643,0.19504906813174677,0.23220746418040578
0.21599999999999997,0.0023,-1.444,0.04596099911936948,1.417500048491267,0.1948744518025235,0.234745519348487
0.21700000000000008,-0.0033,0.556,0.04590413818250198,1.4245021612720512,0.19453932931557047,0.2372646928389373
0.21799999999999997,0.0019,-0.444,0.04579655761278195,1.4245021612720512,0.19390527947294456,0.2372646928389373
0.21900000000000008,0.0068,0.556,0.04572803518300729,1.4245021612720512,0.1935014274025564,0.2372646928389373
0.21999999999999997,0.0113,0.556,0.04596311725709097,1.4245021612720512,0.19488693551489336,0.2372646928389373
0.22100000000000009,0.0233,-2.444,0.04636281632635306,1.4453741479162914,0.19724265023756937,0.24477387715134913
0.22199999999999998,0.0269,0.556,0.04651916306998811,1.445356854711924,0.19816411429427458,0.2447676555174836
0.2230000000000001,0.0236,-0.444,0.046567584370846044,1.4453741479162916,0.19844949592284017,0.2447738771513492
0.22399999999999998,0.015,-0.444,0.04639691104640224,1.4453741479162916,0.19744359499867092,0.2447738771513492
0.2250000000000001,-0.0037,0.556,0.046445922406569265,1.4453741479162914,0.19773245427206623,0.24477387715134913
0.22599999999999998,0.0084,-0.444,0.04660376032685959,1.4245197076456142,0.19866270690765764,0.23727100555632952
0.2270000000000001,0.0064,-0.444,0.04655825014589104,1.4175176815386628,0.19839448260696763,0.23475186324881336
0.22799999999999998,0.0326,-0.444,0.046558217552161135,1.4104631748034917,0.1983942905086234,0.23221383981048538
0.2290000000000001,0.0144,-1.444,0.04634262703108946,1.4175529469754367,0.19712366016791344,0.2347645508127289
0.22999999999999998,0.0176,-1.444,0.04491571258647982,1.3817403545777862,0.18871382481009852,0.22188013489185882
0.2310000000000001,0.0323,0.556,0.04460282608445076,1.3449745192600295,0.18686975912158635,0.20865276758339027
0.23199999999999998,0.0189,0.556,0.04467545772428224,1.3375000812922397,0.18729782972880343,0.20596366408363734
0.2330000000000001,0.0212,0.556,0.04461253394979513,1.3375000812922366,0.18692697456959756,0.20596366408363623
0.23399999999999999,0.0325,0.556,0.04523733315323245,1.3596347036776921,0.19060936663763725,0.21392711107174983
0.2350000000000001,0.0589,0.5559999999999723,0.04643343021800509,1.3522967527317091,0.19765882880034974,0.21128711196346997
0.236,0.0628,-0.44400000000002776,0.04653324243665357,1.3299836380402292,0.19824709415059752,0.20325944820255318
0.2370000000000001,0.0137,-1.4439999999999722,0.046592198152190456,1.32246227449282,0.19859456267818892,0.2005534621303679
0.238,-0.0072,-0.4439999999999445,0.04658848191891649,1.2995408756375164,0.19857266023680337,0.19230695394518377
0.2390000000000001,-0.1035,1.5559999999999723,0.04660046580256583,1.2917842340920265,0.1986432899012649,0.18951632112219524
0.24,-0.1172,0.556,0.046607647586377955,1.2839807348417358,0.19868561732997905,0.18670883014632442
0.2410000000000001,-0.0543,0.556,0.0465822817464341,1.2917648847397594,0.19853611815121164,0.18950935974113572
0.242,-0.043,1.556,0.04637046310022236,1.2683676507427661,0.19728771818786042,0.18109165875853497
0.2430000000000001,-0.0121,1.556,0.04619096073397915,1.2445507090740509,0.1962297813562962,0.1725229581457594
0.244,-0.0026,-1.444,0.04607506946270956,1.195452394478643,0.19554675055899304,0.15485869359778262
0.2450000000000001,-0.0109,-1.444,0.04598256321036085,1.203767601101941,0.19500154453437119,0.15785028324348424
0.246,-0.0341,-0.444,0.04611663676160123,1.2203509320972883,0.19579173661353091,0.16381652359618012
0.2470000000000001,-0.0273,-0.444,0.046589161634894675,1.212149490563239,0.1985766662930096,0.160865863596422
0.248,-0.0086,-0.444,0.046958299817969895,1.1871842180035581,0.20075226368476126,0.15188402414550536
0.2490000000000001,-0.0145,0.556,0.047059284656104164,1.1871631637962492,0.20134744012687594,0.1518764494030561
0.25,-0.0096,-0.444,0.04692962213242304,1.170109574982925,0.20058324541264042,0.14574102282531462
0.2510000000000001,-0.005,-0.444,0.046749179711284554,1.1528037376148301,0.1995197681599763,0.13951484394293645
0.252,-0.0094,0.556,0.04681370239120593,1.1614028058579515,0.19990004682141504,0.14260855943122347
0.2530000000000001,-0.0054,-0.444,0.0465841866724011,1.1527170066632673,0.1985473452530269,0.1394836404589568
0.254,-0.0018,1.556,0.04487755540627017,1.1440308070383083,0.1884889370430051,0.13635857742255347
0.2550000000000001,0.0409,0.556,0.043917087906607734,1.1175448391258074,0.1828282097518864,0.12682963232798194
0.256,0.0233,-0.444,0.04383701214717937,1.1264796746762575,0.18235626558208107,0.13004414794132607
0.2570000000000001,0.0496,0.556,0.04258886824651529,1.117589570218301,0.17500005389952475,0.12684572538245517
0.258,0.0161,-1.444,0.040913257073934776,1.1086281781836178,0.16512446946042245,0.12362165545412444
0.2590000000000001,0.0029,-0.444,0.03879110790514107,1.1615749642062394,0.1526171147401041,0.142670497414907
0.26,0.007,-0.444,0.03819251334729923,1.1701736569726418,0.14908916553715726,0.14576407781668138
0.2610000000000001,0.0253,1.556,0.03832521289869169,1.1786672123507662,0.1498712596448189,0.14881983258929252
0.262,0.0117,-2.444,0.038322632376290904,1.1614888882218062,0.14985605076624195,0.1426395295706381
0.2630000000000001,0.002,-1.444,0.03834710418556929,1.1614888882218062,0.15000028077787056,0.1426395295706381
0.264,-0.0066,-1.444,0.038138748914523096,1.1701095749829273,0.14877229298080907,0.1457410228253155
0.2650000000000001,-0.0091,-1.444,0.03810082291417656,1.1615104078159297,0.14854876772328598,0.1426472717468553
0.266,-0.0257,-1.444,0.0381003527779262,1.1615104078159297,0.1485459968714832,0.1426472717468553
0.2670000000000001,-0.0234,0.556,0.0381120720737044,1.1615749642062394,0.1486150671289023,0.142670497414907
0.268,0.0067,-0.444,0.03813528444806465,1.1615749642062394,0.1487518743827437,0.142670497414907
0.26900000000000013,0.0463,-0.444,0.038148010707959513,1.1615964822057296,0.14882687940553316,0.14267823901741764
0.27,0.0619,-2.444,0.03814782937418062,1.1615964822057299,0.14882581067486672,0.14267823901741772
0.27100000000000013,0.0478,-0.444,0.03833636602009721,1.1615964822057299,0.14993699302855504,0.14267823901741772
0.272,0.0261,0.556,0.038427572473076585,1.1442711118763444,0.15047453839858363,0.1364450326963487
0.27300000000000013,-0.0258,0.556,0.03840328411337563,1.1529338218088347,0.1503313895875473,0.1395616447676764
0.274,-0.0468,-0.444,0.03848254028851753,1.161617999806617,0.1507985033563871,0.14268598047652153
0.27500000000000013,-0.053,0.556,0.03852976937710808,1.1616395170089235,0.15107685841870117,0.14269372179222672
0.276,-0.0357,0.556,0.038581237422905076,1.1616395170089235,0.1513801967113201,0.14269372179222672
0.27700000000000014,0.0013,-0.444,0.03876972246331938,1.1702590941670674,0.15249107491658564,0.14579481584133677
0.278,0.064,1.556,0.038907205112894555,1.170280452491079,0.15330135926954813,0.1458024999968674
0.27900000000000014,0.0724,-1.444,0.03887091311998512,1.1788368493929617,0.1530874643956625,0.1488808634742663
0.28,0.0337,-1.444,0.03891422081761906,1.1703445251244284,0.15334270787448728,0.1458255516220626
0.28100000000000014,-0.0301,0.556,0.03887398087822909,1.1618116402811274,0.15310554490626835,0.14275564715647043
0.28200000000000003,-0.0047,1.5559999999997225,0.038781207014162024,1.1618116402811274,0.15255876165289273,0.14275564715647043
0.28300000000000014,-0.0751,-3.443999999999778,0.03876206492053028,1.1618116402811274,0.15244594349728785,0.14275564715647043
0.28400000000000003,-0.1222,0.556,0.03871188077394553,1.1704085942501974,0.15215017214817542,0.14584860198532387
0.28500000000000014,-0.0624,0.5559999999999445,0.038573817595073646,1.1788792548394105,0.15133646631761544,0.1488961198232982
0.28600000000000003,-0.0236,-0.4439999999999445,0.038119967557088436,1.1788792548394105,0.14866160090363625,0.1488961198232982
0.28700000000000014,-0.0026,0.5559999999999445,0.0377124015704694,1.187373689069588,0.1462595207664146,0.1519521907834464
0.28800000000000003,0.0161,-0.444,0.03777625270967235,1.1874368393732455,0.14663584155434567,0.15197491057900928
0.28900000000000015,0.0102,-0.444,0.037804722281924275,1.195870489436345,0.14680363326480914,0.15500911301645068
0.29000000000000004,0.0151,1.556,0.03687263691639311,1.1874368393732462,0.14131018234828258,0.15197491057900953
0.29100000000000015,0.0102,-0.444,0.035866606945180034,1.195786882139424,0.13538092257038203,0.1549790333401293
0.29200000000000004,0.0056,0.556,0.03545725583319364,1.195786882139424,0.1329683214026324,0.1549790333401293
0.29300000000000015,0.0175,0.556,0.035305896295040426,1.1957241728303085,0.13207625054266459,0.15495647220264497
0.29400000000000004,0.0283,-1.444,0.035724713329714636,1.1872894834397911,0.13454464121595539,0.15192189584290886
0.29500000000000015,0.0512,2.556,0.03629675060467393,1.187352638221991,0.13791606920809182,0.15194461724973188
0.29600000000000004,0.072,-0.444,0.03731717948213515,1.1789216587605476,0.14393019211940375,0.14891137562356363
0.29700000000000015,0.0642,-0.444,0.03723575963881512,1.1789428601491767,0.14345032629439425,0.1489190033179278
0.29800000000000004,0.0323,-0.444,0.03731637575058646,1.1789640611565395,0.1439254551500487,0.1489266308751225
0.29900000000000015,0.0106,-1.444,0.0377841502886618,1.1789852617826573,0.14668238767999286,0.14893425829515541
0.30000000000000004,-0.0014,-1.444,0.03834275431652078,1.1874578887281515,0.14997464386413392,0.15198248357569336
0.30100000000000016,-0.0269,-1.444,0.03958067530534646,1.1874789377099357,0.1572706045584385,0.15199005643813815
0.30200000000000005,-0.0173,-0.444,0.040652675992186825,1.195849588160114,0.16358867731595292,0.1550015932945259
0.30300000000000016,0.0213,-0.444,0.04066287297045237,1.195849588160114,0.16364877545896658,0.1550015932945259
0.30400000000000005,0.0263,-0.444,0.04089616226715108,1.2206376438151967,0.1650237174419201,0.16391967482806807
0.30500000000000016,0.002399999999991229,1.556,0.04103554330085065,1.3302655101462704,0.16584519034090398,0.20336085827112346
0.30600000000000005,-0.0371,-0.444,0.04309325209059581,1.3377243166963504,0.17797275145815053,0.20604433800354421
0.30700000000000016,-0.0419000000000139,-0.444,0.044098824929319366,1.3452160895130258,0.1838993170247842,0.20873967811975006
0.30800000000000005,-0.1045,3.556,0.044216984982771,1.34519750872603,0.18459571939084946,0.2087329932479839
0.30900000000000016,-0.07899999999999138,1.556,0.04425960681659607,1.337780369674603,0.18484692057987032,0.20606450437065302
0.31000000000000005,-0.0402,-1.444,0.044337017869812485,1.337780369674603,0.1853031597152189,0.20606450437065302
0.31100000000000017,-0.0049999999999958255,-1.444,0.044363301836639925,1.3452160895130258,0.1854580700775073,0.20873967811975006
0.31200000000000006,0.0138,0.556,0.04449042140752754,1.3377243166963504,0.18620727733794218,0.20604433800354421
0.31300000000000017,-0.003599999999998912,1.556,0.044751065148579454,1.3151449834465847,0.18774343877885546,0.19792089590318965
0.31400000000000006,0.0013,0.556,0.04481683394459972,1.307557382101725,0.18813106170067925,0.1951910792374925
0.31500000000000017,-0.0034999999999970914,1.556,0.04482530830062342,1.307614728234091,0.18818100718913658,0.1952117108469737
0.31600000000000006,0.0096,1.556,0.044848006624811594,1.3228969111396076,0.18831478477478086,0.20070983280773974
0.31700000000000017,0.0134999999999992,0.556,0.04483293742978562,1.3153350248148623,0.18822597114645018,0.19798926772067418
0.31800000000000006,0.0099,0.556,0.04517072131177478,1.3153160219136368,0.19021677504137433,0.19798243098346247
0.3190000000000002,0.0067000000000072835,0.556,0.04539745160222536,1.322934698882267,0.19155306007270329,0.20072342783006397
0.32000000000000006,0.0395,0.556,0.045172571516079466,1.3305097510017405,0.1902276796289896,0.20344872961905058
0.3210000000000002,0.03519999999999734,-1.444,0.04474547686368799,1.3154680374371368,0.18771050298789244,0.19803712211582883
0.32200000000000006,0.0232,-1.444,0.04455485912562678,1.3230858390606075,0.18658705525812166,0.20077780403658013
0.3230000000000002,0.0340999999999978,1.556,0.04448123119983279,1.3230858390606075,0.18615311281959357,0.20077780403658013
0.32400000000000007,0.0242,0.556,0.04440732369124833,1.330641246739598,0.18571752259815483,0.20349603827963472
0.3250000000000002,-0.0204000000000042,0.556,0.04416422877033192,1.330641246739598,0.18428478900368395,0.20349603827963472
0.32600000000000007,-0.0393,1.556,0.04388707602826061,1.3381539961927817,0.18265132811989263,0.20619892523038388
0.3270000000000002,-0.03349999999999885,0.556,0.04374400441562622,1.3381353173445172,0.18180810397903568,0.20619220507878772
0.32800000000000007,-0.0283,1.556,0.04385253032762832,1.3455690757158147,0.18244772540514304,0.20886667314430904
0.3290000000000002,-0.02359999999999516,-0.444,0.04346550886998246,1.338079279235245,0.18016672898588426,0.2061720440611416
0.33000000000000007,-0.0018,0.556,0.042856391139787814,1.3306224624297878,0.1765767591430432,0.2034892801857862
0.3310000000000002,0.018099999999999204,0.556,0.0427484499740488,1.3231047303689576,0.17594058404815582,0.2007846006256505
0.3320000000000001,0.0145,0.556,0.04267928738093597,1.3230858390606077,0.17553295903377902,0.20077780403658022
0.3330000000000002,-0.00839999999999809,1.556,0.042784786909374845,1.3230291635170863,0.1761547438000975,0.2007574136870863
0.3340000000000001,0.0002,-1.444,0.042136255848940776,1.2769323151689504,0.17233248279259072,0.18417299667075154
0.3350000000000002,0.0027000000000059286,0.556,0.040430789647600045,1.3001562088905843,0.16228094114916913,0.19252833444382056
0.3360000000000001,0.0294,1.556,0.03995284583531842,1.3001562088905845,0.1594640737562019,0.19252833444382064
0.3370000000000002,0.025799999999997845,1.556,0.03997557541640663,1.3078631990849567,0.15959803556128843,0.19530110403446535
0.3380000000000001,0.0161,1.556,0.03999910753227018,1.3530174121299168,0.15973672728228197,0.21154638600095632
0.3390000000000002,0.0608000000000042,-0.444,0.04022949666896593,1.353035885528812,0.1610945765318706,0.21155303223734703
0.3400000000000001,0.0797,-1.444,0.04084621886025379,1.353035885528812,0.1647293649453137,0.21155303223734703
0.34099999999999997,0.0031,0.556,0.040948989272682874,1.3455876513719711,0.16533506506380946,0.20887335617013594
0.3420000000000001,-0.0278,-1.444,0.04093652740284193,1.3529804645754266,0.165261618282183,0.21153309325593456
0.34299999999999997,-0.056,-0.444,0.04098749592612764,1.3965515305618832,0.1655620125285816,0.22720880112013297
0.3440000000000001,-0.0644,1.555999999999889,0.041132170802959035,1.4663240526925623,0.16641468586100205,0.25231109433023746
0.345,-0.0875,-0.4439999999999445,0.041938089787254114,1.4595225957513436,0.17116454735077988,0.24986411146104145
0.3460000000000001,-0.0235,0.556,0.041981938869001145,1.445737257424993,0.17142298159641875,0.2449045142714712
0.347,0.0364,0.556,0.04143636022250375,1.445754546079223,0.16820749337348062,0.2449107342683186
0.3480000000000001,0.0597,0.5560000000000556,0.040945655432768756,1.445754546079223,0.16531541634212685,0.2449107342683186
0.349,0.0666,1.5559999999999445,0.040820211463269127,1.4457718345267139,0.1645760846084634,0.24491695419078682
0.3500000000000001,0.0985,0.555999999999889,0.04081321083305121,1.4388558605755961,0.16453482484845744,0.24242877115464476
0.351,0.0927,-1.443999999999889,0.04085990530099829,1.4319064835088704,0.1648100290059591,0.23992857056809005
0.3520000000000001,0.0128,0.556,0.04080361763074983,1.424940755792583,0.16447828519240898,0.23742248745375882
0.353,-0.0441,-2.444,0.04077214900850622,1.424958296765466,0.16429281791859604,0.23742879822813032
0.3540000000000001,-0.034,-5.444,0.04071674953112433,1.4319413945824524,0.16396630886582791,0.23994113064157707
0.355,-0.138,-1.444,0.04064543351184381,1.4319413945824524,0.16354599215883153,0.23994113064157707
0.3560000000000001,-0.0967,1.556,0.040646558963185066,1.4249232146037691,0.1635526252548233,0.2374161766017011
0.357,-0.0595,-0.444,0.040506829020787664,1.4319588498000695,0.16272909598538587,0.2399474105634903
0.3580000000000001,-0.0255,0.556,0.04042838677300103,1.4527237065308516,0.1622667792771385,0.24741805238930314
0.359,0.0262,-0.444,0.039320392120520305,1.4177997804721,0.15573656813525652,0.2348533549238332
0.3600000000000001,0.0167,-1.444,0.03871662190579689,1.4106935306801176,0.1521781150556358,0.2322967157132212
0.361,0.042,-0.444,0.03856398617457558,1.4036047262333993,0.1512785226700236,0.22974635287271306
0.3620000000000001,0.0495,-0.444,0.038570474736701235,1.3964799380967614,0.1513167644436575,0.2271830440599574
0.363,0.0242,0.556,0.038627024624380855,1.4036403412230407,0.15165005369353865,0.22975916619643066
0.3640000000000001,-0.011,1.556,0.039232266922078596,1.4036403412230407,0.15521718281922078,0.22975916619643066
0.365,-0.017,2.556,0.039279768776964014,1.4107644018441676,0.1554971454899235,0.23232221326850225
0.3660000000000001,-0.0229,-0.444,0.04071146877135345,1.4036403412230403,0.16393518554206798,0.2297591661964305
0.367,-0.06,-0.444,0.04100899742477051,1.4178350388923,0.16568873635860232,0.2348660399633725
0.3680000000000001,-0.046,1.556,0.04104592958055361,1.4248881315783108,0.16590640417373892,0.23740355466451354
0.369,0.0109,1.556,0.041341122230550725,1.431854115302509,0.16764618723830238,0.2399097298836655
0.3700000000000001,0.0033,1.556,0.04154756432016928,1.431854115302509,0.16886289927816844,0.2399097298836655
0.371,0.0243,1.556,0.04328534265985375,1.4318366588080957,0.17910487964379673,0.239903449502395
0.3720000000000001,0.0057,0.556,0.04606911018867283,1.4248705897416545,0.1955116282615839,0.23739724357937939
0.373,0.0001,1.556,0.04625365849718181,1.4178702964357246,0.19659930446809137,0.2348787246874714
0.3740000000000001,-0.0048,-0.444,0.04612683551586705,1.4178702964357246,0.19585184522379437,0.2348787246874714
0.375,-0.0189,1.556,0.046078494800960795,1.4178702964357246,0.19556693854632928,0.2348787246874714
0.3760000000000001,0.0028,-0.444,0.04609956365243607,1.4178526677736054,0.19569111247473447,0.2348723823648506
0.377,0.0307,-1.444,0.04630758519583438,1.4177997804720988,0.19691713337421243,0.23485335492383272
0.3780000000000001,0.027,-0.444,0.048016595860839416,1.4594369659216981,0.2069895650968964,0.24983330413136995
0.379,-0.003,0.556,0.04902966668371069,1.4730092659215464,0.21296032168874254,0.2547162558110239
0.3800000000000001,-0.0151,-0.444,0.04958881812749865,1.4797656258640197,0.21625580418953652,0.257147013982433
0.381,0.0173,-0.444,0.05008392414365353,1.4998521052032878,0.2191738208206354,0.2643735937094587
0.3820000000000001,0.0302,-1.444,0.05009819375401955,1.5064714924215243,0.2192579219202155,0.26675507274661003
0.383,0.0102,-0.444,0.05019222814426105,1.51306192122951,0.2198121343629383,0.2691261333198329
0.3840000000000001,0.0283,-2.444,0.05038890563682162,1.5064217163439777,0.22097129659391196,0.2667371646410225
0.385,0.0054,0.556,0.05069287991448071,1.499802109438687,0.22276283612018188,0.2643556065663263
0.3860000000000001,-0.0272,1.556,0.05089974251095216,1.4997854438134595,0.22398202651003804,0.26434961071870294
0.387,-0.0141,3.556,0.05131203230789881,1.4997854438134592,0.22641194746649512,0.26434961071870283
0.3880000000000001,0.0458,0.556,0.05164106750356914,1.4997854438134592,0.2283511890467924,0.26434961071870283
0.389,0.0713,-0.444,0.05179202829818229,1.5130784406225393,0.2292409098236599,0.2691320765570101
0.3900000000000001,0.0326,-0.444,0.0514866598181598,1.5197060069239492,0.22744115325790598,0.27151649821021917
0.391,-0.0025,-1.444,0.0508665819530548,1.5131445163911919,0.22378658743985164,0.26915584885688043
0.3920000000000001,-0.0214,-3.444,0.050967145087233295,1.5131279977195367,0.22437927847658604,0.26914990587923443
0.393,-0.0389,-4.444,0.050966253251584576,1.5131279977195367,0.2243740222462631,0.26914990587923443
0.39400000000000013,-0.0868,0.556,0.05067988308617957,1.5197060069239494,0.22268623644274554,0.2715164982102193
0.395,-0.055,1.556,0.05033976794137492,1.5130949598352175,0.22068169273564966,0.2691380197293018
0.39600000000000013,-0.0258,0.556,0.049665718927761775,1.5197224540957268,0.21670903603643538,0.2715224154641156
0.397,-0.0102,-0.444,0.049650647148111925,1.5197060069239505,0.21662020717505315,0.27151649821021967
0.39800000000000013,-0.0055,0.556,0.049859797733973456,1.5197060069239505,0.21785288233559313,0.27151649821021967
0.399,0.0075,-0.444,0.0499030325283709,1.519689559574171,0.21810769614309578,0.27151058089228297
0.40000000000000013,0.0194,-0.444,0.049544468265706555,1.5196402164567575,0.21599441848612427,0.27149282855420787
0.401,0.0158,0.556,0.048558919355448545,1.519640216456758,0.21018586836340744,0.27149282855420803
0.40200000000000014,0.0059,0.556,0.047702621462136406,1.5130784406225424,0.20513908764911667,0.2691320765570112
0.403,0.0029,-1.444,0.04768512721517311,1.519640216456759,0.20503598144171506,0.2714928285542084
0.40400000000000014,0.0108,-0.444,0.04768237266082966,1.4998021094386902,0.20501974686745586,0.2643556065663274
0.405,0.0038,0.556,0.04795091212942603,1.3963188416292114,0.20660244352211646,0.22712508584603502
0.40600000000000014,0.015,1.556,0.046150431862188805,1.3963725425167677,0.19599091550117617,0.227144405993622
0.40700000000000003,0.0331,-2.4439999999999444,0.04514533178593697,1.3963725425167677,0.19006713626456082,0.227144405993622
0.40800000000000014,0.0451,-1.4439999999999444,0.04483918424068472,1.4035513020544497,0.18826278810584904,0.22972713227750524
0.40900000000000003,0.0386,-0.444,0.044976169937938106,1.4035334935429014,0.1890701435605705,0.22972072524985496
0.41000000000000014,0.0204,-0.444,0.04515537908274852,1.4035334935429016,0.19012635222687405,0.22972072524985504
0.41100000000000003,0.0084,-0.443999999999889,0.045536554226956696,1.4035334935429014,0.1923728921069571,0.22972072524985496
0.41200000000000014,-0.0253,1.556,0.045607780660621745,1.4035334935429014,0.19279268082134723,0.22972072524985496
0.41300000000000003,-0.0689,1.556,0.04533932404301818,1.40355130205445,0.19121047246730713,0.2297271322775053
0.41400000000000015,0.0192,1.5559999999999445,0.045660924200009154,1.4035334935429014,0.1931058940054088,0.22972072524985496
0.41500000000000004,0.1069,0.5560000000001111,0.046306862775302715,1.4035334935429016,0.1969128756292906,0.22972072524985504
0.41600000000000015,0.0501,2.5559999999999445,0.04662271946063157,1.4247653341862094,0.19877444674892944,0.23735937543681998
0.41700000000000004,-0.0223,1.556,0.04684064086123796,1.4247653341862094,0.20005881464286127,0.23735937543681998
0.41800000000000015,-0.0505,-1.444,0.046672753167571815,1.4247828773187656,0.19906933144877825,0.23736568698818433
0.41900000000000004,-0.0421,0.556,0.046484128977419534,1.4177116305852688,0.19795763313380615,0.2348216409447752
0.42000000000000015,-0.1279,-0.444,0.04647316198368452,1.4106226559554265,0.19789299673459523,0.2322712168769164
0.42100000000000004,-0.1618,0.556,0.04650356740662402,1.4034800666524418,0.1980721978085432,0.22970150367911815
0.42200000000000015,-0.0476,0.556,0.04648691849435185,1.4034266377280797,0.19797407376780302,0.22968228137663746
0.42300000000000004,-0.0018,1.556,0.04649433402748555,1.4104986166178057,0.19801777884975824,0.23222659083033734
0.42400000000000015,0.012,0.556,0.046494360966663394,1.4104454535623634,0.19801793762175135,0.23220746418040544
0.42500000000000004,0.0244,-0.444,0.04651352787591627,1.4104631748034897,0.19813090203369896,0.23221383981048466
0.42600000000000016,0.0586,-1.444,0.046523970656529336,1.4104100104121269,0.19819244886712364,0.2321947126799242
0.42700000000000005,0.1311,-3.444,0.04652839220500206,1.4175176815386585,0.1982185082393745,0.23475186324881184
0.42800000000000016,0.1029,-2.444,0.04642968012381145,1.4104808958219648,0.19763672679215719,0.23222021536045992
0.42900000000000005,0.0777,-1.444,0.04640263150659222,1.4104808958219648,0.19747730979394149,0.23222021536045992
0.43000000000000016,0.07009999999997954,-2.444,0.04643890075699497,1.410463174803487,0.19769107062984217,0.2322138398104837
0.43100000000000005,-0.022,-1.444,0.046440319900451166,1.4104808958219648,0.19769943466516385,0.23222021536045992
0.43200000000000016,-0.034200000000002485,-1.444,0.0464123923760187,1.4104986166178015,0.1975348376332145,0.2322265908303358
0.43300000000000005,-0.0454,0.556,0.04633647703524648,1.4034088276346033,0.19708741380942565,0.2296758737798516
0.43400000000000016,-0.05559999999999789,0.556,0.04635594044883302,1.4104986166178015,0.19720212573513513,0.2322265908303358
0.43500000000000005,-0.0461,-0.444,0.04627191839477099,1.431714457387621,0.19670692320652075,0.23985948468940313
0.43600000000000017,-0.0714999999999983,1.556,0.04630908618970997,1.4386473881701278,0.19692597981305426,0.2423537683413814
0.43700000000000006,-0.0639,1.556,0.046230234339718755,1.4316620821572146,0.19646124902376952,0.23984064147791442
0.43800000000000017,-0.04289999999999578,2.556,0.04623208146976866,1.3962114336577867,0.19647213549258544,0.22708644332159317
0.43900000000000006,-0.0239,1.556,0.0460195191679557,1.4033732067695792,0.19521935263074103,0.22966305834232797
0.44000000000000017,0.005500000000005884,0.556,0.045484096872259384,1.410463174803487,0.19206372310388375,0.2322138398104837
0.44100000000000006,0.032,-0.444,0.045365971156043225,1.410463174803487,0.1913675231118978,0.2322138398104837
0.44200000000000017,0.027299999999997094,-1.444,0.045444862885987314,1.410463174803487,0.19183248894249075,0.2322138398104837
0.44300000000000006,0.0142,-1.444,0.04545329953337863,1.3673172044126158,0.19188221218679663,0.21669107000781504
0.4440000000000002,0.02610000000000078,0.556,0.045329365548422665,1.2921905035600325,0.19115177988046259,0.18966248604495808
0.44500000000000006,0.0296,1.556,0.045020570367416385,1.2921711602913641,0.18933182729580716,0.18965552685261522
0.4460000000000002,0.01970000000000857,-0.444,0.046216328918110734,1.2843700119065111,0.19637929435105161,0.18684888165545085
0.44700000000000006,0.0583,0.556,0.04653450187555219,1.2920937843209106,0.19825451693184462,0.18962768904141922
0.4480000000000002,0.06319999999999257,-0.444,0.046669534879850164,1.2997908899044999,0.19905036375945712,0.19239690241264454
0.44900000000000007,0.0297,-1.444,0.046846534410364654,1.2997908899044999,0.20009354957600034,0.19239690241264454
0.4500000000000002,0.007999999999993849,0.556,0.048731210048511754,1.3075000334541989,0.21120130160666806,0.19517044672312375
0.45100000000000007,-0.0197,0.556,0.05253107803602365,1.330303088581219,0.23359666264399276,0.20337437799011385
0.4520000000000002,-0.0013000000000094368,-1.444,0.05380398175124471,1.330303088581219,0.24109880176088183,0.20337437799011385
0.45300000000000007,-0.0438,-0.444,0.05385376447741656,1.3378177370220243,0.24139220725015276,0.20607794814597907
0.4540000000000002,-0.06109999999999654,0.556,0.05386947887930407,1.3303406659546757,0.24148482354759074,0.20338789732720775
0.45500000000000007,-0.0455,1.556,0.05391386168215402,1.3378737860862397,0.24174640339640116,0.20609811310492168
0.4560000000000002,-0.012099999999991206,1.556,0.053916120735302386,1.3378737860862397,0.24175971762495502,0.20609811310492168
0.4570000000000001,0.0275,1.556,0.0539391269952947,1.3303406659546757,0.24189531009825663,0.20338789732720775
0.4580000000000002,0.04310000000000107,-0.444,0.05392145556848968,1.3303406659546768,0.24179115964233455,0.20338789732720813
0.4590000000000001,0.0479,-0.444,0.0537852737429532,1.3228402275016942,0.24098854198308045,0.20068943954609939
0.4600000000000002,0.060999999999997355,-1.444,0.053656792421874516,1.3228591223175405,0.24023130894720499,0.20069623739707343
0.4610000000000001,0.0491,-0.444,0.0536578146929523,1.3228780168635101,0.24023733392753066,0.20070303515095297
0.4620000000000002,-0.005200000000012057,0.556,0.05388562043793072,1.3304533917070278,0.24157995738759175,0.20342845304744633
0.4630000000000001,-0.0595,-0.444,0.053843488199729686,1.3304533917070276,0.24133164173848926,0.20342845304744625
0.4640000000000002,-0.07799999999999531,1.556,0.053440309486782765,1.3228780168635104,0.23895541896741282,0.20070303515095306
0.4650000000000001,-0.0569,3.556,0.05395413029142099,1.3152780152875423,0.24198373533687081,0.1979687572127141
0.4660000000000002,-0.05069999999999874,-0.444,0.05354833137026983,1.315259011562641,0.23959206979017172,0.1979619201791658
0.4670000000000001,-0.045,0.556,0.053868898689777595,1.2998870364338353,0.24148140407250415,0.19243149337047163
0.4680000000000002,-0.018699999999996893,-0.444,0.05401511561438858,1.3377056318483305,0.24234316580401483,0.20603761569339607
0.4690000000000001,-0.0047,0.5559999999999445,0.05385277086662049,1.352555495156018,0.24138635118552584,0.2113802005892291
0.47,0.017,-0.4440000000000555,0.05377544938452333,1.3525370151957916,0.2409306399573469,0.21137355199224642
0.4710000000000001,0.0209,-1.444,0.05291917433309322,1.3525554951560181,0.2358839938667316,0.21138020058922918
0.472,0.01,-1.444,0.05098638826197765,1.3599471892241775,0.2244926923760479,0.21403953503998624
0.4730000000000001,0.0004,-1.443999999999889,0.050873283704315375,1.3672989239667896,0.22382608569072668,0.21668449319079414
0.474,-0.0143,0.555999999999889,0.05087431861558258,1.359928809709075,0.22383218516879982,0.21403292258048107
0.4750000000000001,0.021,-1.4439999999998334,0.05115486531259468,1.3672257997392903,0.2254856490754575,0.21665818504335446
0.476,0.0069,1.5559999999999445,0.05147748585633058,1.3672257997392903,0.22738708448815312,0.21665818504335446
0.4770000000000001,-0.0061,0.5559999999999445,0.05121464625495843,1.3599288097090747,0.22583798125957225,0.21403292258048098
0.478,0.0219,-0.444,0.049533114850021126,1.3151449834465931,0.21592750462382232,0.19792089590319267
0.4790000000000001,0.0184,-0.4439999999999445,0.04850271729894787,1.2999254930544053,0.20985462913338435,0.19244532903723469
0.48,0.0152,0.556,0.0480268039773487,1.2922485316287802,0.20704972888560902,0.1896833629969678
0.4810000000000001,0.0066,0.556,0.04791713757148013,1.2688799145320007,0.20640338570706596,0.1812759576120894
0.482,0.0146,-0.444,0.04788793798085224,1.2609941425338729,0.20623129147210756,0.1784388670950763
0.4830000000000001,0.0168,-1.444,0.047863923652802134,1.2530587446351975,0.20608975772711477,0.175583922502156
0.484,0.0055,3.556,0.04771249303380048,1.2609743207150323,0.2051972679364712,0.17843173573314045
0.4850000000000001,0.0192,-1.444,0.04748091951021225,1.2609743207150323,0.20383243824120603,0.17843173573314045
0.486,-0.0012,0.556,0.04728288004647838,1.2609743207150326,0.20266524893238422,0.17843173573314053
0.4870000000000001,-0.0147,-1.444,0.0467422130417758,1.2529989016358865,0.1994787085549087,0.17556239258651862
0.488,-0.0125,1.556,0.04631590857428311,1.2529390557783482,0.19696618904299412,0.17554086164256735
0.4890000000000001,-0.0146,-1.444,0.04627030221951517,1.2287010651451147,0.19669739792078117,0.16682067883823
0.49,-0.0009,-0.444,0.04624708977866789,1.2204942963753416,0.1965605902750838,0.16386810224109147
0.4910000000000001,0.0267,-1.444,0.04630777321818315,1.2286196919636039,0.1969182415254423,0.16679140293706798
0.492,0.0228,-0.444,0.0461964051736558,1.2286196919636039,0.19626186936372308,0.16679140293706798
0.4930000000000001,0.0192,-0.444,0.04611538932647345,1.2447716085606793,0.19578438457915787,0.17260243189149735
0.494,0.0685,-0.444,0.046104807227759524,1.2447716085606793,0.19572201664374275,0.17260243189149735
0.4950000000000001,0.1178,-0.444,0.04612909566819336,1.268584402975514,0.19586516593059614,0.18116964043289943
0.496,0.0599,-1.444,0.046048672420955,1.2606373021090334,0.19539117376465343,0.17831048542418354
0.4970000000000001,0.0367,-1.444,0.04600628792755388,1.2606571292269528,0.19514137139382853,0.17831761869258672
0.498,-0.0412,0.556,0.045766003340322554,1.2842727037022712,0.19372520112148345,0.18681387275796535
0.4990000000000001,-0.1346,1.556,0.045344208856296225,1.2842727037022712,0.19123926219298215,0.18681387275796535
0.5,-0.1973,2.556,0.04524593189169856,1.2765016088821592,0.19066004520148389,0.18401804003211636
0.5010000000000001,-0.1176,0.556,0.04524825712559761,1.2765016088821592,0.19067374948090535,0.18401804003211636
0.502,-0.0241,1.556,0.045210017708673056,1.2843310895095317,0.19044837703357384,0.18683487841475407
0.5030000000000001,0.0132,-0.444,0.04521070162041917,1.2765407700041311,0.19045240781846487,0.18403212915970063
0.504,0.0243,1.556,0.04501245894512671,1.2765407700041311,0.18928402083745113,0.18403212915970063
0.5050000000000001,-0.0065,0.556,0.044606297841194575,1.2765211895933184,0.18689022068655836,0.1840250846499368
0.506,0.0217,-0.444,0.044375768193218146,1.2765211895933184,0.18553154330271063,0.1840250846499368
0.5070000000000001,0.0301,-2.444,0.04438954016886749,1.2686435107936118,0.1856127114822047,0.1811909058499374
0.508,-0.0243,0.556,0.04434170559651196,1.268584402975514,0.18533078786762422,0.18116964043289943
0.5090000000000001,0.0109,0.556,0.04420067700645789,1.268584402975514,0.18449960473146643,0.18116964043289943
0.51,-0.021,0.556,0.04401999534371588,1.2685844029755142,0.1834347174555848,0.18116964043289951
0.5110000000000001,-0.0504,1.556,0.04362914386530979,1.268584402975514,0.1811311479632646,0.18116964043289943
0.512,-0.0135,1.556,0.043355621516884754,1.2764232830337834,0.1795190836060587,0.18398986048016927
0.5130000000000001,0.0198,-0.444,0.04335398150500499,1.284194851830026,0.17950941783391253,0.18678586372999303
0.514,0.0766,0.556,0.043026930153975455,1.284194851830025,0.17758186848006058,0.1867858637299927
0.5150000000000001,0.0841,-0.444,0.0423276206201732,1.284194851830025,0.17346033332730926,0.1867858637299927
0.516,0.0771,-1.444,0.04235350519282135,1.244610958276816,0.17361288977181136,0.17254463420256944
0.5170000000000001,0.0453,-3.444,0.04205303501803317,1.2446109582768161,0.17184200244955586,0.17254463420256952
0.518,0.0278,-2.444,0.041917783861959886,1.2445908755332953,0.1710448698962852,0.17253740896689035
0.5190000000000001,-0.0306,-0.444,0.041886972439014306,1.2445908755332944,0.1708632759716521,0.17253740896689004
0.52,-0.0849,0.556,0.041994209443129364,1.2526198295822757,0.17149530093452203,0.1754260125683265
0.5210000000000001,-0.0779,1.556,0.042118710684929735,1.2526397836029037,0.17222907649432517,0.1754331914929408
0.522,-0.0333,1.556,0.04218029810218475,1.25269964375772,0.17259205553710122,0.17545472758067152
0.5230000000000001,-0.0038,-0.444,0.04242620682542395,1.2526996437577147,0.1740413728968802,0.1754547275806696
0.524,0.0547,-1.444,0.04273919686668195,1.2686435107935943,0.17588604881670072,0.1811909058499311
0.5250000000000001,0.0624,-0.444,0.042717203738069254,1.2686435107935943,0.1757564274568955,0.1811909058499311
0.526,0.0273,0.556,0.04269203473053107,1.2607562601394058,0.1756080883533737,0.17835328335189082
0.5270000000000001,-0.0172,0.556,0.04269646161840359,1.2527595010522583,0.17563417919455623,0.17547626263935048
0.528,-0.023,1.556,0.04276412262308223,1.2527395489385271,0.1760329542659288,0.17546908440078685
0.5290000000000001,-0.0385,0.556,0.04280731601791715,1.2606769560330293,0.17628752407596818,0.17832475184879712
0.53,-0.0625,0.556,0.04279720118574221,1.2606769560330295,0.17622791007907826,0.1783247518487972
0.5310000000000001,-0.0142,-0.444,0.043187959492545315,1.2685449962333641,0.1785309304439829,0.18115546293772378
0.532,0.0303,-0.444,0.044097702500987254,1.2685252924032322,0.1838927017455643,0.1811483740249795
0.5330000000000001,0.0243,-1.444,0.044520508107279325,1.276364535493174,0.18638459994640574,0.18396872468136605
0.534,0.0293,0.556,0.044499780462902275,1.276364535493174,0.1862624369973762,0.18396872468136605
0.5350000000000001,0.0151,-0.444,0.044667916622825196,1.228375540075879,0.18725338458220767,0.16670356359736352
0.536,0.002,0.556,0.04540465919950648,1.220248518729159,0.19159553963879686,0.16377967799683943
0.5370000000000001,-0.0099,-1.444,0.04560518694845371,1.2446310406962804,0.19277739420596454,0.17255185932166175
0.538,0.0373,-0.444,0.045662707595648944,1.2446912860105936,0.1931164048414054,0.1725735339795105
0.5390000000000001,0.0185,-0.444,0.045650217331029815,1.2446912860105936,0.19304279070888386,0.1725735339795105
0.54,0.0242,-1.444,0.04563963294790621,1.2446912860105936,0.19298040930979593,0.1725735339795105
0.5410000000000001,-0.0023,-0.444,0.045741823910812655,1.2446912860105936,0.1935826943145811,0.1725735339795105
0.542,0.0024,-2.444,0.045725000853997964,1.2366512796551439,0.19348354391452652,0.16968095405287972
0.5430000000000001,-0.0106,-1.444,0.04609478204712915,1.2366714913325627,0.19566293102802676,0.1696882256755378
0.544,-0.0304,-2.444,0.04624187035624659,1.2366917026796551,0.19652982845653763,0.1696954971793532
0.5450000000000002,-0.0122,-0.444,0.045730021872711045,1.2366917026796551,0.19351313639700857,0.1696954971793532
0.546,-0.0023,0.556,0.044190367290241866,1.2367119136964373,0.1844388421424478,0.1697027685643318
0.5470000000000002,-0.035,2.556,0.043845228777387155,1.2367119136964373,0.1824046921065336,0.1697027685643318
0.548,-0.0133,-0.444,0.043854615169721764,1.2367119136964373,0.18246001288237695,0.1697027685643318
0.5490000000000002,-0.0015,0.556,0.04366861862926431,1.2366917026796551,0.18136380120109546,0.1696954971793532
0.55,0.0092,0.556,0.04164438259571597,1.2366310676473824,0.16943351916365004,0.1696736823113732
0.5510000000000002,0.0058,1.556,0.03668649885256311,1.2120876278003607,0.14021313656775508,0.16084360702370343
0.552,-0.0029,-0.444,0.034937741311440514,1.2202690020904023,0.12990644785412195,0.16378704736409402
0.5530000000000002,-0.0109,-0.444,0.03499923477980185,1.220207550975123,0.13026887318834818,0.1637649388912063
0.554,-0.0087,-0.444,0.03497385013549503,1.220207550975123,0.1301192631819154,0.1637649388912063
0.5550000000000002,-0.002099999999995959,1.556,0.03489254489716745,1.2201460967649356,0.12964007280673498,0.16374282930485326
0.556,0.0161,0.556,0.035018716983506004,1.2282737957990915,0.13038369585776488,0.16666695871924855
0.5570000000000002,0.018300000000001444,-1.444,0.03495635775033337,1.2363682814779375,0.13001616794745285,0.16957913885392714
0.558,0.0248,-0.444,0.03482581145544236,1.2201051255718534,0.12924676453244538,0.16372808896194305
0.5590000000000002,0.026599999999998,-0.444,0.034747750826222265,1.2201051255718534,0.12878669697748552,0.16372808896194305
0.56,0.0176,-1.444,0.03473294920484917,1.2201051255718536,0.1286994603535613,0.16372808896194313
0.5610000000000002,-0.007099999999999201,-1.444,0.03467457186285004,1.2200846394593732,0.12835540059812597,0.1637207186048668
0.562,-0.0035,-1.444,0.03430974818815462,1.2200231790579676,0.12620523171420184,0.16369860679107853
0.5630000000000002,0.026199999999992053,-0.44399999999977796,0.03449414403234585,1.2117782666134551,0.1272920093385869,0.16073230711674313
0.5640000000000001,-0.0096,1.556,0.034498057296712764,1.2363480648436787,0.12731507302622538,0.16957186544793018
0.5650000000000002,-0.05879999999998605,1.555999999999778,0.0336368357105035,1.2444302019176119,0.1222392734406395,0.17247960288379566
0.5660000000000001,0.004,-0.444,0.03256420881304507,1.244430201917612,0.11591750997257332,0.17247960288379574
0.5670000000000002,0.029399999999991384,-0.444,0.03165959060416419,1.236388497781627,0.1105859428088175,0.16958641214099407
0.5680000000000001,-0.0094,-0.44399999999977796,0.031375703872264446,1.1953060266938789,0.10891279366903278,0.15480603437123522
0.5690000000000002,-0.030500000000001398,1.555999999999889,0.03127811657602513,1.1784763414904464,0.10833764139029091,0.14875116234268687
0.5700000000000001,-0.0368,0.5560000000001111,0.031172191575396233,1.1784763414904464,0.10771334900967156,0.14875116234268687
0.5710000000000002,-0.031200000000003485,1.555999999999667,0.030306066624091643,1.1784763414904464,0.10260865035917906,0.14875116234268687
0.5720000000000001,-0.0469,-1.4439999999995559,0.02934545410491038,1.2200641530029104,0.09694706836350428,0.1637133481240348
0.5730000000000002,-0.0517999999999893,2.555999999999778,0.029233104841172704,1.211819519334752,0.09628491316970494,0.160747148745999
0.5740000000000001,-0.0036,0.555999999999889,0.029620186534670172,1.2200231790579676,0.0985662646022559,0.16369860679107853
0.5750000000000002,0.01509999999999869,-0.444,0.030017976743164674,1.2362874129573227,0.10091072903250056,0.16955004451630037
0.5760000000000001,0.0092,-0.444,0.029458803739717113,1.2443297703722715,0.09761511946509212,0.17244347029145574
0.5770000000000002,0.024600000000001,-0.444,0.02949666164617739,1.2523005220116736,0.09783824339626067,0.17531113421769948
0.5780000000000001,0.0291,-1.444,0.02956853483026043,1.2522805625852023,0.0982618438770489,0.1753039533482069
0.5790000000000002,0.01590000000000975,-0.444,0.032148417508628076,1.2522805625852023,0.11346695210866814,0.1753039533482069
0.5800000000000001,0.0598,-1.444,0.03391170695209908,1.2522805625852025,0.12385928779759654,0.17530395334820695
0.5810000000000002,0.08919999999999415,-0.444,0.034866392102124395,1.2760511695981123,0.12948593553432203,0.1838559839871834
0.5820000000000001,0.0628,-1.444,0.03513055613228879,1.299406232645784,0.13104284457643856,0.19225851298656652
0.5830000000000002,0.009999999999989054,-1.444,0.03502711697176997,1.30711764483642,0.13043320304340894,0.19503287349356907
0.5840000000000001,-0.0393,-0.444,0.034970266184507715,1.2994831732064516,0.13009814037539558,0.19228619414893025
0.5850000000000002,-0.0838999999999909,0.556,0.034863990975293996,1.299463938493373,0.12947178396315168,0.19227927401199432
0.5860000000000001,-0.0429,2.556,0.03485109914043554,1.30711764483642,0.1293958030877535,0.19503287349356907
0.5870000000000002,-0.027299999999992608,1.556,0.03485410917916841,1.3070985224690255,0.12941354341567554,0.19502599377561494
0.5880000000000001,0.006,1.556,0.034867571268350425,1.299463938493373,0.1294928852108481,0.19227927401199432
0.5890000000000002,0.01040000000000444,-1.444,0.0346747549414942,1.2994831732064516,0.1283564796125411,0.19228619414893025
0.5900000000000001,0.0304,-0.444,0.0346742180191519,1.2994831732064516,0.1283533151421584,0.19228619414893025
0.5910000000000002,-0.024000000000008615,-0.444,0.034760445517631244,1.2918035831544623,0.12886151594443276,0.18952328239898117
0.5920000000000001,-0.0628,0.556,0.03523163692380274,1.2918229319270917,0.13163858654098393,0.1895302435715025
0.5930000000000002,-0.04179999999999014,0.556,0.03648042882562192,1.276266616916194,0.13899861736143365,0.1839334961880422
0.5940000000000001,0.0026,-0.444,0.03665953802972721,1.276266616916194,0.14005423700512354,0.1839334961880422
0.5950000000000002,0.00830000000000342,0.556,0.03684690860444042,1.2525799205873878,0.14115854686069326,0.1754116543760066
0.5960000000000001,0.0237,-1.444,0.03682735926428407,1.2605183328522862,0.14104332850777107,0.17826768345752592
0.597,0.0378,-1.444,0.03683364820012783,1.2683873570217843,0.14108039373983292,0.18109874855232325
0.5980000000000001,0.0073,-0.444,0.03717796876224505,1.2444703722663342,0.14310972300246316,0.17249405510425705
0.599,-0.0285,-1.444,0.03777429157691642,1.2444904569544548,0.14662428318540877,0.17250128103955137
0.6000000000000001,0.0049,0.556,0.03778737696648346,1.2525200547107849,0.14670140481822103,0.17539011622972958
0.601,0.0354,-1.444,0.03779870617496088,1.2525200547107849,0.14676817600999736,0.17539011622972958
0.6020000000000001,0.0315,-1.444,0.03830839341263941,1.2525200547107849,0.14977213028984107,0.17539011622972958
0.603,-0.0012,-0.444,0.038919764132773156,1.2605183328522862,0.15337537862637332,0.17826768345752592
0.6040000000000001,-0.0057,-1.444,0.03890719544104032,1.2684070629946473,0.15330130226633956,0.18110583823596507
0.605,0.0302,-1.444,0.03908921229924045,1.2762470322992754,0.15437405881147956,0.18392645016503362
0.6060000000000001,0.0063,-1.444,0.039576325124708725,1.291745535097648,0.15724496580828196,0.18950239825579793
0.607,0.0021,-1.444,0.039754168120363656,1.291726185165691,0.1582931227728768,0.1894954366661815
0.6080000000000001,0.0061,0.556,0.03977232332512385,1.3070985224690255,0.15840012448100121,0.19502599377561494
0.609,-0.0046,0.556,0.03969658094636061,1.352167362952793,0.15795372004700423,0.2112405609707646
0.6100000000000001,0.0052,-0.444,0.039618187226158015,1.352167362952793,0.15749168934678884,0.2112405609707646
0.611,0.0024,-1.444,0.03960403431005484,1.3447886664597934,0.15740827601061422,0.20858590270101282
0.6120000000000001,-0.0382,0.556,0.03964147401328989,1.3373692599438305,0.157628935168731,0.20591659805039636
0.613,-0.0208,2.556,0.03966683160113589,1.3373692599438305,0.15777838571193753,0.20591659805039636
0.6140000000000001,-0.0052,1.556,0.03959456998483851,1.3373692599438314,0.15735249592012399,0.20591659805039667
0.615,-0.0005,-0.444,0.03967782828063197,1.3298332818209626,0.15784319707073624,0.20320535404361012
0.6160000000000001,0.0125,-0.444,0.03935878026085188,1.3222543542884324,0.15596281711682708,0.20047865798433073
0.617,0.0165,-1.444,0.03954607013479502,1.3222732574761993,0.15706665134458878,0.20048545884729854
0.6180000000000001,0.0129,-1.444,0.039485395614649525,1.3222921603937303,0.15670905266250548,0.20049225961304273
0.619,0.0161,-0.444,0.039536234341595686,1.3222921603937312,0.15700868192551648,0.20049225961304304
0.6200000000000001,0.0429,0.556,0.039436865663286205,1.3146887720813334,0.15642303067819519,0.1977567632173327
0.621,0.0175,-3.444,0.039426800003133075,1.314669759838844,0.1563637064874735,0.1977499231193833
0.6220000000000001,0.0208,0.556,0.039427588354780906,1.3146127214616228,0.15636835281198677,0.19772940223199797
0.623,0.0477,-1.444,0.039592219145627265,1.3070220302017663,0.15733864073014117,0.1949984738972673
0.6240000000000001,0.0732,-2.444,0.039466940130520725,1.291610079486359,0.15660028119161717,0.18945366493833007
0.625,0.0241,-1.444,0.0394743169009902,1.2915907275250778,0.15664375781725162,0.18944670261861685
0.6260000000000001,0.0311,-1.444,0.03986265050517466,1.2992908132618963,0.15893248766187212,0.19221698816951818
0.627,-0.0269,-0.444,0.04057487805271831,1.3221409294862483,0.16313015798104882,0.20043785076460044
0.6280000000000001,-0.1284,1.556,0.040923375146877584,1.329664110751569,0.1651841025574934,0.20314449080322688
0.629,-0.1147,0.556,0.04094592389728188,1.3221409294862483,0.16531699859701487,0.20043785076460044
0.6300000000000001,-0.1024,2.556,0.04093007806296867,1.3221409294862483,0.1652236076735543,0.20043785076460044
0.631,-0.0454,2.556,0.04099787475067386,1.322197643103617,0.16562318242280413,0.20045825481204954
0.6320000000000001,-0.0144,1.556,0.040424933703913146,1.3222165471021605,0.1622464278519932,0.20046505596671313
0.633,0.014,0.556,0.04001434503321376,1.3146697598388575,0.15982653285870188,0.19774992311938816
0.6340000000000001,-0.0114,-0.444,0.04005105578539551,1.3147267957415176,0.16004289578282557,0.19777044311649242
0.635,0.0118,-1.444,0.03988701013717663,1.3147458071592233,0.1590760565319522,0.19777728291770663
0.6360000000000001,0.0049,-0.444,0.039011395094886485,1.3147458071592235,0.15391542593471919,0.19777728291770671
0.637,-0.0139,0.556,0.03880349540863031,1.2916681336306006,0.15269012322721584,0.1894745512716073
0.6380000000000001,-0.0081,0.556,0.03897580673157013,1.2916100794863594,0.1537056780572096,0.18945366493833024
0.639,0.0184,-0.444,0.04037023957409861,1.291552022732635,0.1619240759208618,0.18943277766623062
0.6400000000000001,-0.0347,0.556,0.04118439646973421,1.2915520227326334,0.166722489360147,0.18943277766623007
0.641,0.0573,0.556,0.04111230078703414,1.291552022732633,0.16629757753462915,0.1894327776662299
0.6420000000000001,0.0945,-1.444,0.041048851728314184,1.2915713752738385,0.16592362649680845,0.18943974019458446
0.643,0.0375,-1.444,0.040593523368769965,1.2915520227326323,0.16324004826829147,0.18943277766622968
0.6440000000000001,0.0477,-0.444,0.042140032204970285,1.2915520227326331,0.17235473958071185,0.18943277766622998
0.645,0.0007,-1.444,0.04427119629323892,1.3146317345290086,0.18491522571954971,0.1977362426267231
0.6460000000000001,-0.0073,-1.444,0.04475884936523098,1.3222354508304297,0.18778931677853247,0.20047185702413928
0.647,-0.0615,0.556,0.04479066202455389,1.3222921603937405,0.18797681171083944,0.2004922596130464
0.6480000000000001,-0.0683,0.556,0.04463199951024687,1.3147458071592184,0.18704169914833116,0.19777728291770486
0.649,-0.0102,1.556,0.044650179576699214,1.3147648183020195,0.18714884738432802,0.19778412262001574
0.6500000000000001,0.013,0.556,0.0446251463083554,1.3147648183020144,0.18700130828972095,0.1977841226200139
0.651,0.0624,1.556,0.04473950649694766,1.3374253278029085,0.18767531531318524,0.2059367697712294
0.6520000000000001,0.0686,1.556,0.04516216454309399,1.3299648444424073,0.19016634383572484,0.20325268676712568
0.653,0.004,-1.444,0.04550709747341225,1.3224622744928174,0.19219928222556557,0.20055346213036693
0.6540000000000001,-0.0388,-1.444,0.04573355662419483,1.322481174708629,0.19353396923539054,0.20056026192410445
0.655,-0.0621,-2.444,0.04573229567586976,1.3149168975493146,0.1935265375580054,0.1978388366785046
0.6560000000000001,-0.0411,-0.444,0.04568548840658862,1.352370684190069,0.19325066858093368,0.21131371053105108
0.657,-0.0222,-2.444,0.04568832787526729,1.3449745192600173,0.19326740361657754,0.20865276758338586
0.6580000000000001,-0.0048,-3.444,0.04573754082775482,1.3375374564701785,0.1935574510188276,0.20597711067617475
0.659,-0.0099,-0.444,0.045854556761826454,1.337518769011753,0.1942471102646926,0.20597038742687224
0.6600000000000001,0.0141,0.556,0.045852489968282756,1.337518769011753,0.19423492916057192,0.20597038742687224
0.661,0.0184,0.556,0.04587081690759363,1.3375374564701785,0.19434294302419164,0.20597711067617475
0.6620000000000001,0.0144,-1.444,0.046142154554521454,1.3375935172789655,0.19594213136071745,0.20599727986050106
0.663,0.0109,-0.444,0.04605990836364131,1.3375748306037738,0.19545739527389575,0.20599055689298523
0.6640000000000001,0.0272,-0.444,0.04601565251850056,1.3149168975493146,0.19519656367837815,0.1978388366785046
0.665,0.0301,-0.444,0.046041295588404495,1.3148598698928775,0.19534769677313074,0.19781831964817154
0.6660000000000001,0.0385,0.556,0.04604429671725576,1.3148788793865065,0.19536538458869815,0.19782515875715426
0.667,0.0197,0.556,0.04602728879475705,1.3224433740068855,0.1952651446419144,0.2005466622394473
0.6680000000000001,0.0219,-0.444,0.046052919718252525,1.3225000746543323,0.19541620614912666,0.20056706162066426
0.669,-0.0118,0.556,0.046069681196353206,1.314954914612936,0.195514993621433,0.19785251420439687
0.6700000000000002,-0.0357,-0.444,0.046057465321230645,1.3225756717362953,0.1954429966639977,0.2005942594352095
0.671,-0.0313,-1.444,0.04585690146157278,1.3225756717362955,0.19426092927038321,0.2005942594352096
0.6720000000000002,-0.0592,0.556,0.045856517275556355,1.2843116278686852,0.1942586649852629,0.18682787663525752
0.673,-0.0411,1.556,0.04597655037105248,1.284292165932936,0.19496610653820579,0.18682087474966283
0.6740000000000002,0.0082,-0.444,0.04601207819095807,1.284292165932936,0.19517549758975536,0.18682087474966283
0.675,0.0574,-1.444,0.046187508547112295,1.2686435107936003,0.1962094351307153,0.18119090584993328
0.6760000000000002,0.0761,-2.444,0.04615869517188214,1.260776085386581,0.1960396171414841,0.17836041594725013
0.677,0.0586,-1.444,0.04630456030066371,1.2607760853865808,0.19689930548659373,0.17836041594725005
0.6780000000000002,0.0321,-0.444,0.046572936731019865,1.2686632127876616,0.19848104123938498,0.18119799410210832
0.679,-0.0115,-0.444,0.04477339742654455,1.2607364345804843,0.187875058990257,0.17834615064437356
0.6800000000000002,-0.06459999999999849,1.556,0.043324385621043036,1.2607364345804843,0.1793349879566839,0.17834615064437356
0.681,-0.0578,0.556,0.04211997411412848,1.2366714913325658,0.17223652279328713,0.1696882256755389
0.6820000000000002,-0.025899999999998712,0.556,0.04191709582800552,1.2605778188841472,0.17104081481624964,0.17828908494579207
0.683,-0.0201,1.556,0.04190043589836547,1.2605183328522893,0.1709426258422191,0.17826768345752703
0.6840000000000002,-0.014999999999998955,0.556,0.041934397024018064,1.2684464740219488,0.1711427832352452,0.181120017272824
0.685,-0.0103,0.556,0.04192908088730205,1.268446474021949,0.17111145140964754,0.1811200172728241
0.6860000000000002,-0.014599999999986677,-0.444,0.042243678055202565,1.2685055882670417,0.17296559928520708,0.18114128500212348
0.687,0.0454,-1.444,0.042306138111559484,1.2919970578413533,0.17333372141921857,0.18959288943296476
0.6880000000000002,0.10519999999999485,-1.444,0.04235399936093823,1.2996755046805775,0.17361580226072595,0.19235538988544093
0.6890000000000001,0.082,-1.443999999999889,0.04239487652143447,1.299656272813975,0.1738567208322402,0.19234847077259123
0.6900000000000002,0.018299999999994383,-0.443999999999889,0.04252017066024234,1.3073662101602264,0.1745951695056375,0.19512230066990602
0.6910000000000001,-0.007,0.555999999999889,0.042379733982273265,1.3073662101602264,0.17376747493405334,0.19512230066990602
0.6920000000000002,-0.014500000000023583,-0.443999999999889,0.04199046112504161,1.3150119381476022,0.17147320939420171,0.19787302975182666
0.6930000000000001,-0.1207,0.5560000000002221,0.040918375814575886,1.3074235646777643,0.1651546378886654,0.19514293529614848
0.6940000000000002,-0.13589999999998462,2.555999999999889,0.04076370267808757,1.2997908899044923,0.16424303760523049,0.19239690241264182
0.6950000000000001,-0.0666,1.556,0.04059542250984683,1.3074426822911633,0.16325124127557936,0.19514981330374181
0.6960000000000002,-0.02939999999999245,1.555999999999889,0.0406854679481298,1.2998101197793128,0.1637819439491298,0.1924038208089015
0.6970000000000001,0.0046,0.556,0.04072066097784556,1.2921131287479093,0.16398936184077023,0.18963464865049848
0.6980000000000002,0.014600000000002064,0.555999999999778,0.04042918238477089,1.299790889904492,0.16227146839078407,0.19239690241264173
0.6990000000000001,0.0239,-1.4439999999995559,0.039851047003426086,1.2997908899044923,0.15886409986213523,0.19239690241264182
0.7000000000000002,0.03220000000000862,2.555999999999778,0.03991951346481661,1.2920550945980254,0.15926762207049303,0.18961376951065806
0.7010000000000001,0.071,0.556,0.040010663949162334,1.2920550945980254,0.1598048375770207,0.18961376951065806
0.7020000000000002,0.06409999999999583,0.556,0.039554261835267036,1.2919970578413533,0.1571149309401388,0.18959288943296476
0.7030000000000001,0.0453,0.555999999999889,0.039190359350298486,1.2919390184775417,0.15497019129127887,0.18957200841729216
0.7040000000000002,0.004199999999994093,-0.444,0.03922885497674093,1.2841948518300148,0.15519707376597797,0.18678586372998904
0.7050000000000001,-0.0224,-3.444,0.03912245616194745,1.276423283033772,0.15456998885695622,0.1839898604801652
0.7060000000000002,-0.008400000000002909,-0.444,0.03863195691134179,1.2527595010522619,0.15167912321584648,0.17547626263935176
0.7070000000000001,-0.0215,-0.444,0.03844048228473561,1.26075626013941,0.1505506252242254,0.17835328335189235
0.7080000000000002,-0.033499999999992786,-0.444,0.038572601236959526,1.236792754460791,0.15132929744248455,0.16973185291599588
0.7090000000000001,-0.001,0.556,0.0388392350300979,1.195724172830302,0.15290076257803922,0.15495647220264266
0.7100000000000002,-0.014200000000007994,0.556,0.03891988685081487,1.195724172830302,0.15337610189224965,0.15495647220264266
0.7110000000000001,-0.0502,1.556,0.03889455116461262,1.195724172830302,0.15322678043121668,0.15495647220264266
0.7120000000000002,-0.026399999999993227,-0.444,0.03904981181463205,1.195724172830302,0.15414184335537676,0.15495647220264266
0.7130000000000001,0.0041,0.556,0.03905313430262617,1.1873736890695825,0.1541614251720122,0.1519521907834444
0.7140000000000002,0.01599999999999758,-1.444,0.039141581900991,1.1873947395439772,0.15468271062318434,0.15195976418289064
0.7150000000000001,0.0051,0.556,0.03957221660197177,1.1874157896451896,0.1572207513223244,0.15196733744807583
0.7160000000000002,0.0018000000000045963,-1.444,0.039510726014143245,1.1957868821394175,0.15685834296515438,0.154979033340127
0.7170000000000001,0.0225,1.556,0.03937377379406464,1.2205557330538865,0.15605118481555463,0.16389020552002703
0.7180000000000002,-0.018199999999998735,0.556,0.039327232797526285,1.2205352545046417,0.1557768851756885,0.16388283788400124
0.7190000000000001,-0.0125,1.556,0.04017333413601128,1.2205557330538865,0.16076357024259327,0.16389020552002703
0.7200000000000002,0.003200000000003153,0.556,0.041291139359683524,1.2449322381136692,0.16735160215207523,0.1726602221220097
0.7210000000000001,0.0174,1.556,0.04120579517698325,1.2923065570918955,0.16684860736639073,0.1897042390115405
0.7220000000000002,0.039100000000002647,-0.444,0.04115555258135983,1.2923645799497554,0.1665524915349627,0.18972511408881174
0.7230000000000001,0.051,-1.444,0.04157642843966241,1.3153160219136346,0.16903301633991835,0.1979824309834617
0.724,0.0835,-1.444,0.042729822325812794,1.3303594542433672,0.17583079789008593,0.20339465685255165
0.7250000000000001,0.0178,0.556,0.04387564914506848,1.3378364203043323,0.18258398126061748,0.2060846698928258
0.726,-0.0484,-1.444,0.04424535925897243,1.3378364203043323,0.18476294945299696,0.2060846698928258
0.7270000000000001,-0.0568,-1.444,0.043588749123239394,1.32282133241595,0.18089307263126642,0.2006826415980233
0.728,-0.0025,0.556,0.044841093561869834,1.3152780152875319,0.18827404111185275,0.19796875721271034
0.7290000000000001,0.0186,0.556,0.04595075471553153,1.3228969111396052,0.19481407414642676,0.20070983280773888
0.73,0.0125,0.556,0.04638091425443567,1.3304721784038582,0.19734931437294714,0.20343521200008105
0.7310000000000001,0.0183,-3.444,0.04600833231046669,1.3304721784038582,0.19515342041594758,0.20343521200008105
0.732,-0.0081,-1.444,0.04567201788267337,1.337985877170872,0.1931712770737983,0.20613844048863594
0.7330000000000001,-0.0222,1.556,0.04562569498462643,1.337985877170872,0.19289826284554992,0.20613844048863594
0.734,-0.0092,-0.444,0.045649917071699055,1.3304721784038582,0.19304102106421744,0.20343521200008105
0.7350000000000001,-0.053,1.556,0.0457454861147934,1.337985877170872,0.1936042783223968,0.20613844048863594
0.736,-0.0237,2.556,0.0458051172305653,1.3379858771708721,0.1939557274704091,0.20613844048863603
0.7370000000000001,0.0242,-1.444,0.04601657584401792,1.3820478419731745,0.1952020055011952,0.22199076065858964
0.738,-0.0204,-0.444,0.045805434065847944,1.3821020973534146,0.1939575948091081,0.22201028029786055
0.7390000000000001,-0.0377,1.556,0.044618966020662065,1.3748658834630771,0.1869648833995243,0.21940688346972134
0.74,-0.0006,0.556,0.04387348637226651,1.3749204222487605,0.1825712344815449,0.21942650507071468
0.7410000000000001,0.0041,1.556,0.04407081001047919,1.3822106017249,0.18373420491459536,0.2220493172778124
0.742,0.0084,0.556,0.044227920432568284,1.3822106017249005,0.18466016987889816,0.22204931727781255
0.7430000000000001,0.0123,0.556,0.0443123320494917,1.382210601724901,0.18515766838225592,0.2220493172778127
0.744,0.0302,-1.444,0.042658342254311345,1.403693762013179,0.17540951430510093,0.22977838557243455
0.7450000000000001,0.0269,0.556,0.04044588004131348,1.3893006217182506,0.16236987971664527,0.22460011743959032
0.746,0.0182,-0.444,0.04039298909149005,1.3893006217182506,0.16205815522495357,0.22460011743959032
0.7470000000000001,0.0372,-1.444,0.04064381858980373,1.3820659273365803,0.16353647425919565,0.2219972672901569
0.748,0.0007,0.556,0.04073966126833575,1.389300621718252,0.16410134424824868,0.2246001174395908
0.7490000000000001,-0.0256,0.556,0.04071599768746002,1.389282630534451,0.16396187770917692,0.22459364469133436
0.75,-0.0302,0.556,0.04064523212874823,1.382102097353425,0.1635448052630901,0.2220102802978643
0.7510000000000001,-0.017,-1.444,0.04051846548216968,1.3601861003203746,0.1627976780400003,0.21412548888262728
0.752,0.043,-1.444,0.039888838551286346,1.3601861003203746,0.15908683269424187,0.21412548888262728
0.7530000000000001,0.0177,-0.444,0.03939306526256406,1.3601677240336019,0.1561648833449258,0.21411887758458908
0.754,0.0255,0.556,0.039129792931726734,1.3601677240336023,0.15461322972969044,0.21411887758458925
0.7550000000000001,0.0045,0.556,0.03914950543779044,1.360186100320375,0.15472940973691646,0.21412548888262745
0.756,-0.0143,1.556,0.039124010161850215,1.3380605993439714,0.15457914769852354,0.20616532353429862
0.7570000000000001,0.0386,0.556,0.03913852538056326,1.3455504998032393,0.15466469634512992,0.20885999002622938
0.758,0.0455,-1.444,0.039115872403718756,1.3529989384787953,0.1545311860240687,0.21153973967382134
0.7590000000000001,0.0267,-0.444,0.03902168532692612,1.3603514757307196,0.1539760736894419,0.21418498654608348
0.76,-0.0027,0.556,0.03902585856341241,1.3603331016779483,0.1540006695801707,0.21417837605177945
0.7610000000000001,-0.0396,0.556,0.03900084977615407,1.3603331016779483,0.15385327477024655,0.21417837605177945
0.762,-0.0156,0.556,0.03881212779462111,1.352943516011939,0.152741000100179,0.2115198001479024
0.7630000000000001,-0.0287,0.556,0.03874054479297654,1.352961990419815,0.15231910987366742,0.21152644674729745
0.764,-0.0645,0.556,0.03884608843296175,1.3529435160119374,0.15294115462112454,0.21151980014790184
0.7650000000000001,-0.0209,-1.444,0.03883532229436564,1.3894985093654206,0.15287770200602577,0.22467131213902536
0.766,0.0202,-2.444,0.03887359643355447,1.3966947044829527,0.15310327909668886,0.22726031127967683
0.7670000000000001,-0.0055,-0.444,0.038876355909074616,1.3895524738327523,0.15311954267498956,0.22469072711558805
0.768,-0.0851,0.556,0.0388209597335752,1.3823190975793986,0.1527930530825949,0.22208835119357945
0.7690000000000001,-0.0963,2.556,0.03877941479956029,1.3895524738327527,0.15254819884039658,0.22469072711558818
0.77,-0.0238,3.556,0.038760233339868874,1.3895524738327527,0.15243514867222654,0.22469072711558818
0.7710000000000001,0.0234,1.556,0.03876190891174348,1.3967483909196827,0.15244502402505433,0.2272796262282418
0.772,0.0833,-2.444,0.038746902934317144,1.3967483909196803,0.15235658298360627,0.2272796262282409
0.7730000000000001,0.1066,-2.444,0.038581303749342044,1.39674839091968,0.151380587620822,0.22727962622824083
0.774,0.0998,-1.444,0.038340458668938815,1.3896064362044076,0.14996111395820522,0.22471014133818226
0.7750000000000001,0.0809,-1.444,0.0374609833352557,1.3824275849189034,0.14477773188125265,0.22212738204587876
0.776,-0.0072,-1.444,0.037418286977609315,1.3896064362044045,0.1445260914696352,0.22471014133818112
0.7770000000000001,-0.1207,0.556,0.03711811128521654,1.3824275849189005,0.14275693974440196,0.22212738204587773
0.778,-0.1056,1.556,0.03675766375478525,1.3751930837328634,0.1406325626329996,0.21952460140308222
0.7790000000000001,-0.0642,1.556,0.03682170578850687,1.3751930837328634,0.14101000849992806,0.21952460140308222
0.78,-0.0268,1.556,0.03677481448060315,1.3751930837328634,0.14073364422267756,0.21952460140308222
0.7810000000000001,-0.0156,1.556,0.036753135693463425,1.3751930837328634,0.14060587550375336,0.21952460140308222
0.782,0.0153,0.556,0.03670747262083776,1.33092297957271,0.140336750102322,0.20359739824151835
0.7830000000000001,0.0247,0.556,0.03677195446602948,1.323406954627601,0.14071678809526475,0.20089333285610458
0.784,0.0329,1.556,0.03671942046670826,1.323350292836595,0.14040716737017642,0.20087294745439901
0.7850000000000001,0.0253,0.556,0.0367745799221841,1.3233691803698246,0.1407322618008418,0.20087974268528172
0.786,0.0462,-3.444,0.03650582507006228,1.3157720157955564,0.1391482957358149,0.1981464854246151
0.7870000000000001,-0.0119,1.556,0.03644551328340841,1.2927126624059588,0.13879283490366,0.1898503448760914
0.788,-0.0195,-0.444,0.03645560124269525,1.3081689445758533,0.13885229051925013,0.19541110311040213
0.7890000000000001,-0.0126,1.556,0.03652976526873201,1.3081689445758533,0.13928939258293585,0.19541110311040213
0.79,0.0454,1.556,0.03657115770444802,1.300463766334419,0.13953334804273626,0.19263898541211477
0.7910000000000001,0.0377,0.556,0.03693290920848581,1.3080925149027889,0.14166541041052033,0.19538360575177688
0.792,0.0307,-0.444,0.037004930821415635,1.3080351897172735,0.1420898856894918,0.19536298167841407
0.7930000000000001,0.0118,-2.444,0.03699546544843067,1.315620035395746,0.14203409942374579,0.19809180692881578
0.794,0.0059,-1.444,0.037059092458828546,1.323161402675692,0.14240909925907402,0.20080498981063474
0.7950000000000002,-0.0633,1.556,0.0370722446147333,1.3156010366112914,0.14248661439404034,0.1980849716727085
0.796,-0.0539,0.556,0.037757079432992634,1.3231991828650378,0.14652283961456197,0.20081858211547815
0.7970000000000002,-0.0285,1.556,0.03817470729715301,1.3232180725552019,0.1489842216488475,0.20082537812236834
0.798,-0.0052,-0.444,0.03800857785922247,1.31567703010302,0.1480051011231846,0.19811231210491848
0.7990000000000002,0.0017,0.556,0.0381285260905583,1.323274740007797,0.14871204251045983,0.20084576556096273
0.8,-0.0045,0.556,0.03821292746537038,1.32325585112657,0.14920948064967288,0.20083896984510646
0.8010000000000002,0.0013,0.556,0.03811289887828751,1.3456805258064426,0.14861994008428045,0.20890676991547052
0.802,-0.0143,-0.444,0.03808220440284825,1.3382473865233975,0.14843903541559914,0.2062325245813965
0.8030000000000002,-0.0001,0.556,0.037836988667129305,1.330791511672923,0.1469938023307901,0.20355009959632978
0.804,0.013,0.556,0.03780042285775525,1.3383220940957012,0.14677829365910855,0.20625940237408216
0.8049999999999999,0.017,2.556,0.03775314638737176,1.3383220940957012,0.14649965934173534,0.20625940237408216
0.8060000000000003,0.01330000000000142,1.556,0.03805379117478567,1.338322094095701,0.148271575782057,0.20625940237408208
0.8070000000000002,0.0165,1.556,0.039533272172399526,1.330791511672923,0.15699122372727917,0.20355009959632978
0.808,0.0192,-1.444,0.040592923479486266,1.3382473865233975,0.1632365126883358,0.2062325245813965
0.8089999999999999,0.0056,-0.444,0.04106300276014425,1.3307727294841534,0.16600702872760342,0.20354334226557513
0.8100000000000003,-0.001499999999985123,0.556,0.04118937099109698,1.330791511672923,0.16675180780022789,0.20355009959632978
0.8110000000000002,0.032,0.556,0.04118943368910556,1.3307727294841534,0.1667521773247859,0.20354334226557513
0.812,-0.0117,0.556,0.04154459993840284,1.330753947030293,0.1688454280396596,0.2035365848394479
0.813,-0.0291,-0.4439999999995559,0.04294163907893355,1.3307351643113308,0.1770791866960874,0.2035298273179441
0.8140000000000003,-0.013500000000002087,3.555999999999778,0.043429915050279516,1.3382473865233975,0.17995694894995548,0.2062325245813965
0.8150000000000002,-0.0182,1.555999999999889,0.04300292382370381,1.3382473865233975,0.17744038187174113,0.2062325245813965
0.8160000000000001,-0.0052,0.556,0.04308388178245852,1.3382473865233975,0.17791752547807566,0.2062325245813965
0.817,-0.0093,0.5560000000001111,0.04356445145520177,1.31567703010302,0.18074986895949255,0.19811231210491848
0.8180000000000003,0.0014999999999984457,1.556,0.043939927785193234,1.315696027790121,0.18296282161962812,0.1981191469662272
0.8190000000000002,-0.002,1.556,0.04334515815695704,1.3232369619757087,0.17945741548389899,0.20083217403224307
0.8200000000000001,-0.0051,1.556,0.04231798471587071,1.3003099967056717,0.1734035419975882,0.1925836631994478
0.821,0.0137,1.555999999999778,0.04272990978460766,1.2532382564878497,0.17583131334780536,0.17564850608065302
0.8220000000000003,0.016000000000005107,-0.443999999999889,0.04472066647218942,1.2925579706646448,0.18756427746718649,0.189794690911908
0.8230000000000002,0.0275,0.556,0.04621686451097375,1.31567703010302,0.19638245098585463,0.19811231210491848
0.8240000000000001,0.0181,0.555999999999778,0.045450419445294446,1.292731997572081,0.19186523775171715,0.1898573011533542
0.825,0.0016,-1.443999999999778,0.044421789791915044,1.2850120612471705,0.18580278175670933,0.18707987389010736
0.8260000000000003,-0.009600000000006171,0.555999999999889,0.044596836148989884,1.2850120612471705,0.18683445611430363,0.18707987389010736
0.8270000000000002,-0.0235,-0.443999999999889,0.04528337521281533,1.2850120612471703,0.19088072568238545,0.18707987389010727
0.8280000000000001,-0.022,0.556,0.04418659881972926,1.2927319975720806,0.18441663182936172,0.18985730115335403
0.829,0.0025,0.556,0.04291121064848773,1.2849342541712796,0.17689985002232061,0.187051880978669
0.8300000000000003,-0.00119999999999849,0.556,0.04261920227360271,1.2771084713291596,0.17517883418625352,0.184236372960576
0.8310000000000002,0.0022,0.555999999999889,0.04300480848310124,1.2771084713291598,0.17745148952805354,0.18423637296057607
0.8320000000000001,0.023,-0.44400000000011103,0.04334733166327871,1.269214744452925,0.17947022552334002,0.18139642049051044
0.833,0.0098,-1.444,0.043390271802574945,1.2770888996223808,0.17972330271594056,0.18422933158229152
0.8340000000000003,0.02190000000000293,0.556,0.043325329518691134,1.2848564423836244,0.17934055102589602,0.1870238863720635
0.8350000000000002,0.0285,0.556,0.04320648590956941,1.2770301827023136,0.1786401199735524,0.18420820679994293
0.8360000000000001,0.0105,-0.444,0.0431496686890775,1.2770106097956682,0.17830525513871198,0.18420116498997843
0.837,-0.026,2.556,0.0429075929529046,1.2373382914711333,0.1768785283345742,0.16992812258738493
0.8380000000000003,-0.030999999999967935,-0.444,0.042893574111733036,1.2292095254832285,0.17679590519861427,0.16700360931147756
0.8390000000000002,0.0412,-0.444,0.042944211645994525,1.2372978895709408,0.17709434868811255,0.1699135870608781
0.8400000000000001,0.0514,-1.444,0.042931490885325926,1.2372978895709406,0.17701937607622736,0.16991358706087806
0.841,0.0233,-1.444,0.04301756078175084,1.2291688563963472,0.1775266480159937,0.1669889776583238
0.8420000000000003,-0.002000000000010303,-1.444,0.04308378292940917,1.2291485213482967,0.17791694286580145,0.1669816616502017
0.8430000000000002,-0.0252,-1.444,0.04313263639420025,1.2291688563963472,0.17820487154793363,0.1669889776583238
0.8440000000000001,-0.0321,-0.444,0.04322144021987021,1.2045771239487755,0.17872825650338747,0.15814152798053788
0.845,-0.0767,1.556,0.04328303740489283,1.2046393724043318,0.17909129311465874,0.1581639233151988
0.8460000000000003,-0.059399999999978775,0.556,0.042857817519493954,1.1962884382726027,0.17658516582680178,0.15515947986451892
0.8470000000000002,-0.0116,0.556,0.04252841301290316,1.1962884382726027,0.17464374763104673,0.15515947986451892
0.8480000000000001,-0.0304,1.556,0.042461389273820725,1.1878787974969092,0.17424872842518074,0.15213391532855833
0.849,-0.0361,-0.444,0.043067363619066934,1.2128297726963597,0.177820172034734,0.16111061097045568
0.8500000000000003,0.01159999999999165,-2.444,0.04319525672082658,1.2128297726963597,0.17857393827016735,0.16111061097045568
0.8510000000000002,-0.0072,-0.444,0.04337852635750735,1.2372574863514483,0.17965407834191038,0.16989905105972236
0.8520000000000001,-0.0015,0.556,0.04362326672498058,1.2612121619801742,0.18109650973899674,0.17851730467909124
0.853,-0.0067,1.556,0.0436058794280612,1.307863199084945,0.18099403386529467,0.19530110403446113
0.8539999999999999,0.0172,0.556,0.04471629482430523,1.3306412467395956,0.18753851219507278,0.20349603827963383
0.8550000000000002,0.0478,0.556,0.04753982030945993,1.3381539961927795,0.20417958310752085,0.20619892523038308
0.8560000000000001,0.1079,-0.444,0.04865383401321949,1.3381539961927795,0.2107452688571878,0.20619892523038308
0.857,0.0998,-1.444,0.04892347371704754,1.3306224624297855,0.21233444999113046,0.2034892801857854
0.8579999999999999,0.0768,-0.444,0.048957585573246136,1.3230669474825174,0.21253549574791242,0.2007710073504645
0.8590000000000002,0.0418,0.556,0.048952247088154745,1.3230669474825174,0.2125040322072297,0.2007710073504645
0.8600000000000001,-0.0028,-0.444,0.04895961673220734,1.3230669474825174,0.21254746683175266,0.2007710073504645
0.861,-0.0672,-0.444,0.048989175467200496,1.3230480556346798,0.21272167776333079,0.20076421056730087
0.8619999999999999,-0.1099,-0.444,0.048895308774714936,1.323029163517081,0.21216845368436216,0.20075741368708439
0.8630000000000002,-0.0711,1.556,0.0488841299636834,1.323029163517081,0.21210256889314255,0.20075741368708439
0.8640000000000001,0.021,0.556,0.048840921609998394,1.3230291635170828,0.21184791091981708,0.20075741368708502
0.865,0.0334,-1.444,0.0488774916750058,1.2767952880194726,0.2120634446730135,0.18412369795574313
0.8659999999999999,0.0675,-0.444,0.04893483962018287,1.2767365575962537,0.21240143745097578,0.1841025683153206
0.8670000000000002,0.0574,0.556,0.04898519023405233,1.2767169801881435,0.21269818991178846,0.1840955248858491
0.8680000000000001,0.0448,-1.444,0.04897812551479447,1.276716980188143,0.21265655242887402,0.18409552488584893
0.869,-0.0212,-0.444,0.04898699123192563,1.2688405169676493,0.21270880449043503,0.18126178341884094
0.8699999999999999,-0.0639,-0.444,0.04900830390952468,1.2609148533888923,0.2128344154619402,0.17841034097469394
0.8710000000000002,-0.1342,3.556,0.049015754957074234,1.2529191065239338,0.2128783298559473,0.17553368443270964
0.8720000000000001,-0.1436,3.556,0.04899918461485013,1.2448720044601933,0.21278066888513453,0.17263855165941935
0.873,-0.0663,0.556,0.04898127271747176,1.24489208266851,0.21267510116278984,0.17264577526345296
0.8739999999999999,0.0272,0.556,0.04890612542553254,1.2687026158579249,0.21223220400439197,0.18121217027623707
0.8750000000000002,0.09,-1.444,0.04887968231167394,1.2687026158579258,0.21207635567393396,0.1812121702762374
0.8760000000000001,0.0787,-1.444,0.04887936320850768,1.2608157349457334,0.21207447496896212,0.17837468080150937
0.877,0.0685,-1.444,0.048876537396558395,1.2686829144757767,0.21205782042226845,0.18120508224421208
0.8779999999999999,0.0026,-0.444,0.04882267886407355,1.2920744396042951,0.21174039326850871,0.18962072932814358
0.8790000000000002,-0.0402,0.556,0.04886037856054874,1.2920550945980414,0.21196258475419566,0.1896137695106638
0.8800000000000001,-0.0635,1.556,0.04938537052685068,1.2920357493021444,0.21505674083163492,0.18960680958897813
0.881,-0.0567,-0.444,0.049683623250271224,1.2997716597451852,0.21681455911461744,0.19238998391403142
0.8819999999999999,-0.0249,1.556,0.04971340534729543,1.3074617996250422,0.21699008647964638,0.1951566912107712
0.8830000000000002,-0.0076,-1.444,0.04970840055847232,1.307461799625042,0.21696058965160459,0.19515669121077114
0.8840000000000001,0.0079,0.556,0.049768834256250186,1.2998293493696595,0.21731676899388802,0.19241073910281511
0.885,0.0124,-0.444,0.04972864435257528,1.3226512644974688,0.21707990092220425,0.2006214556952499
0.8859999999999999,0.008,1.556,0.05030936612435871,1.3302091405033847,0.22050251291400683,0.20334057797652244
0.8870000000000002,0.004,0.556,0.050799951222318125,1.3302279306497637,0.22339388451545195,0.2033473381702128
0.8880000000000001,-0.0286,-1.444,0.050791590242980744,1.3150879656809096,0.22334460723753027,0.19790038243128905
0.889,-0.0069,1.556,0.05080219330097786,1.315106971877479,0.2234070987011089,0.19790722035407765
0.8899999999999999,0.0529,0.556,0.050695329129611555,1.315125977799371,0.22277727111036935,0.19791405817804456
0.8910000000000002,0.0446,-0.444,0.05043390688164149,1.3075191499495333,0.22123652136703098,0.19517732432846727
0.8920000000000001,0.0369,0.556,0.050379835009690475,1.2998870364338393,0.22091783685001967,0.19243149337047308
0.893,0.03,0.556,0.050380603910718184,1.2922098465391565,0.22092236853800834,0.1896694451331306
0.8939999999999999,0.0237,1.556,0.05032511035847049,1.2922678737393225,0.2205953050342458,0.18969032177264783
0.8950000000000002,0.0178,0.556,0.05024844309818956,1.3000216296288094,0.22014344960680018,0.1924799164135429
0.8960000000000001,-0.0088,0.556,0.04966574023376837,1.2922872155603589,0.21670916160808987,0.1896972804441713
0.897,0.0151,0.556,0.049321267363845206,1.2922872155603589,0.21467893468577404,0.1896972804441713
0.8979999999999999,0.072,-2.444,0.04950812041111478,1.292287215560359,0.21578019437907892,0.1896972804441714
0.8990000000000002,0.0331,0.556,0.04946147003815293,1.2845062310081434,0.21550525010510943,0.18689788965638834
0.9000000000000001,0.0399,-2.444,0.04941169999786925,1.284525689700577,0.21521191938292158,0.18690489037512456
0.901,0.046,-2.444,0.04951778917348637,1.2688799145320029,0.21583717936508567,0.1812759576120902
0.9019999999999999,-0.0071,-3.444,0.04954220304712154,1.276716980188149,0.21598106792020816,0.1840955248858511
0.9030000000000002,-0.0992,2.556,0.049649610141282434,1.2999447209380643,0.21661409534632098,0.19245224671712757
0.9040000000000001,-0.1621,1.556,0.049801669328499325,1.2998870364338342,0.21751028974253583,0.19243149337047122
0.905,-0.1051,2.556,0.05026725899125069,1.2998870364338335,0.2202543452273135,0.192431493370471
0.9059999999999999,-0.0532,-0.444,0.05003992350783359,1.2998678076968961,0.21891449335760302,0.1924245753835913
0.9070000000000003,-0.0249,0.556,0.048903605320427077,1.2998678076968957,0.2122173512084858,0.19242457538359115
0.9080000000000001,0.0178,-1.444,0.04788932926098838,1.2921905035600334,0.20623949128879995,0.18966248604495842
0.909,0.0101,-0.444,0.04731716881033698,1.292190503560033,0.20286733733352355,0.18966248604495825
0.9099999999999999,0.0169,-0.444,0.04715627563487627,1.292190503560033,0.20191907787695132,0.18966248604495825
0.9110000000000003,0.0106,-0.444,0.04736723541943861,1.2922098465391492,0.20316241594952564,0.18966944513312797
0.9120000000000001,0.0047,0.556,0.04705771759065464,1.2999639485373164,0.20133820428062377,0.19245916429469842
0.913,0.0202,-0.444,0.04589280564071955,1.3076147282340969,0.194472538478225,0.19521171084697578
0.9139999999999999,-0.0233,-0.444,0.04544626995484032,1.3227457493739043,0.19184078181347233,0.20065544883466602
0.9150000000000003,0.0296,-1.444,0.04578089948599999,1.3302467205307187,0.19381299484526732,0.20335409826841064
0.9160000000000001,0.0226,-0.444,0.04594015688910721,1.3672806432765487,0.19475161351627757,0.21667791628583935
0.917,0.0036,0.556,0.045645552979862294,1.3745567894695123,0.1930153003253377,0.21929567969180122
0.9179999999999999,0.0093,0.556,0.04554149232331086,1.3745567894695123,0.19240199586820672,0.21929567969180122
0.9190000000000003,0.0144,0.556,0.04572673664575174,1.3746113405187417,0.19349377418650943,0.21931530570489144
0.9200000000000002,0.0097,-0.444,0.04569190421241686,1.3819031505451935,0.19328848154926337,0.2219387045405183
0.921,0.0053,-0.444,0.04530349729132867,1.3891566857236557,0.19099931959528155,0.22454833310631017
0.9219999999999999,0.0091,0.556,0.04340231109695737,1.3526478911700308,0.1797942589557929,0.21141344221163816
0.9230000000000003,0.0053,-2.444,0.040966678323147133,1.3074617996250342,0.16543931938865877,0.19515669121076834
0.9240000000000002,0.0085,0.556,0.04045113018386692,1.3074426822911716,0.16240082259107355,0.19514981330374476
0.925,-0.0001,-0.444,0.04036242479499607,1.3074235646777725,0.16187801779463123,0.19514293529615145
0.9259999999999999,-0.008,-1.444,0.039453076239677774,1.2997716597451774,0.15651857128963365,0.19238998391402862
0.9270000000000003,0.0041,-2.444,0.03882154685067052,1.292093784320911,0.15279651338683808,0.18962768904141938
0.9280000000000002,0.0289,-0.444,0.03821467309988084,1.2921518167331314,0.1492197689321157,0.1896485675560948
0.929,0.0717,-0.444,0.03821386972829184,1.2999062648863307,0.1492150340842626,0.19243841125501665
0.9299999999999999,0.0542,1.556,0.03800518478135226,1.307538266165366,0.14798510326952735,0.19518420183325347
0.9310000000000003,0.01720000000000209,1.556,0.03748203569069959,1.2998485786755056,0.14490180858665438,0.192417657294373
0.9320000000000002,0.0219,-0.444,0.037055560261983846,1.2998678076968948,0.1423882814770216,0.19242457538359084
0.933,0.0263,0.556,0.036972968767396634,1.2998101197793208,0.14190151026655543,0.1924038208089044
0.9339999999999999,-0.0095,-2.444,0.03696645987632064,1.29213247288532,0.14186314867976385,0.18964160815539172
0.9350000000000003,-0.08159999999999548,1.556,0.03725869671476184,1.2998101197793208,0.1435855110162466,0.1924038208089044
0.9360000000000002,-0.0714,0.556,0.03781904563624278,1.3226512644974613,0.1468880511162405,0.20062145569524717
0.937,-0.0243,1.556,0.038120875620677494,1.3376122036931086,0.14866695277690886,0.20600400273409863
0.938,-0.0327,0.556,0.038181843727100206,1.3450860186139524,0.14902628177454405,0.20869288207817183
0.9390000000000003,-0.02519999999999063,0.555999999999889,0.03813667009975467,1.345141764825081,0.14876004102694604,0.20871293807864838
0.9400000000000002,-0.0041,-0.443999999999889,0.03846938432770494,1.3376495757382552,0.15072096579635627,0.2060174481995409
0.9410000000000001,0.0022,0.556,0.038376270046713006,1.345123183011405,0.15017217622066611,0.2087062528375101
0.942,-0.0035,0.5560000000001111,0.03824612814070505,1.3525739748637533,0.14940515616083444,0.21138684909537228
0.9430000000000003,-0.008399999999989341,1.556,0.038164079569470884,1.3525554951560153,0.14892158478903295,0.21138020058922813
0.9440000000000002,0.0156,1.555999999999889,0.038051919852983535,1.3599471892241746,0.14826054673380754,0.2140395350399852
0.9450000000000001,-0.0061,0.556,0.03797892712936481,1.3525554951560153,0.14783034799955905,0.21138020058922813
0.946,-0.0101,0.556,0.03793643932280787,1.3525554951560153,0.14757993672983763,0.21138020058922813
0.9470000000000003,0.044299999999989695,0.556,0.03792826141752283,1.3525554951560153,0.14753173843926817,0.21138020058922813
0.9480000000000002,0.0211,0.556,0.03789768953411774,1.352537015195789,0.14735155629380994,0.21137355199224547
0.9490000000000001,0.0281,0.555999999999778,0.03720570436386523,1.3302279306497564,0.1432731888949396,0.20334733817021017
0.95,0.0343,-1.444,0.037056880032286,1.3302279306497564,0.14239605983471723,0.20334733817021017
0.9510000000000003,0.016900000000006927,-1.444000000000111,0.03684096133534465,1.3075191499495264,0.1411234953170545,0.19517732432846477
0.9520000000000002,0.0325,-2.443999999999889,0.03663234410042475,1.2844089331239992,0.13989396357805878,0.1868628844717981
0.9530000000000001,-0.0396,-1.443999999999778,0.03662863170781329,1.236893797986201,0.13987208377246577,0.1697682056824484
0.954,-0.0706,0.555999999999889,0.03527415243110507,1.212335059911545,0.13188916107116494,0.16093262650035228
0.9550000000000003,-0.00469999999998872,-0.444,0.03134152622999551,1.204016743025914,0.108711360187519,0.15793991786518805
0.9560000000000002,0.0207,-0.443999999999889,0.02953339965733234,1.17879444242104,0.09805476697716196,0.14886560657640985
0.9570000000000001,0.0131,0.555999999999889,0.02907583637191949,1.1788156460976966,0.09535801671954185,0.14887323509394534
0.958,-0.022,-0.443999999999889,0.028970511196990963,1.1787944424210408,0.09473725954413581,0.14886560657641018
0.9590000000000003,-0.015700000000012967,0.556,0.028915880187422603,1.1787944424210408,0.0944152796261129,0.14886560657641018
0.9600000000000002,-0.0449,0.556,0.028909469499688697,1.1788156460976966,0.09437749682240228,0.14887323509394534
0.9610000000000001,-0.0398,1.556,0.028891865140978985,1.1788156460976966,0.09427374164710926,0.14887323509394534
0.962,-0.035,-1.444,0.028877553924711953,1.178836849392963,0.09418939533396453,0.14888086347426677
0.9630000000000003,0.030700000000012568,-2.444,0.028873775215924533,1.1788156460976957,0.09416712467934514,0.148873235093945
0.9640000000000002,0.059,-1.444,0.0288027940878889,1.1788156460976948,0.09374878172784815,0.1488732350939447
0.9650000000000001,0.0507,-3.444,0.02871567524050023,1.1788368493929622,0.09323532756395696,0.14888086347426646
0.966,0.0432,-1.444,0.02856100191857182,1.170344525124428,0.09232372618758987,0.14582555162206243
0.9670000000000003,-0.048800000000005464,0.556,0.028478795563005078,1.170365881889387,0.09183922487898379,0.14583323521668748
0.9680000000000002,-0.0611,1.556,0.02847752018500916,1.170344525124427,0.09183170815714727,0.14582555162206212
0.9690000000000001,-0.0113,1.556,0.028466289103353786,1.170344525124427,0.09176551529746414,0.14582555162206212
0.97,0.0228,1.556,0.028445644783645706,1.1703231679697368,0.0916438434407702,0.14581786788722212
0.9710000000000003,0.032999999999987435,1.556,0.028429013983808222,1.1703231679697368,0.09154582614966325,0.14581786788722212
0.9720000000000002,0.0047,-0.444,0.028423756707896722,1.170344525124426,0.0915148412332141,0.1458255516220617
0.9730000000000001,0.0131,-0.444,0.028423756707896722,1.170323167969736,0.0915148412332141,0.14581786788722179
0.974,0.0055,-0.444,0.02843926926085766,1.1531289205846464,0.09160626788943284,0.13963183610555274
0.9750000000000003,-0.029700000000002755,-0.444,0.0284280527015605,1.1531072445729893,0.09154016062047454,0.13962403765447734
0.9760000000000002,-0.0359,0.556,0.028429037720289468,1.1617901262666641,0.09154596604585676,0.14274790698766626
0.9770000000000001,-0.0065,1.556,0.02842472255815842,1.1531939461750182,0.09152053368500183,0.13965523057927717
0.978,-0.0014,1.556,0.028422866275471217,1.126945538835267,0.09150959327309705,0.13021175344501748
0.9790000000000003,0.003300000000001954,-1.444,0.028274502175708153,1.126945538835267,0.09063517669070753,0.13021175344501748
0.9800000000000002,0.0077,0.556,0.027349489179271862,1.126945538835267,0.08518340834309901,0.13021175344501748
0.9810000000000001,-0.0043,0.556,0.026821690476604522,1.11799206951423,0.08207271014513176,0.12699053389782383
0.982,-0.0007,-1.444,0.02676575195923314,1.117924996361881,0.08174302414115955,0.1269664027658914
0.9829999999999999,0.0025,0.556,0.026676168305206277,1.117924996361881,0.08121504309508956,0.1269664027658914
0.9840000000000002,0.0471,-1.444,0.026580557654228017,1.117902637750136,0.08065154061165886,0.1269583587335037
0.9850000000000001,0.0659,-2.444,0.026589626547035207,1.0907824198678264,0.08070499013392997,0.11720122740996344
0.986,0.0484,-2.444,0.025312705806447088,1.081552725247693,0.07317917579103646,0.11388062936478488
0.9869999999999999,0.0218,1.556,0.02429223394323375,1.0815296147072033,0.06716479953370273,0.11387231480848245
0.9880000000000002,-0.0217,1.556,0.024172868434364995,1.0721969630085288,0.06646129254995875,0.11051467555145325
0.9890000000000001,-0.0511,-0.444,0.023972052661735608,1.0721736508060216,0.06527774045162145,0.11050628844253356
0.99,-0.046,1.556,0.02385602729230412,1.081414054596441,0.06459391931719079,0.11383073936165664
0.9909999999999999,-0.0319,1.556,0.023853863606908582,1.081437167606475,0.0645811671595465,0.11383905480643519
0.9920000000000002,-0.0275,-0.444,0.02385302546500184,1.081437167606475,0.0645762273851481,0.11383905480643519
0.9930000000000001,-0.0076,1.556,0.02386400176631599,1.081414054596441,0.0646409186406319,0.11383073936165664
0.994,-0.004,0.556,0.02390658128033141,1.0720803969267954,0.06489187040850991,0.11047273818309288
0.9949999999999999,-0.0007,0.556,0.024085384692539936,1.0720104511937927,0.06594568780013396,0.11044757357322911
0.9960000000000002,-0.0037,0.556,0.024591082287145963,1.0812522496923276,0.06892612823757249,0.11377252627114685
0.9970000000000001,-0.0013,-0.444,0.024874966922247714,1.0812291327293764,0.07059926501941523,0.11376420940421403
0.998,-0.0035,0.556,0.024562232824043975,1.081206015272168,0.06875609755650006,0.1137558923594607
0.9989999999999999,-0.0014,0.556,0.024477420672004088,1.0811828973206707,0.06825623841099078,0.11374757513687532
1.0000000000000002,-0.0033,-0.444,0.024432134801457946,1.081159778874854,0.06798933613330548,0.11373925773644698
1.0010000000000001,0.0243,-0.44399999999977796,0.025275000829780698,1.0812291327293775,0.07295695318537677,0.11376420940421443
1.002,0.0044,0.556,0.02645987215222212,1.071987134935265,0.07994025395689204,0.11043918500506143
1.003,0.0081,-0.444,0.026349715030761934,1.0532598812613736,0.07929101863765438,0.10370161843320139
1.0040000000000002,0.0048,-0.444,0.026053297919693456,1.0721736508060287,0.07754401894139229,0.11050628844253613
1.0050000000000001,0.0018,0.556,0.02509649482912425,1.0814833921446638,0.07190488865440665,0.11385568516285181
1.006,-0.0116,0.556,0.025093253347585075,1.0907365894150283,0.07188578426720052,0.11718473883496344
1.007,0.0004,-0.44400000000022205,0.026211550241555116,1.090736589415029,0.07847671394414879,0.11718473883496368
1.0080000000000002,0.0024,-1.444,0.026610194391429597,1.1443366408014433,0.08082621126647609,0.13646860825648813
1.0090000000000001,0.0081,0.555999999999778,0.02711008670363423,1.1530205364514254,0.08377243699021136,0.13959284238412267
1.01,0.0136,-0.444,0.027107267957939774,1.1529988584021813,0.08375582409005083,0.1395850431999778
1.011,0.0056,0.555999999999778,0.02682820222921775,1.161596482205733,0.08211108859702491,0.14267823901741883
1.0120000000000002,0.0012,-0.444,0.02655650487975571,1.1615319270113649,0.08050978027418741,0.142655013779635
1.0130000000000001,-0.0025,-0.44399999999977796,0.02640242353203777,1.1615319270113649,0.07960166782854418,0.142655013779635
1.014,-0.006,0.556,0.026622961712414694,1.1442055791983947,0.08090145829186758,0.1364214557860335
1.015,-0.0006,-0.44399999999977796,0.02652041496124791,1.1616395170089269,0.0802970763704081,0.14269372179222792
1.0160000000000002,-0.0072,0.556,0.026218321056218002,1.135652370881482,0.07851661923543536,0.13334423947649382
1.0170000000000001,-0.0028,-0.44399999999977796,0.02814817274554324,1.1532156205570276,0.08989062629909374,0.13966302844404876
1.018,0.0049,0.556,0.029508373084639893,1.178985261782661,0.09790726734485469,0.14893425829515677
1.019,-0.0099,-0.444,0.029371815282888493,1.178985261782661,0.09710243378675826,0.14893425829515677
1.0200000000000002,0.0015,-0.444,0.030001144584556234,1.1789216587605515,0.10081152498901473,0.14891137562356507
1.0210000000000001,-0.0001,0.555999999999778,0.03022533147487669,1.1703658818893907,0.1021328199300659,0.14583323521668884
1.022,0.0091,-0.444,0.030046218778178393,1.1703658818893907,0.10107717970200794,0.14583323521668884
1.023,0.0107,-1.443999999999778,0.030198398901588815,1.1789216587605518,0.10197408686238343,0.14891137562356516
1.0240000000000002,0.0032,-0.444,0.03016949153258731,1.1789428601491807,0.10180371490010592,0.14891900331792923
1.0250000000000001,0.0022,1.556,0.030294469169243998,1.1789640611565435,0.10254029819818805,0.14892663087512395
1.026,0.0059,0.556,0.030844302302723826,1.228741749715021,0.10578086117959495,0.1668353160617634
1.027,0.0026,0.556,0.030910649856057962,1.2765603501146088,0.10617189513544405,0.1840391735614119
1.0280000000000002,-0.0021,-0.444,0.031122110550630973,1.2686829144757694,0.10741818543177274,0.18120508224420945
1.0290000000000001,-0.0046,-0.444,0.031500092644489136,1.2607562601394184,0.10964590636455712,0.17835328335189538
1.03,-0.01,-0.444,0.031723799363719135,1.2528393063297194,0.11096437131125958,0.1755049744504384
1.031,0.0012,-1.444,0.03183712115882941,1.2608157349457263,0.11163225833344903,0.1783746808015068
1.0320000000000003,0.0027,-0.444,0.03193219805250223,1.2686829144757694,0.11219261500034057,0.18120508224420945
1.0330000000000001,-0.014,-0.444,0.032396725137562775,1.2607959103220205,0.11493040794886848,0.17836754843045521
1.034,-0.0118,-0.444,0.03292078631965431,1.2843116278686935,0.1180190782440363,0.1868278766352605
1.035,-0.0021,0.556,0.032828818985877445,1.2843116278686932,0.11747704845501679,0.1868278766352604
1.0360000000000003,0.0033,-0.444,0.03217450735899387,1.2843116278686932,0.11362071840272675,0.1868278766352604
1.0370000000000001,0.0018,-0.444,0.03180611029830978,1.2607959103220203,0.11144948897943523,0.17836754843045516
1.038,0.0094,-0.444,0.03191214572901207,1.2607364345804926,0.11207443220407629,0.17834615064437653
1.039,0.0083,-1.444,0.03248482760388061,1.252739548938539,0.11544965928811268,0.17546908440079106
1.0400000000000003,0.0021,0.556,0.033862695211594365,1.2527595010522703,0.12357042628259705,0.1754762626393548
1.0410000000000001,0.0011,0.556,0.03476151803548729,1.2447314479335425,0.1288678370652412,0.17258798316860324
1.042,0.0078,-0.444,0.03488282642881454,1.2446712045631707,0.12958279486755167,0.1725663092101328
1.043,0.0163,-0.444,0.034793393794920024,1.2446912860106052,0.1290557038919786,0.17257353397951467
1.0440000000000003,0.0331,-1.444,0.034791100134215686,1.2446912860106052,0.12904218569615192,0.17257353397951467
1.0450000000000002,0.0498,-1.444,0.034807884243912686,1.2526597373056798,0.12914110655276842,0.17544037030320042
1.046,0.0386,-0.444,0.034808916030978077,1.2606373021090302,0.12914718761766833,0.1783104854241824
1.047,0.0206,-0.444,0.03491691222469233,1.2685055882670502,0.12978368703207854,0.18114128500212653
1.0480000000000003,-0.0062,-0.444,0.034951861774309416,1.2764037008206826,0.12998966991999436,0.18398281532199026
1.0490000000000002,-0.0242,-0.444,0.03495352453677914,1.2842337783560802,0.12999946977776605,0.18679986845622087
1.05,-0.0735,1.556,0.03496216045564096,1.2842337783560804,0.1300503674724847,0.18679986845622096
1.051,-0.0803,0.556,0.03496088148219274,1.2842532411766512,0.13004282956005614,0.18680687066015084
1.0520000000000003,-0.0222,1.556,0.03487538832753738,1.2920550945980345,0.12953895677525962,0.18961376951066133
1.0530000000000002,0.0011,2.556,0.03487261504737896,1.2920550945980345,0.129522611836275,0.18961376951066133
1.054,0.008,1.556,0.034866496236742296,1.2920744396042882,0.1294865492746867,0.1896207293281411
1.055,0.0019,1.556,0.03486439630328928,1.2998293493696527,0.1294741728531928,0.19241073910281264
1.0560000000000003,0.07839999999998631,-0.444,0.03489947795292149,1.299810119779322,0.12968093430171687,0.19240382080890478
1.0570000000000002,0.0476,-3.444,0.03511586205897701,1.2997908899045012,0.1309562418107615,0.192396902412645
1.058,-0.0564,-1.444,0.035607474155513796,1.299810119779321,0.133853666255095,0.19240382080890447
1.059,-0.0152,-0.444,0.03586247190254082,1.2921131287479177,0.13535655178352463,0.1896346486505015
1.0600000000000003,0.022099999999994985,-1.444,0.03592140528664167,1.315163988819164,0.13570388869586672,0.19792773352952853
1.0610000000000002,0.0108,-1.444,0.035948852882032485,1.3151829939170951,0.13586565716003543,0.1979345710570564
1.062,-0.0201,-1.444,0.035945450938471867,1.315182993917096,0.13584560705447413,0.1979345710570567
1.063,0.0459,-1.444,0.036042246178017406,1.315182993917096,0.13641609117219636,0.1979345710570567
1.0640000000000003,0.05419999999996185,2.556,0.03624476382703778,1.315182993917097,0.13760967365483706,0.19793457105705703
1.0650000000000002,-0.0317,2.556,0.036405175746512954,1.315182993917097,0.1385550967229919,0.19793457105705703
1.066,-0.1114,2.556,0.03667408690654256,1.315201998740399,0.14013998402318786,0.1979414084857806
1.067,-0.1012,2.556,0.03697030125930382,1.315201998740399,0.14188578871859509,0.1979414084857806
1.0680000000000003,-0.054100000000003645,1.556,0.03717800862652054,1.3227646455393123,0.14310995795137324,0.20066224717117634
1.0690000000000002,-0.0623,-1.444,0.037181984196771434,1.3227646455393123,0.1431333888524968,0.20066224717117634
1.07,-0.0435,-0.444,0.03719700239187741,1.3227835414347815,0.14322190190153763,0.20066904541056987
1.071,-0.0047,1.556,0.03721107406501602,1.3228024370603275,0.14330483641436123,0.20067584355285226
1.0720000000000003,0.030499999999985834,1.556,0.03721722691097409,1.3228024370603286,0.14334109957063162,0.20067584355285265
1.0730000000000002,-0.0014,0.556,0.037219304924285095,1.3228024370603286,0.1433533468009284,0.20067584355285265
1.074,0.0279,0.556,0.037210533435829786,1.3152400075631636,0.1433016500968753,0.19795508304683235
1.075,0.0649,-3.444,0.03721206375304883,1.3228591223175468,0.1433106693593167,0.20069623739707568
1.0760000000000003,0.04089999999999809,-3.444,0.03722991243587239,1.322802437060331,0.14341586451272414,0.20067584355285353
1.0770000000000002,0.0366,0.556,0.037225027727066456,1.322802437060331,0.14338707540277856,0.20067584355285353
