time_sec,bts_raw,diy_raw,bts_rms,diy_rms,bts_norm_rms,diy_norm_rms
0.0,0.0014,1.86,0.008277457789393377,0.7286909732846698,0.019330151224135613,0.0
0.0010000000000000009,0.0061,0.86,0.008327574300955376,0.7289480051880823,0.019532976761616104,2.409427436725677e-05
0.0020000000000000018,-0.0045,-0.14,0.00831066373825376,0.7292049464922805,0.019464538359537584,4.818005592759309e-05
0.0030000000000000027,-0.011,1.86,0.008245963634010844,0.7294617972930008,0.01920269185408241,7.22573536553795e-05
0.0040000000000000036,-0.0049,-0.14,0.00820189497618934,0.7391619573448766,0.01902434246522615,0.0009815542720269744
0.0050000000000000044,-0.0038,-1.14,0.008225857644639983,0.7394153493856036,0.019121321304265172,0.0010053073441969992
0.006000000000000005,0.0027,-0.14,0.00823189823837483,0.7396686546205398,0.01914576807106489,0.0010290522791571502
0.007000000000000006,0.0052,-0.14,0.008172993206475177,0.7614078584041449,0.018907374687667233,0.003066894016053205
0.008000000000000007,0.003,-0.14,0.008176060500242112,0.7825433758271892,0.01891978827128467,0.005048145949854743
0.009000000000000008,0.008,-0.14,0.008195950122895857,0.7866877201388679,0.01900028316766307,0.005436638458341911
0.010000000000000009,0.0189,-0.14,0.008251331020142099,0.7908103457742353,0.019224414095774956,0.005823095049345723
0.01100000000000001,0.0144,-0.14,0.008146574320660654,0.8206693086830948,0.0188004553401716,0.008622086283881841
0.01200000000000001,-0.0034,-1.14,0.00813778072337045,0.8293033218855227,0.018764866947420713,0.009431442166275672
0.013000000000000012,-0.0056,-3.1399999999999983,0.008139266828393037,0.8578234730532769,0.018770881333509536,0.012104932647839016
0.014000000000000012,0.001,-2.14,0.008279218194123092,0.8580418233642876,0.019337275723115274,0.012125400894122139
0.015000000000000013,0.0107,-1.14,0.008297483266085556,0.8582601181247073,0.019411195932691784,0.012145863933070438
0.016000000000000014,0.0053,0.86,0.008344408223892132,0.8665196569261487,0.019601104996426078,0.012920116433973144
0.017000000000000015,0.0038,-0.14,0.008356447393125454,0.8667358164749717,0.019649828478856542,0.012940379317324566
0.018000000000000016,-0.0038,-1.1399999999999963,0.00850115178786592,0.8704794136145966,0.02023545875766627,0.013291305624156728
0.019000000000000017,0.0053,-0.14,0.009489885038980682,0.8786240919772152,0.02423694143935888,0.01405479106116504
0.020000000000000018,0.024,-0.14,0.009499720201137506,0.882317249615501,0.024276745128572124,0.014400989148783638
0.02100000000000002,0.0051,-0.14,0.009508456415633318,0.8859950129291577,0.02431210128855676,0.014745744166198171
0.02200000000000002,-0.0069,-1.14,0.009504873717825062,0.8896575728344106,0.024297601823491426,0.015089074009972635
0.02300000000000002,-0.0225,-0.14,0.00952015658696809,0.8933051163336581,0.02435945281933227,0.015430996209787336
0.02400000000000002,-0.0168,-0.14,0.009515445668775841,0.9012435388638659,0.02434038735598318,0.01617514714181796
0.025000000000000022,-0.0078,-0.14,0.009532026322431013,0.9275543259425227,0.024407490589719385,0.018641530941941695
0.026000000000000023,-0.0031,-0.14,0.009519026596412648,0.9449810769460492,0.02435487965702284,0.020275121614672025
0.027000000000000024,-0.0017,-0.14,0.009516820593130861,0.9484158738403691,0.024345951785002883,0.020597100861873566
0.028000000000000025,0.0048,-0.14,0.009543245043039066,0.9518382760315258,0.024452893650831427,0.02091791822459793
0.029000000000000026,0.0037,0.86,0.009522182935814003,0.9520350641860794,0.02436765361545685,0.020936365225632005
0.030000000000000027,0.0091,-0.14,0.009517533296430871,0.9522318116724086,0.024348836152357736,0.0209548084144103
0.031000000000000028,0.0065,-0.14,0.009539046742422915,0.9596829208842322,0.024435902791882236,0.021653278399289703
0.03200000000000003,0.0148,-0.14,0.009538688414103262,0.9598781007805193,0.02443445260846438,0.021671574641544754
0.03300000000000003,0.0025,1.86,0.009535635604793346,0.9767283023284642,0.02442209764460495,0.023251119335606137
0.03400000000000003,-0.0088,1.86,0.009502912725403026,0.9839939339474699,0.02428966553005044,0.023932202576073654
0.03500000000000003,0.0017,0.86,0.009483598523160412,0.984184292582717,0.024211499406176895,0.023950046871372897
0.03600000000000003,0.0027,-0.13999999999998614,0.00947000440232232,0.9843746144063591,0.02415648291002373,0.02396788771593743
0.03700000000000003,-0.0034,1.86,0.009529603426606291,0.9845648994397441,0.024397684936201373,0.02398572511176842
0.038000000000000034,-0.0045,-0.14,0.00941911750546535,0.9917731225863945,0.02395053956153346,0.02466142685886655
0.039000000000000035,-0.002,-1.14,0.009375739263617152,0.9989293329163689,0.023774984341435282,0.025332252903536436
0.040000000000000036,-0.008100000000000121,-0.14,0.009354014651402917,1.0021792485014933,0.023687063095291557,0.02563690130219353
0.041000000000000036,-0.010299999999999962,-1.14,0.009303552733122361,1.002366153582683,0.023482839669148083,0.025654421859941545
0.04200000000000004,-0.009599999999999878,-2.14,0.009335272358891155,1.002553023819323,0.023611211535918514,0.025671939151347387
0.04300000000000004,-0.0073999999999995614,-1.1399999999999861,0.009260905807824842,1.018697587010343,0.023310244145721457,0.027185337021025952
0.04400000000000004,0.0005000000000001832,0.86,0.009209139566016515,1.0256659589050763,0.023100742017762486,0.027838555014962345
0.04500000000000004,0.0037999999999992727,0.86,0.009212693619779926,1.0414522876580072,0.02311512555808346,0.02931837184382644
0.04600000000000004,-0.009299999999999295,-0.14,0.009268934359884452,1.041632145812149,0.023342736339130928,0.029335231819788733
0.04700000000000004,0.0033999999999997335,0.86,0.009216977062109218,1.0447492336228337,0.02313246099236704,0.029627428889258862
0.04800000000000004,-0.0014000000000002441,-0.14,0.009215450483354459,1.0449285242908355,0.023126282805841482,0.029644235668841362
0.049000000000000044,-0.005799999999999172,-0.14,0.009192940014351158,1.0480358079965109,0.023035181134311845,0.029935513697550847
0.050000000000000044,0.009099999999999234,-0.14,0.009155820898500313,1.048214536516273,0.022884957098587917,0.029952267781130464
0.05099999999999999,-0.0047,-0.14,0.009155096661297718,1.0394072309872449,0.02288202605260524,0.029126667406098126
0.05199999999999999,-0.0029,-0.14000000000000695,0.009147424258367358,1.0431250372502185,0.022850975223255476,0.029475176065743475
0.05299999999999999,-0.0015,-1.14,0.00913727518777391,1.046058610969491,0.02280990112144978,0.02975017045021597
0.05399999999999999,-0.0091,-0.14,0.009079829787770537,1.033493997727258,0.022577414985277836,0.028572358533650317
0.05499999999999999,0.0032,-0.14,0.009080922629640617,1.033493997727258,0.02258183780388136,0.028572358533650317
0.055999999999999994,-0.0015,1.86,0.009290121048019922,1.0297414198858719,0.02342848056343098,0.02822059037221034
0.056999999999999995,-0.003,1.86,0.00930584814161252,1.0297414198858719,0.023492129371209206,0.02822059037221034
0.057999999999999996,0.0061,0.86,0.009314777604447468,1.0297414198858719,0.02352826762270482,0.02822059037221034
0.059,0.0148,0.8599999999999792,0.00932454645992734,1.0297414198858719,0.023567802963484142,0.02822059037221034
0.06,0.0115,-2.14,0.00930416345004639,1.0297414198858716,0.02348531128946849,0.02822059037221032
0.061,-0.0034,-1.14,0.00913730925998336,1.0364548314246116,0.02281003901441119,0.02884990827947063
0.062,-0.0099,-2.14,0.009025809124428127,1.0394072309872446,0.022358789032752735,0.029126667406098105
0.063,-0.0157,-0.14,0.009055502795013983,1.03271301244524,0.022478961696584185,0.028499148658098297
0.064,-0.0103,-0.14,0.009039003565636439,0.9822843217771396,0.022412187993423014,0.02377194284120554
0.065,-0.0089,-1.14,0.00916102236273518,0.9648892491132474,0.022906007841072606,0.022141321708818294
0.066,-0.0046,-0.14,0.009508415932318683,0.9743703535051644,0.02431193744933903,0.02303008426121169
0.067,0.0157,0.86,0.009498279428099665,0.9743703535051644,0.02427091420465744,0.02303008426121169
0.068,0.0425,-1.14,0.009490687138885495,0.9743703535051644,0.02424018760193557,0.02303008426121169
0.069,0.0098,0.86,0.00953858817455746,0.9672261162907722,0.024434046930991615,0.022360380581228974
0.07,0.0141,0.86,0.009524760186238764,0.9672261162907722,0.024378083954407666,0.022360380581228974
0.07100000000000001,0.0022,0.86,0.009224945143148621,0.9703891664070046,0.023164708454712975,0.022656886175772113
0.07200000000000001,0.0058,0.8599999999999722,0.009215309437619225,0.9703891664070046,0.02312571198245082,0.022656886175772113
0.07300000000000001,0.0024,-1.14,0.009299375645665698,0.9703891664070046,0.023465934661554874,0.022656886175772113
0.07400000000000001,-0.0063,-2.14,0.00902413570884336,0.9703891664070045,0.022352016585812,0.022656886175772103
0.07500000000000001,-0.0038,1.86,0.008870183367106169,0.9735419397875122,0.02172895912458792,0.022952428424960595
0.07600000000000001,-0.0017,0.86,0.008839314936066728,0.9766845359533359,0.021604032111082427,0.023247016657936943
0.07700000000000001,-0.0072,0.86,0.00883443113063879,0.9798170528295239,0.02158426695923928,0.023540660054234712
0.07800000000000001,-0.0006,-0.14,0.008834829949276535,0.9829395867807366,0.02158588101021842,0.023833367647116056
0.07900000000000001,-0.0025,-0.14,0.009006586798312058,0.9899704323945914,0.022280994738924167,0.02449244195269809
0.08000000000000002,-0.0079,-1.14,0.009002470823084963,0.9868701448368894,0.022264337057420158,0.024201819745723364
0.08100000000000002,0.0001,-0.14,0.008961822494570807,0.9899704323945914,0.022099830015297563,0.02449244195269809
0.08200000000000002,0.0015,1.86,0.008940553649342351,0.9899704323945913,0.022013753294660005,0.02449244195269808
0.08300000000000002,-0.0075,-1.14,0.008820507707917672,0.9969516953044331,0.0215279177519828,0.02514686835559372
0.08400000000000002,0.0011,-0.14,0.008818614578496066,0.9837600868734369,0.02152025610554154,0.023910281656970123
0.08500000000000002,-0.0112,-0.14,0.008777121261846111,0.9703891664070045,0.021352329328735375,0.022656886175772103
0.08600000000000002,-0.0127,-0.1400000000000139,0.008825194431021385,0.9743703535051644,0.021546885295870143,0.02303008426121169
0.08700000000000002,-0.0083,-1.14,0.00882251024478159,0.9775102864087571,0.0215360221791085,0.023324422838911583
0.08800000000000002,-0.0047,-1.14,0.008831790979767239,0.9640526882851266,0.021573582057140904,0.022062902159143593
0.08900000000000002,0.0015,0.86,0.008864917494497238,0.9640526882851265,0.021707647716253185,0.022062902159143583
0.09000000000000002,-0.0018,-0.14,0.008918555679570436,0.9600287153414117,0.021924725748579735,0.02168569331127277
0.09100000000000003,0.0091,-0.14,0.008929170900933868,0.9632154008970331,0.02196768639989819,0.0219844145014438
0.09200000000000003,0.0168,1.86,0.008874549316532384,0.9559878047184404,0.021746628471702976,0.02130689671851219
0.09300000000000003,0.0044,-1.14,0.008824852553564917,0.9478543030186569,0.021545501690413593,0.020544458986389097
0.09400000000000003,0.003,1.86,0.008920067319055635,0.9478543030186564,0.02193084347468449,0.020544458986389045
0.09500000000000003,0.0106,-0.14,0.009011821175128852,0.9478543030186564,0.022302178681264776,0.020544458986389045
0.09600000000000003,0.0041,0.86,0.009004157085908363,0.9478543030186564,0.022271161498164924,0.020544458986389045
0.09700000000000003,0.0005,-0.14,0.00903429599890552,0.9510817809190405,0.022393136093706436,0.020847004067422445
0.09800000000000003,-0.0006,0.86,0.009125754000599812,0.9510817809190406,0.022763273953912214,0.020847004067422455
0.09900000000000003,-0.0071,-0.14,0.009169392067443842,0.9510817809190406,0.02293988070658495,0.020847004067422455
0.10000000000000003,-0.0009,-1.14,0.009170025861567626,0.9542983434132561,0.022942445722181643,0.021148525933876016
0.10100000000000003,-0.0049,-1.14,0.009132975512303639,0.95750410050633,0.02279249999034411,0.02144903489766535
0.10200000000000004,-0.0012,0.86,0.009123631750866236,0.9606991603678994,0.02275468503921196,0.021748541098655923
0.10300000000000004,0.0039,0.8599999999999861,0.009144921702130203,0.9606991603678994,0.022840847177666185,0.021748541098655923
0.10400000000000004,-0.0051,-0.13999999999998614,0.009181001316830516,0.9606991603678994,0.0229868642689521,0.021748541098655923
0.10500000000000004,-0.02,0.86,0.009254659359085511,0.9678915757906129,0.02328496426722609,0.022422761023332016
0.10600000000000004,-0.0061,-0.14,0.00934934634299486,0.9678915757906128,0.023668170077152863,0.022422761023332006
0.10700000000000004,0.0066,-0.14,0.009348579490434994,0.9510817809190405,0.02366506656340509,0.020847004067422445
0.10800000000000004,0.0052,-0.14,0.009404251911017613,0.9413661515375836,0.023890377309815296,0.0199362570478523
0.10900000000000004,-0.0052,-0.14,0.009521954236089605,0.9381052483679695,0.024366728049349456,0.019630578668590415
0.11000000000000004,0.0071,-1.14,0.00941858431987321,0.9348329705195357,0.023948381716724792,0.01932383402234501
0.11100000000000004,0.0024,0.86,0.009354336097014925,0.9089390690583616,0.02368836401143664,0.016896529248264482
0.11200000000000004,-0.0081,-0.14,0.009390201896570059,0.9012763202846462,0.023833515775699768,0.01617822008543291
0.11300000000000004,0.001,-0.14,0.009347102950645489,0.8743892462720102,0.02365909088858089,0.013657814915521187
0.11400000000000005,0.0149,-1.14,0.009218800875317996,0.8743892462720102,0.023139842110541573,0.013657814915521187
0.11500000000000005,0.0276,1.86,0.009162840850205266,0.8822855432063834,0.022913367405555968,0.014398016977195846
0.11600000000000005,0.003,0.86,0.009122165322808191,0.892644443486003,0.022748750287375104,0.015369064470392135
0.11700000000000005,-0.0006,-0.14,0.009116155834409598,0.892644443486003,0.022724429406363274,0.015369064470392135
0.11800000000000005,-0.0103,-0.14,0.0089859441873457,0.8969707654077328,0.022197452438517392,0.01577461563349399
0.11900000000000005,-0.0015,-0.13999999999998614,0.007915894049376824,0.9071619903476925,0.01786687380085381,0.016729945172674645
0.12000000000000005,-0.004,0.86,0.007860392537431645,0.9037776842157789,0.017642254735392028,0.016412698949919785
0.12100000000000005,0.0029,-0.14,0.0077412276827046305,0.9080509644266307,0.01715998502117037,0.016813277961635627
0.12200000000000005,0.0142,-1.14,0.0077710621587569716,0.9123042285914452,0.017280727536005607,0.017211980661117197
0.12300000000000005,0.0004,-0.14,0.0077697554553996274,0.9089390690583619,0.017275439202829167,0.016896529248264503
0.12400000000000005,0.0023,0.86,0.007795309746627804,0.9046699838896959,0.017378859466765054,0.016496343481496336
0.12500000000000006,-0.0024,0.86,0.007809790566394301,0.8857519709242159,0.017437464504521213,0.014722961310560058
0.12600000000000006,-0.0009,0.86,0.007829976446353432,0.8673517196073521,0.017519158377949786,0.012998114325540298
0.12700000000000006,-0.0019,0.86,0.007869374807740871,0.8638114558517269,0.017678606702966827,0.012666248572192224
0.12800000000000006,-0.0182,-1.14,0.007970431527899315,0.8638114558517269,0.018087591345818423,0.012666248572192224
0.12900000000000006,-0.0026,-0.14,0.00797853340518294,0.8673517196073522,0.01812038029228409,0.012998114325540308
0.13000000000000006,0.0032,0.86,0.007977664135050388,0.8708775917148069,0.018116862286414258,0.013328630999980226
0.13100000000000006,-0.0022,-0.14,0.007969094025343324,0.8664209878813439,0.018082178365817516,0.01291086715788905
0.13200000000000006,0.0026,-1.14,0.008012586319583325,0.8743892462720095,0.018258195165082865,0.013657814915521125
0.13300000000000006,-0.0018,0.86,0.008110187447192196,0.8557447081377897,0.01865319474803432,0.011910068385645118
0.13400000000000006,0.0018999999999987454,0.86,0.00819181154454882,0.851208878005941,0.018983534009521755,0.011484877838366525
0.13500000000000006,-0.009399999999999145,-1.14,0.00819495262749982,0.8548013384648411,0.01899624622387888,0.01182163653174684
0.13600000000000007,-0.0017000000000003995,0.86,0.008128130956997973,0.8628769054715353,0.018725813569800097,0.012578643442356565
0.13700000000000007,-0.0053000000000004,0.86,0.008033920803691284,0.8628769054715353,0.018344537531524565,0.012578643442356565
0.13800000000000007,-0.008900000000000121,-0.14,0.007991691143382192,0.8628769054715353,0.01817363071293616,0.012578643442356565
0.13900000000000007,-0.009999999999999912,0.86,0.007980255115116252,0.8628769054715353,0.018127348190322592,0.012578643442356565
0.14000000000000007,-0.009199999999998668,0.86,0.008152935465544818,0.8593182063420871,0.01882619940315423,0.012245049549625573
0.14100000000000007,0.0027999999999994783,-0.1399999999999445,0.008476460994924703,0.8673517196073521,0.020135533140478678,0.012998114325540298
0.14200000000000007,-0.0018999999999981347,1.8599999999999168,0.008608103326988005,0.8944503658758985,0.02066830020513947,0.015538352364114333
0.14300000000000007,0.014899999999999768,-1.1399999999999444,0.0085275441901345,0.8797230716369657,0.02034227092412969,0.014157809858032307
0.14400000000000007,0.012799999999998469,0.86,0.008516422425320053,0.8797230716369657,0.020297260250882188,0.014157809858032307
0.14500000000000007,-0.0009999999999985788,0.86,0.00851794325322883,0.8692101932414995,0.020303415163273317,0.01317232839410902
0.14600000000000007,0.011800000000000166,0.86,0.008469530715840771,0.8692101932414995,0.02010748574579221,0.01317232839410902
0.14700000000000008,0.013299999999999522,0.86,0.008540788814972725,0.8656775299092462,0.020395872981970792,0.012841175107515455
0.14799999999999996,0.009,-0.14,0.008542235580861477,0.8736525691283824,0.020401728159433245,0.013588758502745194
0.14899999999999997,-0.0059,0.86,0.008574375516244952,0.8701379415354051,0.020531801052888272,0.013259295893630821
0.14999999999999997,-0.004,0.86,0.008586808843770525,0.8780724702747041,0.020582119725506293,0.01400308182013007
0.15099999999999997,-0.0022,0.86,0.00860173710365758,0.8971524334298883,0.02064253558927795,0.01579164526721438
0.15199999999999997,-0.0069,-0.14,0.00859944786459947,0.8928269918071876,0.020633270855402605,0.015386176623698816
0.15299999999999997,-0.0083,-1.14,0.008600467665648539,0.8971524334298883,0.02063739807195168,0.01579164526721438
0.15399999999999997,-0.0148,-1.14,0.00859210188683263,0.8937302247121439,0.020603541094841835,0.015470846040765783
0.15499999999999997,-0.0137,-0.14,0.008580934405391155,0.901457120621313,0.02055834540274207,0.016195168381965386
0.15599999999999997,0.0008,-0.14,0.00834633052245366,0.9057413492982235,0.01960888469271355,0.016596773707308506
0.15699999999999997,0.0106,-1.14,0.008386083306170765,0.9133666391890036,0.019769767393294037,0.01731157145933484
0.15799999999999997,0.0161,-0.14,0.008360575315895256,0.9209287938479633,0.019666534513023096,0.018020450889248137
0.15899999999999997,0.0049,-0.14,0.008359346053573266,0.9284293560056757,0.01966155958992108,0.018723556613234982
0.15999999999999998,0.0035,-0.14,0.008384957088477227,0.9358698065692485,0.019765209500059007,0.01942102745212538
0.16099999999999998,-0.0089,-0.14,0.008403264870547798,0.9358698065692485,0.019839302560864833,0.01942102745212538
0.16199999999999998,-0.0041,-0.14,0.008536829816976253,0.9325896850184499,0.02037985059989567,0.019113547534054476
0.16299999999999998,-0.0027,-0.14,0.008933707375506842,0.9497268391980472,0.02198604587594416,0.020719991283624718
0.16399999999999998,-0.0016,-1.14,0.008940108617251915,0.9665601986340092,0.022011952214135336,0.022297957191311127
0.16499999999999998,0.002,1.86,0.008840907121383745,0.9593578017760456,0.021610475812621648,0.021622801602866053
0.16599999999999998,0.0031,-0.14,0.008407020171205003,0.9456419076920267,0.019854500563488305,0.02033706815551971
0.16699999999999998,-0.0035,-1.14,0.008402594017292262,0.9423957997244388,0.019836587563992873,0.02003277668446729
0.16799999999999998,-0.001,1.86,0.008402751516620587,0.9593578017760457,0.019837224976392988,0.021622801602866063
0.16899999999999998,0.003,-0.14,0.00834511376387004,0.9625467085153414,0.019603960373242482,0.021921731007691223
0.16999999999999998,0.0037,-1.14,0.008440863087548989,0.9625467085153414,0.019991465557328402,0.021921731007691223
0.17099999999999999,-0.0072,-1.14,0.008501234340942241,0.9625467085153414,0.020235792856580056,0.021921731007691223
0.172,-0.0057,-0.13999999999997226,0.00851846911794936,0.9625467085153414,0.02030554337992805,0.021921731007691223
0.173,-0.0068,0.8599999999999445,0.008411559998499562,0.9585164132992297,0.019872873608267137,0.02154392950745417
0.174,-0.0079,-1.1399999999999721,0.008523277924798824,0.9585164132992297,0.02032500500651544,0.02154392950745417
0.175,-0.0068,-0.14,0.008580454154529352,1.0070941453426365,0.020556401789028053,0.02609762571579757
0.176,0.008,-0.14,0.008588167713298645,1.0040467336425456,0.020587619179355265,0.025811960113056677
0.177,0.0145,0.86,0.008588979285319466,1.000990044452548,0.020590903676344318,0.025525424834667413
0.178,0.0036,0.86,0.00859645180641104,1.000990044452548,0.020621145567878564,0.025525424834667413
0.179,-0.0022,0.86,0.00841174528174401,0.9971151476050375,0.019873623464401777,0.02516219044022382
0.18,0.0069,0.86,0.008618493162485032,0.9971151476050375,0.020710348701799323,0.02516219044022382
0.181,0.0083,-1.14,0.008616447347004614,1.01776829133549,0.020702069122645286,0.027098224469389604
0.182,0.0126,-0.14,0.008635037815844432,1.0245601595820577,0.020777306239454302,0.027734896940107823
0.183,0.0137,0.86,0.008673367315902186,1.01776829133549,0.02093242879703605,0.027098224469389604
0.184,0.0025,0.86,0.008736874988219052,1.01475293574486,0.021189449434952327,0.02681556381928783
0.185,0.0039,-1.14,0.00874463337676891,1.0185607356031892,0.021220848254993117,0.027172508514884376
0.186,0.0028,-0.14,0.008695920722340905,1.0117285932292617,0.02102370423980685,0.0265320607312123
0.187,-0.0008,-1.14,0.00870246683020933,1.0155477329339857,0.021050196862805483,0.0268900684285868
0.188,-0.0019,-1.14,0.008687052272275304,1.0125257644239019,0.020987812911876944,0.026606787880746368
0.189,-0.0168,-0.14,0.008819902047202979,1.0125257644239019,0.021525466594546662,0.026606787880746368
0.19,-0.0233,-1.14,0.008832709375140711,1.012525764423902,0.021577298876796512,0.02660678788074639
0.191,-0.0176,-2.14,0.008801270344941294,1.012525764423902,0.021450062602775852,0.02660678788074639
0.192,-0.0121,0.86,0.008825607787915503,1.015547732933986,0.02154855818433759,0.026890068428586822
0.193,-0.0009,-1.14,0.00882701228998162,1.0064546065928202,0.021554242316723787,0.02603767509526376
0.194,0.0034,-1.14,0.008700196785812247,1.015547732933988,0.021041009811261134,0.02689006842858701
0.195,-0.0056,-0.14,0.008607366203786576,1.0125257644239043,0.02066531700848712,0.026606787880746597
0.196,-0.0118,-0.14,0.008612548573917767,1.0253473547375849,0.020686290475604465,0.02780868893170898
0.197,-0.0017,-1.14,0.008530814895197605,1.0253473547375849,0.02035550772955945,0.02780868893170898
0.198,0.0074,-0.14,0.008439909025801634,1.0291159552630893,0.019987604393000208,0.028161959066025175
0.199,0.0084,-1.14,0.008421680904358091,1.0291159552630893,0.019913833725134136,0.028161959066025175
0.2,0.0051,-2.14,0.00840160193496847,1.0417333745360238,0.01983257252734574,0.02934472104122197
0.201,0.0044,0.86,0.008408114893212935,1.0387875862644205,0.019858930991160352,0.029068581659684026
0.202,-0.0018,-1.14,0.008428627176798341,1.0387875862644205,0.019941945846214965,0.029068581659684026
0.203,-0.0011,-0.14,0.008432844903236881,1.0387875862644205,0.019959015323023705,0.029068581659684026
0.20400000000000001,0.0025,-1.14,0.008394341819449832,1.03208934866232,0.019803190258182477,0.02844068616336869
0.20500000000000002,-0.0012,-1.14,0.008275564198537755,1.0283316450019973,0.01932248771023392,0.028088437505592746
0.20600000000000002,-0.0102,-1.14,0.008209984096751156,1.0313072996724424,0.019057079784216616,0.028367376575412585
0.20700000000000002,-0.0012,-1.14,0.008216753012636227,1.0342743932839176,0.019084474129109345,0.02864551312810923
0.20800000000000002,0.005,-1.14,0.008150202685572764,1.027546736089394,0.018815139623664948,0.028014859827326027
0.20900000000000002,0.0083,-1.14,0.007989024607162373,1.027546736089394,0.01816283902721943,0.028014859827326027
0.21000000000000002,0.009,-1.14,0.007976412304164791,1.027546736089394,0.018111796026527197,0.028014859827326027
0.21100000000000002,0.0152,-0.14,0.00797004526664499,1.027546736089394,0.01808602811557604,0.028014859827326027
0.21200000000000002,0.0275,1.86,0.007937929200533485,1.0342743932839176,0.017956051822977014,0.02864551312810923
0.21300000000000002,0.0035,1.86,0.0079723141607732,1.0409585709132063,0.018095210511890104,0.029272090636898403
0.21400000000000002,0.0068,-0.14,0.007971671483912956,1.040958570913206,0.0180926095471473,0.029272090636898382
0.21500000000000002,0.0039,0.86,0.007987337103558303,1.040958570913206,0.01815600956493588,0.029272090636898382
0.21600000000000003,0.0013,-0.14,0.008016789146225403,1.0409585709132063,0.018275204341221596,0.029272090636898403
0.21700000000000003,-0.0008,1.86,0.008152864111343729,1.0438982328765654,0.01882591062698573,0.029547655735828876
0.21800000000000003,-0.003,0.86,0.00818053502199159,1.0372329993053473,0.01893789701929047,0.02892285405068931
0.21900000000000003,-0.0128,-0.14,0.008206245457197787,1.0283316450019973,0.019041949210415212,0.028088437505592746
0.22000000000000003,-0.0109,0.86,0.008200698788795695,1.035054200449118,0.01901950139900901,0.02871861256651526
0.22100000000000003,-0.0062,-0.14,0.008231744871651054,1.0283316450019973,0.019145147383646473,0.028088437505592746
0.22200000000000003,-0.0047,0.86,0.008228994196594275,1.0283316450019973,0.01913401518131561,0.028088437505592746
0.22300000000000003,-0.0138,-0.14,0.008222586801605548,1.035054200449118,0.019108083940454386,0.02871861256651526
0.22400000000000003,-0.0102,-3.14,0.008199311511025105,1.0350542004491183,0.019013886974726776,0.0287186125665153
0.22500000000000003,0.0043,-0.14,0.008162073799405294,1.0283316450019981,0.018863182972424297,0.02808843750559283
0.22600000000000003,-0.0015,-0.14,0.008224087986642493,1.0350542004491188,0.019114159356569477,0.028718612566515343
0.22700000000000004,0.004,0.86,0.008197282644152887,1.0350542004491188,0.019005675987948,0.028718612566515343
0.22800000000000004,-0.004,0.86,0.008104582923495016,1.0387875862644214,0.0186305127916137,0.02906858165968411
0.22900000000000004,0.0189,-0.14,0.008248406326999944,1.035833420551737,0.019212577628310756,0.028791656973437982
0.23000000000000004,0.0026,-2.14,0.008368000967294521,1.039564007957956,0.019696586719157503,0.02914136374260978
0.23100000000000004,-0.0061,-1.14,0.008347667076947562,1.0366120549156557,0.019614293835831232,0.028864646472978515
0.23200000000000004,-0.0086,-0.14,0.008305933778299334,1.029899668240363,0.019445395832651396,0.028235424636831395
0.23300000000000004,-0.0107,-0.14,0.008216415893724712,1.029899668240363,0.019083109781865455,0.028235424636831395
0.23400000000000004,-0.0042,-1.14,0.008347310438600455,1.0269199347546323,0.019612850491867662,0.02795610321722043
0.23500000000000004,0.0016,-0.14000000000002777,0.008534107194051399,1.0269199347546323,0.02036883192679016,0.02795610321722043
0.23600000000000004,-0.0038,-1.1399999999999721,0.008528285921832527,1.0231432455363998,0.02034527277173699,0.027602074845583205
0.23700000000000004,0.0009,-0.14,0.008523572782471218,1.0462143912202941,0.02032619831913876,0.029764773353801167
0.23800000000000004,0.0176,-0.13999999999997226,0.008550011572922013,1.0395640079579525,0.020433198222292094,0.029141363742609446
0.23900000000000005,0.011,0.86,0.008593796423542154,1.0328708055157492,0.02061039902066663,0.028513940244215136
0.24000000000000005,0.0053,0.86,0.008434675600530381,1.0328708055157492,0.019966424301640643,0.028513940244215136
0.24100000000000005,0.0071,0.86,0.008110940646130186,1.0328708055157492,0.018656243004480474,0.028513940244215136
0.24200000000000005,0.0024,-1.14,0.007984450432367802,1.0163419085779666,0.018144326975356225,0.02696451477399302
0.24300000000000005,0.0009,1.86,0.007915126906745703,1.0133223084916037,0.017863769113164427,0.026681456243148115
0.24400000000000005,0.002,-0.14,0.007929432468772554,1.0064546065928177,0.0179216648688071,0.02603767509526353
0.24500000000000005,0.0031,1.86,0.007944200015980273,1.0064546065928177,0.01798143031548965,0.02603767509526353
0.24600000000000005,-0.0002,0.86,0.007926449438212574,1.009494749553981,0.01790959230513913,0.02632265932348359
0.24700000000000005,-0.0049,-1.14,0.00785361787674502,1.0125257644239012,0.017614837140827157,0.026606787880746306
0.24800000000000005,0.0071,-0.14,0.007859486957151454,1.0056526228610734,0.017638589779445636,0.025962496816558916
0.24900000000000005,-0.0008,1.86,0.007835145686909259,1.0125257644239012,0.017540078708623726,0.026606787880746306
0.25000000000000006,-0.0052,-0.14,0.007975880565963815,1.0125257644239012,0.018109644039426533,0.026606787880746306
0.25100000000000006,-0.0063,0.86,0.0079722400424486,0.9917634528241391,0.018094910549092305,0.024660520411449893
0.25200000000000006,-0.0074,-0.14,0.00798199599502949,0.9956591775639677,0.018134393670805698,0.025025707220925796
0.25300000000000006,-0.0019,-0.14,0.008046740135689576,0.9956591775639677,0.018396418395169232,0.025025707220925796
0.25400000000000006,-0.0045,0.86,0.008048680697138311,0.9987321823754892,0.0184042720028244,0.0253137719322619
0.25500000000000006,-0.0089,0.86,0.008097548526452442,0.9917634528241391,0.018602044023206983,0.024660520411449893
0.25600000000000006,0.0034,0.86,0.008133609787483337,0.9878523649047769,0.018747986835722322,0.024293893451323732
0.25700000000000006,-0.0021,-0.14,0.008070868863501461,0.9808063361811604,0.018494069289747398,0.023633395874904543
0.25800000000000006,-0.0006,-0.14,0.00807004895020272,0.9737093217887268,0.018490751034938323,0.022968118881311967
0.25900000000000006,-0.0020999999999996,-0.14,0.008228913537829714,0.9831053687543952,0.019133688748833283,0.02384890811623855
0.26000000000000006,0.0015000000000004107,-0.14,0.008200982187208602,0.976025071562645,0.019020648335091102,0.023185198199785303
0.26100000000000007,0.005200000000000355,-1.14,0.008155701799496552,0.9688930356670014,0.018837394978287524,0.022516638276346694
0.26200000000000007,0.008399999999998789,-1.14,0.008109955690410378,0.9720506616474103,0.018652256809770625,0.02281263541020849
0.26300000000000007,-0.0024999999999991453,-0.14,0.00792697156681135,0.9799833630366203,0.0179117054014098,0.023556250040172852
0.26400000000000007,0.005199999999998623,-1.14,0.007926633414837672,0.9665601986340082,0.017910336873280575,0.022297957191311033
0.26500000000000007,-0.007200000000000888,1.86,0.007904562822446096,0.9737093217887268,0.017821015417640224,0.022968118881311967
0.26600000000000007,-0.015199999999999157,0.86,0.007900680507790615,0.9705570921347757,0.01780530337918974,0.022672627601270354
0.26700000000000007,-0.007599999999999889,-0.14,0.007900554492212742,0.9705570921347757,0.017804793384050083,0.022672627601270354
0.26800000000000007,-0.006599999999999311,-1.14,0.008022608809250178,0.9537942758282886,0.018298756983737327,0.021101274435013025
0.2690000000000001,-0.0004000000000008549,-1.14,0.008021895366783629,0.9505760076699067,0.01829586962491627,0.020799592678912085
0.2700000000000001,-0.008099999999998345,-0.14,0.007920739391886148,0.9505760076699067,0.01788648329018379,0.020799592678912085
0.2710000000000001,0.006799999999999755,-1.14,0.007883981054342199,0.9546398262524755,0.01773771935317238,0.021180536673051278
0.2720000000000001,0.004599999999999789,-1.14,0.007867485306733623,0.9618775512622205,0.01767095974100917,0.021859003936703238
0.2730000000000001,0.0026999999999998,0.86,0.007885136996881403,0.9753651612946591,0.01774239754523929,0.02312333794491608
0.2740000000000001,0.0009000000000012434,-0.14,0.007766596581012131,0.9824502143224386,0.017262654985103144,0.02378749367535822
0.27499999999999997,0.0121,-1.14,0.007710945082275414,0.9325896850184487,0.0170374289110795,0.019113547534054372
0.27599999999999997,0.0045,-0.14,0.007699303227087711,0.9358698065692473,0.0169903133904233,0.019421027452125275
0.27699999999999997,-0.0078,-1.14,0.007741061878636418,0.9358698065692475,0.01715931399882258,0.019421027452125286
0.27799999999999997,-0.0158,-0.14,0.007762708168484627,0.9358698065692475,0.017246918268076037,0.019421027452125286
0.27899999999999997,-0.0143,-1.14,0.007752779141688213,0.9325896850184489,0.017206734701146212,0.019113547534054382
0.27999999999999997,-0.0038,-0.14,0.007517929019705541,0.9325896850184489,0.016256277441973905,0.019113547534054382
0.28099999999999997,-0.0002,-0.14,0.007513491097152267,0.914249580173795,0.016238316813847364,0.017394338703615463
0.282,0.0034,-0.14,0.007490842288624234,0.9066317163507525,0.016146655271177777,0.01668023707417611
0.283,0.0201,-0.1399999999999445,0.007490842288624235,0.9066317163507525,0.01614665527117778,0.01668023707417611
0.284,0.0179,0.86,0.007432362919890631,0.9100054084115448,0.015909984580716022,0.01699648832962008
0.285,-0.0024,0.8599999999998335,0.007453067789359305,0.9100054084115448,0.01599377884626964,0.01699648832962008
0.286,0.0001,-2.139999999999889,0.007468962440439263,0.9133666391890024,0.016058105772623427,0.017311571459334724
0.287,-0.0068,-0.14,0.007488962861687259,0.9091183454719831,0.016139049079789622,0.016913334691635612
0.288,-0.0089,-0.14,0.007567841383911093,0.909118345471983,0.016458276778747165,0.0169133346916356
0.289,-0.0032,-0.14,0.007423575487733344,0.9266896538561429,0.015874421138751985,0.018560476231571723
0.29,0.0023,-1.14,0.007342506379751565,0.9308577582389889,0.015546327963728677,0.018951196018719987
0.291,0.0102,-1.14,0.007323077519991647,0.9350072821018102,0.015467697811696579,0.0193401740604218
0.292,0.0059,-0.14,0.007297396331434668,0.9350072821018102,0.015363763984104382,0.0193401740604218
0.293,0.0048,-0.14,0.007443201197594097,0.9308577582389889,0.015953847958913223,0.018951196018719987
0.294,0.0059,-1.14,0.007477951866912157,0.9167155457548241,0.01609448670176592,0.0176254993124764
0.295,-0.0017,0.86,0.007484136476369227,0.9242503002885164,0.016119516311731596,0.018331810243588095
0.296,0.0048,0.86,0.007481860683601508,0.9066317163507523,0.016110305996070745,0.0166802370741761
0.297,-0.0035,-0.14,0.007490205132177313,0.9108916074938925,0.016144076647989967,0.01707956098928065
0.298,0.0041,-1.14,0.007560270823039095,0.9032454233750419,0.01642763811236688,0.01636280460388181
0.299,0.0171,-1.14,0.00764770173897375,0.9108916074938912,0.016781478033865017,0.017079560989280526
0.3,0.0045,0.86,0.007647359526995756,0.8964344629462063,0.01678009307457305,0.015724342424291958
0.301,0.0059,-1.14,0.007631729043869415,0.8964344629462062,0.01671683525709192,0.015724342424291948
0.302,0.0103,-1.14,0.007666822364164117,0.8964344629462062,0.016858860735899286,0.015724342424291948
0.303,-0.0021,0.86,0.007642736150980555,0.8998463872255109,0.016761381901428098,0.01604417758333028
0.304,0.0092,-0.14,0.0076880284000869605,0.9075212098665536,0.016944683262244933,0.016763618555358278
0.305,0.0077,0.86,0.007739147813222383,0.9218044915288731,0.017151567622742624,0.01810253914329941
0.306,-0.0013,-0.14,0.007735511270094422,0.9259945853580905,0.01713685024135451,0.018495320230025755
0.307,-0.0002,-0.14,0.0077280703427463245,0.9226793581019092,0.017106736212231313,0.018184549488963156
0.308,-0.0169,1.86,0.0077458678172965985,0.9259945853580905,0.01717876401761815,0.018495320230025755
0.309,-0.0049,-0.14,0.00785797918865238,0.9292979857707931,0.017632487719531856,0.018804982318007188
0.31,-0.0028,-0.14,0.007857031453928779,0.9292979857707931,0.017628652161175696,0.018804982318007188
0.311,-0.0126,0.86,0.007870411079642998,0.932589685018446,0.017682800578377823,0.01911354753405411
0.312,-0.0216,-2.14,0.007858834881809124,0.9284293560056717,0.017635950778292848,0.018723556613234608
0.313,-0.0035,0.86,0.007836879539746407,0.924250300288514,0.01754709574996691,0.018331810243587866
0.314,0.0034,-1.14,0.00786847200454718,0.9317241240508143,0.017674952986111995,0.019032409499596833
0.315,-0.0031,-0.14,0.007856892949717177,0.9242503002885138,0.017628091623534792,0.018331810243587855
0.316,-0.0013,-0.14,0.00782658520872763,0.9066317163507496,0.017505433767582068,0.01668023707417584
0.317,-0.014,-0.14,0.007678781776998517,0.9032454233750399,0.01690726143779346,0.016362804603881623
0.318,-0.0028,-0.14,0.007720772910131103,0.9032454233750399,0.017077202917788446,0.016362804603881623
0.319,-0.0013,-0.14,0.007695280633471061,0.9133666391889995,0.016974033631778223,0.017311571459334454
0.32,0.0077,-1.14,0.0076957676438906735,0.9133666391889995,0.016976004601964252,0.017311571459334454
0.321,-0.0035,-1.14,0.007682363686673376,0.9167155457548208,0.0169217577132198,0.0176254993124761
0.322,0.007,1.86,0.007687199541401458,0.9091183454719798,0.016941328804738955,0.0169133346916353
0.323,-0.002,-1.14,0.00767407290020789,0.9048501061302983,0.016888204236160286,0.016513228213030043
0.324,0.0041,0.86,0.007681446493508508,0.9048501061302983,0.01691804575899873,0.016513228213030043
0.325,0.0009,0.86,0.007681251089049365,0.9082304161440328,0.01691725494149734,0.016830099838053905
0.326,-0.0082,-0.14,0.007590133766315489,0.9039579842556097,0.01654849583633857,0.01642960034842493
0.327,-0.0071,0.86,0.007580883396944254,0.9115981916690675,0.016511058850380504,0.017145796475047975
0.328,0.0005,-0.14,0.007618865988642279,0.9039579842556097,0.01666477744203714,0.01642960034842493
0.329,-0.0002,-0.14,0.0074972625742639664,0.9115981916690675,0.01617263868153638,0.017145796475047975
0.33,0.0005,-1.14,0.007436848505485502,0.9039579842556096,0.015928138104990528,0.01642960034842492
0.331,-0.0017,-0.14,0.007497562107056588,0.9216276828469112,0.016173850914745814,0.018085965026090056
0.332,-0.0086,-0.14,0.007499385893453201,0.9249466795631615,0.016181231924409366,0.01839708911786091
0.333,0.0051,0.86,0.007491693254739948,0.928253809192329,0.016150099199225,0.01870710078409893
0.334,0.0069,-1.14,0.007234389531833421,0.9356956556674387,0.015108770418196681,0.019404702476300204
0.335,0.0051,0.86,0.007016521884866353,0.9356956556674387,0.014227042595999011,0.019404702476300204
0.336,0.0066,0.86,0.007015016912611381,0.9356956556674402,0.01422095185270914,0.01940470247630034
0.337,0.0109,-0.14,0.007323685444022237,0.9131881967975597,0.015470158128953483,0.01729484419753925
0.338,0.0097,1.86,0.007307781860560379,0.9131881967975597,0.01540579505253451,0.01729484419753925
0.339,-0.0015,-1.14,0.007323302308749688,0.9165377553682824,0.015468607549809794,0.01760883316988351
0.34,-0.0001,-1.14,0.007355446076159074,0.9165377553682824,0.015598695951780692,0.01760883316988351
0.341,-0.0037,0.86,0.00760496492551908,0.9123042285914449,0.016608518725864826,0.017211980661117166
0.342,-0.0149,0.86,0.007545620788117009,0.9080509644266302,0.01636834824731903,0.016813277961635585
0.343,-0.0073,0.86,0.007584012517625853,0.925642534937994,0.01652372265247498,0.01846231888155385
0.34400000000000003,-0.0037,-1.1399999999999444,0.007608258420784579,0.9289471872671698,0.016621847765069555,0.018772098324690775
0.34500000000000003,0.0025,-0.14000000000005552,0.00759329692327687,0.9214508402387711,0.016561297385984212,0.01806938772862706
0.34600000000000003,0.0035,-1.1399999999999444,0.007672754460067009,0.9355214723467806,0.016882868403280557,0.019388374461519097
0.34700000000000003,-0.0114,-0.14000000000005552,0.007799924324811373,0.9355214723467806,0.017397535034380535,0.019388374461519097
0.34800000000000003,-0.0136,-1.1399999999998889,0.007800727977905756,0.952605885826972,0.01740078748283985,0.0209898742766402
0.34900000000000003,0.0002,0.8599999999999445,0.007790024449287343,0.9452971744151896,0.017357469444985563,0.020304752719010232
0.35000000000000003,-0.0017,-0.1399999999999445,0.007604840951361148,0.9452971744151896,0.016608016992515226,0.020304752719010232
0.35100000000000003,0.0096,0.86,0.007597868706084867,0.9493835892130426,0.01657979975728611,0.02068781489149029
0.35200000000000004,-0.0042,0.86,0.007689844251722896,0.9493835892130426,0.016952032159296315,0.02068781489149029
0.35300000000000004,0.0085,-1.14,0.007804362471205612,0.9452971744151895,0.0174154965684094,0.02030475271901022
0.35400000000000004,0.0099,1.86,0.008065505687821337,0.9452971744151895,0.018472364088087903,0.02030475271901022
0.35500000000000004,0.0085,-1.14,0.0080538845450767,0.9485333532367178,0.018425332392348216,0.020608113427903488
0.35600000000000004,-0.0006,-0.14,0.008023668448135509,0.948533353236718,0.018303045427201448,0.020608113427903498
0.35700000000000004,0.0056,0.86,0.008132800054675668,0.9517585284344151,0.018744709782176246,0.02091044265265762
0.35800000000000004,0.0132,0.86,0.008494907483077681,0.9590179988939159,0.02021018755591274,0.021590948343546426
0.35900000000000004,-0.0017,-0.14,0.008457069852530502,0.9420498785691704,0.02005705563364744,0.020000349895754232
0.36000000000000004,0.0048,0.86,0.008445791343526948,0.9420498785691706,0.020011410604108732,0.020000349895754242
0.36100000000000004,0.003,0.86,0.008489774236301088,0.9493835892130413,0.02018941289494707,0.020687814891490176
0.36200000000000004,-0.0061,0.86,0.008409818082969494,0.9461503185128067,0.01986582393655975,0.020384726791060744
0.36300000000000004,-0.0075,-1.14,0.008136955748122822,0.9205748061467832,0.018761528206498946,0.017987267939265545
0.36400000000000005,0.003,-0.14,0.008133244576625601,0.9205748061467838,0.018746508798121432,0.017987267939265597
0.36500000000000005,0.0019,-0.14,0.008187742175489647,0.930507547765004,0.018967064946913276,0.018918367147539215
0.36600000000000005,0.0008,-0.14,0.008216668419055051,0.9476823544510794,0.019084131772108933,0.02052834045826374
0.36700000000000005,0.011,-0.14,0.008216789586599884,0.9509104159609838,0.019084622146870463,0.020830940247089123
0.36800000000000005,0.0019,1.86,0.008107992131804057,0.9509104159609838,0.01864431013077624,0.020830940247089123
0.36900000000000005,0.0009,-1.14,0.008103830578354277,0.9509104159609839,0.01862746799055343,0.020830940247089133
0.37000000000000005,-0.0067,0.86,0.008103830578354277,0.9581763120313194,0.01862746799055343,0.021512048277331032
0.37100000000000005,-0.0074,-0.14,0.008066811613441647,0.9541275561622997,0.018477649273700256,0.02113251626803944
0.37200000000000005,-0.0012,0.86,0.008083488004631056,0.9468305907993222,0.018545139964907736,0.020448495789765306
0.37300000000000005,0.0043,0.86,0.00807557092269846,0.9549728114940181,0.018513098900032953,0.021211750843990594
0.37400000000000005,-0.0008,0.86,0.008100434063078121,0.9645513949128073,0.018613722021111903,0.022109651119706763
0.37500000000000006,-0.0029,0.86,0.008091944794829354,0.9645513949128073,0.01857936527237367,0.022109651119706763
0.37600000000000006,-0.0026,-1.14,0.008095144636344784,0.9613691378357698,0.018592315287348612,0.021811345056905584
0.37700000000000006,-0.0109,-0.14,0.00805522177578662,0.9613691378357698,0.018430744272166295,0.021811345056905584
0.37800000000000006,0.008,-1.14,0.00803818604224289,0.9581763120313194,0.01836179929366142,0.021512048277331032
0.37900000000000006,0.0106,-0.14,0.008038366702809012,0.9581763120313194,0.018362530441446513,0.021512048277331032
0.38000000000000006,0.0102,1.86,0.008039867353586484,0.9653875235845911,0.018368603695370713,0.022188030158872014
0.38100000000000006,-0.0017,0.86,0.00804014893380109,0.9613691378357698,0.018369743273058615,0.021811345056905584
0.38200000000000006,0.0005,0.86,0.008145470375561533,0.9685565780778841,0.018795987585910588,0.022485098606144255
0.38300000000000006,-0.0052,-1.14,0.008111033063994088,0.9756910733899278,0.018656617026979936,0.023153889076268856
0.38400000000000006,-0.0033999999999998333,0.86,0.008099451041598024,0.9796507143888007,0.01860974365442513,0.023525067421664995
0.38500000000000006,-0.0018999999999974575,0.86,0.008080923814189825,0.9796507143888007,0.018534762480756597,0.023525067421664995
0.38600000000000007,0.02099999999999819,0.86,0.008079071724937898,0.9796507143888007,0.018527266927170046,0.023525067421664995
0.38700000000000007,0.004699999999998357,-0.14,0.00807289212483522,0.9928969213607415,0.01850225759046293,0.02476677220955341
0.38800000000000007,-0.010099999999999722,0.86,0.008000385053513203,0.9959784489098092,0.018208815663767145,0.025055635845746983
0.38900000000000007,-0.007600000000001321,-0.14,0.007973816300078708,0.9827737768416689,0.01810128979000653,0.02381782455650484
0.39000000000000007,-0.01949999999999827,0.86,0.008000260244759642,0.9756910733899278,0.01820831055274217,0.023153889076268856
0.39100000000000007,-0.003900000000000644,0.86,0.008044882278225349,0.9717152973906974,0.01838889949716537,0.022781198229426917
0.39200000000000007,-0.009699999999999789,1.86,0.00809804952043832,0.9756910733899278,0.01860407158600601,0.023153889076268856
0.39300000000000007,-0.0077999999999987454,0.86,0.007964314316761435,0.9725452670429477,0.018062834502250266,0.022858999919615243
0.3940000000000001,0.003500000000000844,-0.14,0.007954270648674705,0.9725452670429477,0.01802218697283381,0.022858999919615243
0.3950000000000001,0.011100000000000412,1.86,0.007949650342534864,0.9653875235845918,0.018003488223720387,0.022188030158872076
0.3960000000000001,0.014799999999998757,0.86,0.007946941372706996,0.9725452670429483,0.017992524805792224,0.022858999919615295
0.3970000000000001,0.0035999999999995224,1.86,0.00793987651974819,0.9653875235845923,0.01796393277985247,0.022188030158872128
0.3980000000000001,-0.0006999999999996004,-0.14,0.007874450075013596,0.9653875235845922,0.01769914671623519,0.022188030158872118
0.3990000000000001,0.0028999999999993224,-1.14,0.007948713969311337,0.9581763120313219,0.017999698646265275,0.02151204827733127
0.4000000000000001,-0.0032000000000011217,-1.14,0.007948953673520661,0.9549728114940211,0.01800066874840481,0.021211750843990875
0.4010000000000001,-0.013300000000000398,-1.14,0.008016782885616358,0.9549728114940211,0.01827517900403521,0.021211750843990875
0.4020000000000001,-0.016900000000000397,0.86,0.008458212513580714,0.9517585284344157,0.020061680074464325,0.020910442652657672
0.4030000000000001,-0.020499999999998634,0.86,0.00853190418715931,0.9485333532367185,0.020359916181399373,0.02060811342790355
0.40399999999999997,-0.0082,0.86,0.008496966854562448,0.9444432596470766,0.02021852199730244,0.020224706403996397
0.40499999999999997,-0.0034,0.86,0.0084563024831389,0.927208456714289,0.02005395002824022,0.018609109020889813
0.40599999999999997,0.0133,0.86,0.008444368022914274,0.9196979376119337,0.020005650311556933,0.017905069928893392
0.407,0.0245,-1.1399999999999444,0.008448066027959052,0.9196979376119337,0.020020616434246557,0.017905069928893392
0.408,0.0148,-0.14,0.00843102205015005,0.9238975852102561,0.019951638090539618,0.018298746589791654
0.409,0.0021,-0.14000000000005552,0.008443953190750222,0.9379315125330279,0.020003971452553868,0.01961429260130098
0.41,-0.0091,-1.1399999999999444,0.008493807732855614,0.9411930176364699,0.020205736778655243,0.01992002740608284
0.411,-0.0048,-0.14,0.008516165060824605,0.94119301763647,0.020296218676149815,0.01992002740608285
0.412,-0.0037,-0.1399999999999445,0.008537376703442522,0.9452971744151902,0.020382063893239613,0.020304752719010295
0.413,0.0024,0.8600000000000555,0.008528039032903698,0.9493835892130433,0.020344273592462,0.020687814891490363
0.414,0.01,1.86,0.008500848161965006,0.9493835892130432,0.020234229959319647,0.020687814891490353
0.415,0.0075,1.8599999999999446,0.008668546273613518,0.9493835892130432,0.020912917652645933,0.020687814891490353
0.416,0.0013,0.8599999999999445,0.008669532907631821,0.9526058858269728,0.020916910639564253,0.020989874276640272
0.417,-0.0042,-0.14,0.008687595917865422,0.9773435553692926,0.020990013089135454,0.023308793403977398
0.418,0.0009,-0.14,0.008618075048012272,0.984414369550109,0.02070865655902995,0.023971614379158228
0.419,-0.0013,-1.14,0.008631946677082244,0.9678915757906134,0.020764796153230687,0.022422761023332058
0.42,0.0001,0.86,0.008642840036695023,0.9638836293748009,0.020808882452327877,0.022047054508655323
0.421,0.0062,-0.14,0.008617664952110462,0.9638836293748005,0.020706996868059636,0.02204705450865529
0.422,-0.0061,-2.14,0.008632805098686289,0.9638836293748005,0.020768270254236495,0.02204705450865529
0.423,0.0066,1.86,0.008693990917930739,0.9606991603678993,0.02101589416674859,0.021748541098655913
0.424,0.0018,0.86,0.008684227815651058,0.9606991603678984,0.020976382109631375,0.02174854109865583
0.425,-0.0025,-0.14,0.008698057035766028,0.9647203368029943,0.021032350071393535,0.02212548780068
0.426,-0.0015,-0.14,0.008724265461063835,0.9687248214797538,0.021138417668316537,0.02250086981054071
0.427,0.0047,-0.14,0.008740698915600042,0.9687248214797524,0.02120492517542513,0.022500869810540575
0.428,-0.0008,-0.14,0.008684814999432256,0.9718829939844251,0.02097875848943734,0.022796918175807448
0.429,-0.0016,-1.14,0.00864794180583929,0.981296528441621,0.02082952972079363,0.023679346695247985
0.43,-0.0009,0.86,0.008598373131736949,0.9883390625116588,0.02062892132540351,0.024339516681430227
0.431,-0.0132,-1.14,0.008539454150075529,0.9718829939844214,0.02039047148620237,0.022796918175807094
0.432,-0.0042,-1.14,0.008537852537464447,0.9718829939844214,0.020383989631648777,0.022796918175807094
0.433,-0.0028,-1.14,0.008537852537464447,0.9718829939844214,0.020383989631648777,0.022796918175807094
0.434,-0.0043,-1.14,0.008523285983462435,0.9718829939844214,0.020325037620572715,0.022796918175807094
0.435,0.0048,0.86,0.008523591479789228,0.9687248214797491,0.02032627398868272,0.022500869810540274
0.436,0.0058,1.86,0.00854019060475616,0.9727128205491433,0.02039345197729749,0.022874706452912754
0.437,-0.0018,0.86,0.008301234704377165,0.976684535953328,0.019426378304012247,0.023247016657936204
0.438,0.0072,0.86,0.008388085452662435,0.9930610410547127,0.01977787024055198,0.02478215685590708
0.439,-0.0067,-0.14,0.008328049103860051,1.006130709950661,0.019534898327011153,0.02600731289329892
0.44,-0.0085,0.86,0.008302175142350371,1.0130006077296645,0.01943018433183497,0.026651299883881395
0.441,-0.01,-1.14,0.008071096927652201,1.0168149697808189,0.01849499228363728,0.027008859722081953
0.442,-0.0025,-0.14,0.008106138582588867,1.0137967787112054,0.018636808668601394,0.02672593327303584
0.443,-0.0061,0.86,0.008081951754857632,1.0008272249894414,0.018538922638994825,0.025510162072479792
0.444,-0.0025,-0.14,0.008068927620080161,1.0008272249894414,0.01848621292209462,0.025510162072479792
0.445,-0.0015,-1.14,0.008069938181685707,1.0008272249894414,0.01849030274587552,0.025510162072479792
0.446,0.0011,-0.14,0.008144702423119444,0.991599118366194,0.018792879620851338,0.024645115633034623
0.447,-0.0051,-0.14,0.008263196703015716,0.988503938939781,0.01927243546500847,0.024354972264348632
0.448,-0.0174,-0.14,0.008470154167095042,0.9751980635000825,0.020110008902967342,0.02310767413020966
0.449,-0.0007,-0.14,0.008527113569286836,0.9751980635000825,0.020340528167059103,0.02310767413020966
0.45,0.0105,-0.14,0.008569844659571292,0.9751980635000825,0.020513464312930916,0.02310767413020966
0.451,0.0286,-0.14,0.008575110405877336,0.9751980635000825,0.02053477521010775,0.02310767413020966
0.452,0.0119,-0.14,0.00854515223687267,0.9680599347661599,0.020413532099984533,0.022438543061651633
0.453,-0.0037,0.86,0.008390099527577941,0.96805993476616,0.019786021363096856,0.022438543061651644
0.454,-0.0055,-0.14,0.008528129867495763,0.9648892491132395,0.02034464120733349,0.022141321708817555
0.455,-0.0073,-0.14,0.008998116537166952,0.9648892491132395,0.022246714913457248,0.022141321708817555
0.456,-0.0026,-0.14,0.009167068079230503,0.9648892491132395,0.022930475340094392,0.022141321708817555
0.457,0.0017,-1.14,0.009096780327907991,0.9648892491132395,0.022646015179242068,0.022141321708817555
0.458,0.014,1.86,0.008767547132473064,0.9743703535051573,0.021313582060111264,0.023030084261211024
0.459,0.0093,0.86,0.008666533492471222,0.9814625879495429,0.020904771766104894,0.023694913180544327
0.46,0.0078,0.86,0.008673772793299733,0.9845799032022566,0.020934069796549593,0.02398713157052205
0.461,0.0067,-1.14,0.008630727623139295,0.9775102864087505,0.020759862544256515,0.02332442283891096
0.462,-0.0046,-1.14,0.008631854153972569,0.9806401655449711,0.020764421704793146,0.023617818972399562
0.463,-0.0031,-1.14,0.008629877696634458,0.9806401655449712,0.0207564228235978,0.023617818972399573
0.464,0.0172,-0.14,0.008668815648272363,0.9775102864087502,0.02091400783347179,0.023324422838910928
0.465,0.0023,0.86,0.008619154220269295,0.9680599347661609,0.02071302405561426,0.022438543061651727
0.466,-0.0057,-2.14,0.008589373527164986,0.9680599347661619,0.020592499204678646,0.02243854306165182
0.467,0.0012,-1.14,0.008598295293852637,0.9648892491132418,0.020628606309249557,0.022141321708817774
0.468,-0.0053,-0.14,0.008588386428217605,0.9680599347661624,0.0205885043361551,0.022438543061651862
0.46900000000000003,0.0044,0.86,0.008591997695053349,0.9680599347661624,0.020603119422363547,0.022438543061651862
0.47000000000000003,-0.001,0.8599999999999445,0.008593488912330262,0.9608687795659809,0.020609154498155202,0.021764441270744568
0.47100000000000003,-0.009,-0.14,0.00860545300448488,0.9608687795659809,0.020657574137633194,0.021764441270744568
0.47200000000000003,-0.0104,-0.1399999999999445,0.008588633328544764,0.9608687795659809,0.02058950356156005,0.021764441270744568
0.47300000000000003,-0.0014,0.859999999999889,0.008575914371961592,0.952776945840537,0.02053802892526216,0.021005909511353785
0.47400000000000003,-0.005,-1.14,0.008609182172143046,0.9356956556674395,0.020672666377915854,0.019404702476300276
0.47500000000000003,0.0073,-1.14,0.008619834085917582,0.9324149214752886,0.020715775526361738,0.019097165128981738
0.47600000000000003,0.0059,-1.1399999999998889,0.008655836051885964,0.9495552297155077,0.02086147836700854,0.02070390454146767
0.47700000000000004,0.0045,0.8600000000000555,0.008656394630738574,0.9568314167265409,0.020863738980376762,0.021385977248644144
0.47800000000000004,0.0008,1.8599999999998336,0.008643527917563978,0.9568314167265409,0.02081166636131555,0.021385977248644144
0.47900000000000004,-0.0053,-1.1399999999999444,0.008643941807456023,0.9600287153414061,0.020813341406868312,0.02168569331127225
0.48000000000000004,-0.002,-0.14,0.008646036126950807,0.9559878047184349,0.020821817285654486,0.021306896718511683
0.48100000000000004,-0.0002,0.86,0.00865034155481026,0.96955735107085,0.02083924169714005,0.022578911470429664
0.48200000000000004,0.0005,0.86,0.008566904561504522,0.96955735107085,0.020501565500502597,0.022578911470429664
0.48300000000000004,0.0013,-1.14,0.008558764446280244,0.962377385052597,0.020468621802027596,0.021905858557952438
0.48400000000000004,0.0034,-0.14,0.008637210591118008,0.9623773850525968,0.0207860996350629,0.021905858557952428
0.48500000000000004,0.0056,-1.14,0.008694508098935998,0.9551434476066019,0.021017987239711915,0.021227746342055112
0.48600000000000004,0.0063,-1.14,0.008693957355415347,0.9591879153823424,0.02101575833655987,0.021606876383751993
0.48700000000000004,0.0129,1.86,0.008675524466666314,0.9829395867807311,0.020941158959003118,0.023833367647115546
0.48800000000000004,0.0009,1.86,0.00867438533064489,0.986870144836884,0.020936548784260153,0.024201819745722854
0.48900000000000005,-0.0038,-1.14,0.008658803381615721,0.9907851100415621,0.020873487388158692,0.024568810164139455
0.49000000000000005,0.0006,-1.14,0.008644032642037907,0.9907851100415621,0.020813709021698597,0.024568810164139455
0.49100000000000005,-0.0085,-0.14,0.008602833609192883,0.9876873797082352,0.020646973235028152,0.024278427672409772
0.49200000000000005,-0.0074,0.86,0.008575565210115632,0.9806401655449722,0.020536615839297726,0.023617818972399666
0.49300000000000005,-0.0063,0.86,0.008587557911682624,0.9806401655449722,0.020585151263359698,0.023617818972399666
0.49400000000000005,-0.0038,-0.14,0.00857518567465505,0.9775102864087516,0.02053507982888147,0.023324422838911063
0.49500000000000005,-0.0157,-1.14,0.008575118774937131,0.9845799032022584,0.02053480908036325,0.023987131570522218
0.49600000000000005,-0.0204,-0.14,0.008610759780639578,0.9806401655449722,0.020679051085894722,0.023617818972399666
0.49700000000000005,-0.019,0.86,0.008638106311023965,0.9837600868734315,0.02078972468528478,0.023910281656969623
0.49800000000000005,-0.0099,-0.14,0.00872162564353154,0.9837600868734315,0.021127734115268842,0.023910281656969623
0.49900000000000005,0.009,-1.14,0.008581345033277949,0.9837600868734315,0.020560007246698236,0.023910281656969623
0.5,-0.0044,-1.14,0.008641047797302888,0.9907851100415622,0.0208016291159189,0.024568810164139466
0.5010000000000001,-0.0112,-0.14,0.008627489013806014,0.9938731853336328,0.02074675563281677,0.024858287588404873
0.502,-0.0047,0.86,0.008143976977157982,0.9938731853336328,0.018789943682924682,0.024858287588404873
0.5030000000000001,0.0255,-0.14,0.008070515689346112,0.9938731853336328,0.018492639965645413,0.024858287588404873
0.504,0.0298,0.86,0.008068016051054939,0.9977606727241356,0.018482523729217288,0.025222702225430278
0.5050000000000001,0.0178,0.86,0.00808380247310604,1.0137967787112079,0.018546412644020294,0.02672593327303607
0.506,0.007,0.86,0.008097329151566112,1.0137967787112079,0.018601156195466328,0.02672593327303607
0.5070000000000001,0.0037,1.86,0.0080932783225266,1.020615076451485,0.018584762165802786,0.027365083255161887
0.508,0.0066,-1.14,0.008154678848321146,1.0137967787112079,0.018833255012924783,0.02672593327303607
0.5090000000000001,0.0040999999999992345,0.86,0.008059500187234104,1.004687805136386,0.01844805934606814,0.025872054413633928
0.51,-0.002800000000000244,-0.14,0.00800528891711916,1.004687805136386,0.018228661992663736,0.025872054413633928
0.5110000000000001,-0.004999999999999801,0.86,0.007999849146040709,1.004687805136386,0.018206646803290615,0.025872054413633928
0.512,-0.0032000000000005995,-0.14,0.007973539597314241,1.0046878051363861,0.01810016995175011,0.02587205441363395
0.5130000000000001,-0.008599999999999478,-0.14,0.007962429157051506,0.9977606727241356,0.018055205109870673,0.025222702225430278
0.514,-0.0038999999999998333,-1.14,0.0081679179746048,0.9907851100415624,0.018886834817675006,0.024568810164139487
0.5150000000000001,-0.002399999999999278,1.86,0.008010045784512481,0.9977606727241317,0.018247913416110883,0.025222702225429914
0.516,0.0040999999999996005,-0.14,0.008112474309900426,1.0107695752643402,0.018662449864631316,0.026442162000108634
0.5170000000000001,0.0004999999999996447,0.86,0.008124320935225814,0.9868701448368766,0.01871039410644031,0.02420181974572217
0.518,-0.0026999999999994784,-0.14,0.0081780236367083,1.0038844099422939,0.018927733241844116,0.02579674382387916
0.5190000000000001,0.0020000000000002776,-0.14,0.008686016074221358,1.0198242284901262,0.020983619335335452,0.027290948848067757
0.52,0.0044999999999991444,0.86,0.008827190312829806,1.0168149697808004,0.021554962789453066,0.027008859722080225
0.5210000000000001,-0.0032000000000000778,-0.14,0.008876984489451074,1.0137967787111875,0.021756483811603885,0.026725933273034155
0.522,-0.003900000000000688,1.86,0.008852410664997631,1.020615076451465,0.021657031575257488,0.027365083255160013
0.5230000000000001,-0.0100999999999994,-0.14,0.008801883108030385,1.027388125313348,0.021452542504090198,0.02799999158916215
0.524,-0.0047000000000004,-0.14,0.008804271907200331,1.024401086386444,0.021462210165714608,0.027719985354547005
0.5250000000000001,-0.008299999999999278,1.86,0.008807709418891996,1.0206150764514643,0.021476122050934212,0.02736508325515995
0.526,-0.0017999999999997558,-1.14,0.008874873921316091,1.0168149697807989,0.02174794217326903,0.02700885972208008
0.5270000000000001,0.00040000000000007776,-0.14,0.00888389861073249,1.0168149697807989,0.021784465814369054,0.02700885972208008
0.528,0.0010999999999996004,0.86,0.008905981430231746,1.013796778711185,0.021873836754093788,0.026725933273033926
0.5290000000000001,-0.0025000000000000443,0.86,0.00892039788221379,0.9977606727241153,0.021932181290269304,0.025222702225428374
0.53,-0.0028999999999990782,1.86,0.008906416531108038,0.997760672724116,0.021875597642199155,0.025222702225428436
0.5309999999999999,0.0054,-1.14,0.008912625893451173,1.0008272249894241,0.021900727429077865,0.02551016207247817
0.532,0.0018,-0.14,0.008914995524824346,1.0008272249894241,0.02191031751709307,0.02551016207247817
0.5329999999999999,0.0119,-1.14,0.008967035941154985,0.997760672724116,0.0221209292513099,0.025222702225428436
0.534,0.0108,-0.14,0.008966213161696919,0.997760672724116,0.022117599396924408,0.025222702225428436
0.5349999999999999,0.0047,-1.14,0.008961990086103567,0.997760672724116,0.022100508271657583,0.025222702225428436
0.536,0.0014,2.86,0.008966832001406685,0.997760672724116,0.02212010389080947,0.025222702225428436
0.5369999999999999,-0.0011,-1.14,0.008948665092363904,0.993873185333613,0.022046580954433445,0.02485828758840302
0.538,0.005,-1.14,0.008877461691917407,0.9845799032022385,0.021758415088217204,0.023987131570520355
0.5389999999999999,0.0043,-0.14,0.00888259456011898,0.9845799032022385,0.021779188217059434,0.023987131570520355
0.54,0.0007,-0.14,0.008928992196006888,0.993873185333613,0.021966963166741384,0.02485828758840302
0.5409999999999999,0.0072,-0.14,0.008964874171057739,0.9899704323945662,0.022112180394531614,0.024492441952695728
0.542,-0.0052,-0.14,0.008930449478671302,0.9899704323945662,0.021972860906437516,0.024492441952695728
0.5429999999999999,0.0039,-0.14,0.00891225536424666,0.9868701448368642,0.02189922786770148,0.024201819745721005
0.544,0.0024,-1.14,0.008961275938357785,0.9868701448368642,0.022097618058514967,0.024201819745721005
0.5449999999999999,-0.008,0.86,0.008985252151466505,0.9899704323945662,0.02219465171387039,0.024492441952695728
0.546,-0.007,0.86,0.008851344227728973,0.98605223264581,0.02165271561819138,0.024125148326811754
0.5469999999999999,-0.0131,-0.14,0.008669095259261819,0.98605223264581,0.02091513944154774,0.024125148326811754
0.548,-0.0077,-0.14,0.00850040767202141,0.9992135806477699,0.020232447261227145,0.025358898400603992
0.5489999999999999,-0.0102,-1.14,0.008445716118395646,0.9992135806477699,0.020011106161975538,0.025358898400603992
0.55,-0.0094,0.86,0.008397986101594004,1.0083720060009551,0.01981793895998922,0.026217412889669275
0.5509999999999999,0.003,-0.14,0.00840191254832997,1.0045255850284214,0.019833829604505162,0.025856847835239224
0.552,0.0048,-0.14,0.008329523206361183,1.0045255850284214,0.019540864137934037,0.025856847835239224
0.5529999999999999,-0.0031,-1.14,0.008316795802362524,1.0045255850284214,0.019489355314268885,0.025856847835239224
0.554,0.0074,1.86,0.00791717804618764,1.0045255850284214,0.01787207023881727,0.025856847835239224
0.5549999999999999,0.0086,-0.14,0.007333458647427683,1.0045255850284214,0.01550971106613594,0.025856847835239224
0.556,-0.0001,-1.14,0.007117724234404081,1.001470357390343,0.014636616612615972,0.02557044956331677
0.5569999999999999,0.0101,-0.14,0.007084972779681006,0.9984057804752486,0.014504068851400431,0.02528317488639336
0.558,0.0065,-1.14,0.00707871769516464,0.9821184012104083,0.014478754023223529,0.023756389380312475
0.5589999999999999,0.0003,0.86,0.007053235710642356,0.9750309370687883,0.01437562639031939,0.02309200763108577
0.56,-0.0073,0.86,0.007122498759491842,0.9718829939844036,0.0146559394981672,0.02279691817580543
0.5609999999999999,0.0018,-1.14,0.007129751012958114,0.9718829939844036,0.014685289948974648,0.02279691817580543
0.562,-0.0018,-0.14,0.007124630670023659,0.9758580867655842,0.01466456751089193,0.023169544977511624
0.563,-0.0185,-0.14000000000011104,0.007118688917932608,0.9758580867655842,0.01464052076414356,0.023169544977511624
0.5640000000000001,-0.0065,-1.1399999999996668,0.007069954022955265,0.9789932480619759,0.01444328673967227,0.02346343626282661
0.565,-0.0131,1.859999999999778,0.0070596230197682965,0.9961420609058661,0.014401476342084692,0.025070972900293247
0.5660000000000001,-0.0072,-0.14000000000022206,0.007090689398179167,0.9868701448368643,0.014527204464461329,0.024201819745721016
0.567,0.0094,-2.139999999999556,0.007359492488666634,0.9938731853336131,0.015615072107385584,0.02485828758840303
0.5680000000000001,0.0297,1.859999999999778,0.007396790792896064,0.9907851100415425,0.015766021332833696,0.024568810164137613
0.569,0.0163,-0.14,0.007397070339449086,0.9907851100415425,0.015767152680130233,0.024568810164137613
0.5700000000000001,0.0094,-0.14000000000011104,0.0074348869734392874,0.997760672724116,0.01592019962764726,0.025222702225428436
0.571,-0.0061,-1.14,0.007432683327062359,0.997760672724116,0.015911281294210093,0.025222702225428436
0.5720000000000001,-0.0042999999999996,-1.1399999999998889,0.007466408677869827,1.0046878051363666,0.016047770490904893,0.025872054413632117
0.573,-0.0025,-0.139999999999889,0.0074703562466717985,0.9915991183661765,0.0160637466181142,0.02464511563303299
0.5740000000000001,0.005500000000001688,0.86,0.007405156934652604,1.0077332782214155,0.01579987977879335,0.02615753828981652
0.575,0.0131,0.8599999999997779,0.0073938578272756145,1.0077332782214155,0.015754151385987066,0.02615753828981652
0.5760000000000001,-0.007199999999996692,-1.1399999999998889,0.007349165862116952,0.9985689947617178,0.01557327942239975,0.025298474659482352
0.577,0.0077,-0.14,0.007412632642465197,0.9915991183661764,0.01583013456724287,0.02464511563303298
0.5780000000000001,0.00509999999999849,-0.14,0.00741692828276293,0.9985689947617178,0.015847519367681997,0.025298474659482352
0.579,-0.0017,-1.14,0.007419431756082293,0.9985689947617178,0.015857651124776457,0.025298474659482352
0.5800000000000001,-0.0038999999999996,0.86,0.007418496972919215,0.995495486204873,0.015853867982423372,0.025010362726856333
0.581,-0.0021,0.86,0.007420147639938127,0.9822843217771144,0.015860548364095547,0.023771942841203177
0.5820000000000001,-0.00969999999999798,-0.14,0.007403647342890089,0.9783353399011137,0.01579377033998635,0.02340176368628723
0.583,-0.0006,-1.14,0.007470478599566277,0.9946846665098088,0.01606424179008071,0.024934356161383803
0.5840000000000001,-0.002100000000000955,-0.14,0.007375385950111115,0.9907851100415426,0.015679394219189284,0.024568810164137624
0.585,-0.0064,-1.14,0.007302499399327851,0.9938731853336131,0.015384416508711043,0.02485828758840303
0.5860000000000001,-0.0028000000000007992,0.86,0.0072872570335939385,0.9938731853336131,0.015322729433411909,0.02485828758840303
0.587,-0.0064,-1.14,0.007308399839570634,0.9568314167265206,0.01540829606309969,0.02138597724864224
0.5880000000000001,-0.0031999999999971136,1.86,0.007322333886266774,0.9568314167265206,0.015464688266434247,0.02138597724864224
0.589,0.0098,1.86,0.007307351722672127,0.9527769458405165,0.015404054250039358,0.02100590951135187
0.5900000000000001,0.007999999999997513,0.86,0.0073074911105941685,0.9559878047184145,0.015404618364127215,0.021306896718509768
0.591,-0.0032,-0.14,0.00731429018760463,0.959187915382322,0.015432134773510818,0.021606876383750077
0.5920000000000001,-0.004700000000001466,-0.14,0.007285691426128869,0.9623773850525766,0.015316393294568856,0.021905858557950533
0.593,-0.0113,0.86,0.00746497729263011,1.0137967787111886,0.016041977560161336,0.02672593327303426
0.5940000000000001,-0.007599999999997757,0.86,0.00746171373628757,1.0206150764514659,0.01602876968617644,0.027365083255160096
0.595,0.0025,0.86,0.007507860612883178,1.0206150764514659,0.016215529792912346,0.027365083255160096
0.5959999999999999,-0.0098,-0.14,0.007499798907967272,1.0176081564309911,0.01618290342723733,0.027083213358809383
0.597,-0.0084,1.86,0.007488100950542131,1.0176081564309911,0.016135560856331478,0.027083213358809383
0.5979999999999999,0.0021,-0.14,0.007403334199212273,1.0206150764514659,0.015792503022434068,0.027365083255160096
0.599,0.0011,1.86,0.00736668599603419,1.0273881253133503,0.01564418480802496,0.02799999158916236
0.5999999999999999,-0.0051,0.86,0.00729700212749519,1.0206150764514659,0.015362168609178842,0.027365083255160096
0.601,-0.0019,-0.14,0.007238787256750219,1.0244010863864454,0.015126568363267888,0.02771998535454715
0.6019999999999999,0.0007,0.86,0.007330276733199232,1.0273881253133503,0.015496833604327692,0.02799999158916236
0.603,-0.0019,-0.14,0.007320191382491567,1.0273881253133503,0.015456017382004817,0.02799999158916236
0.6039999999999999,0.0003,0.86,0.00734384984804026,1.023613163516952,0.015551765087527798,0.02764612514674509
0.605,0.0025,-0.14,0.007373367290976188,1.0145923249215567,0.01567122454394114,0.026800508095886803
0.6059999999999999,0.0017,-0.14,0.007467472148499874,1.0176081564309911,0.016052074441746864,0.027083213358809383
0.607,-0.0023,-0.14,0.007468059060790291,1.0107695752643286,0.01605444972280789,0.02644216200010755
0.6079999999999999,0.0028,-0.14,0.007429542533442271,1.0107695752643286,0.01589857025079835,0.02644216200010755
0.609,0.0107,-0.14,0.007404484196717228,1.0038844099422914,0.015797157154471074,0.02579674382387893
0.6099999999999999,0.0042,-0.14,0.0074049083183546855,1.0503660369340673,0.01579887360871726,0.03015395029866761
0.611,-0.0042,-1.14,0.007369492342977257,1.0503660369340673,0.015655542318939907,0.03015395029866761
0.6119999999999999,0.0012,-0.14,0.007458926093010096,1.046673951159042,0.016017487870494635,0.02980785268794366
0.613,0.002,0.86,0.0077117034306772025,1.0495976058852419,0.017040498007818206,0.03008191726200211
0.6139999999999999,-0.0006,-2.14,0.007509593601352045,1.0561848133896266,0.016222543336087844,0.030699404752144395
0.615,0.007,-1.14,0.007566024054460872,1.0495976058852454,0.016450921900862975,0.030081917262002444
0.6159999999999999,0.0201,-1.14,0.007452425953081441,1.0370758699511315,0.01599118128343107,0.02890812468160571
0.617,0.0074,-0.14,0.007604436621171484,1.0400265065276204,0.0166063806358439,0.029184718545200466
0.6179999999999999,0.0027,-0.14,0.007565934808255653,1.0168149697808189,0.016450560714320307,0.027008859722081953
0.619,-0.0078,-1.14,0.00699558536176697,1.0008272249894452,0.014142310809642495,0.025510162072480146
0.6199999999999999,-0.0042,0.86,0.006804147948921812,1.0038844099423123,0.013367548262449645,0.025796743823880888
0.621,-0.0078,-1.14,0.006745782359426586,1.0069323129040875,0.013131338045681264,0.02608245547769034
0.6219999999999999,-0.0046,0.86,0.006853538519526343,1.000020728292932,0.01356743585871499,0.025434560746636616
0.623,-0.0021,1.86,0.007018996165780692,0.9930610410547177,0.014237056209091527,0.02478215685590755
0.6239999999999999,0.0022,-0.14,0.007084730317799253,0.9930610410547179,0.014503087588739638,0.02478215685590757
0.625,0.0015,-1.14,0.007108643913786954,0.9899704323945888,0.014599867827589591,0.02449244195269785
0.6259999999999999,0.0098,-0.14,0.007019793540867682,0.9899704323945907,0.014240283249951947,0.02449244195269803
0.627,-0.0026,-1.14,0.0070366790879051845,0.9829395867807372,0.014308620411633617,0.02383336764711612
0.6279999999999999,0.0022,0.86,0.007001601836081881,0.9829395867807372,0.014166659963217356,0.02383336764711612
0.629,-0.0022,-0.14,0.00698520345753872,0.9860522326458357,0.01410029441146281,0.02412514832681417
0.6299999999999999,-0.0033,0.86,0.006983320338069185,0.9821184012104343,0.014092673276099548,0.02375638938031491
0.631,-0.0023,0.86,0.006974166686886991,0.9860522326458357,0.014055627716401311,0.02412514832681417
0.6319999999999999,0.0101,1.86,0.007013095766794627,0.989970432394592,0.014213176821672125,0.024492441952698153
0.633,-0.0012,0.86,0.006946226627731577,0.9899704323945919,0.013942552058523105,0.024492441952698143
0.6339999999999999,0.0032,0.86,0.006992626152782475,0.9829395867807372,0.01413033465379903,0.02383336764711612
0.635,-0.0005,-1.14,0.006991330591238889,0.9829395867807372,0.014125091412435517,0.02383336764711612
0.6359999999999999,0.0057,0.86,0.006974753637155947,0.9789932480620019,0.014058003151164523,0.023463436262829054
0.637,0.0046,-1.14,0.007000827612448976,0.9922482320448545,0.014163526618146446,0.024705963811262846
0.6379999999999999,-0.0019,0.86,0.007008550105532779,0.985233641448205,0.014194780166360272,0.024048413257554378
0.639,-0.0044,0.86,0.007021914960944508,0.9687248214797575,0.014248868806964866,0.022500869810541054
0.6399999999999999,0.0032,0.86,0.0070265192508185475,0.955143447606607,0.014267502736967412,0.02122774634205559
0.641,-0.0033,0.86,0.007004957352559559,0.9519297407165532,0.014180240007236734,0.020926492161088717
0.6419999999999999,-0.0171,-3.14,0.007014686420045171,0.9519297407165532,0.014219614322815587,0.020926492161088717
0.643,-0.0033,-1.14,0.007129355478216343,0.9519297407165532,0.014683689188185607,0.020926492161088717
0.6439999999999999,-0.0087,-1.14,0.007293348745911883,0.9487051475645809,0.015347383081212897,0.020624217497535763
0.645,-0.0072,-0.14,0.007482824652744706,0.9454695567655165,0.016114207256423672,0.0203209119101056
0.6459999999999999,-0.0056,0.86,0.007609569746466314,0.9422228550216935,0.01662715480516314,0.02001656477822925
0.647,-0.0067,0.86,0.007548753440203256,0.9422228550216935,0.01638102634129104,0.02001656477822925
0.6479999999999999,0.0021,-1.14,0.007931525318493634,0.9249466795631672,0.01793013479930134,0.01839708911786145
0.649,0.001,-0.14,0.008464493763111175,0.9422228550216888,0.020087100794549537,0.020016564778228812
0.6499999999999999,0.0017,-1.14,0.008540669932042978,0.9249466795631632,0.020395391853229552,0.018397089117861077
0.651,0.0119,0.86,0.008527429310557274,0.9291226030748653,0.02034180599727684,0.01878854187330421
0.6519999999999999,0.0029,-0.14,0.008626395340892103,0.9324149214752855,0.020742329450912284,0.019097165128981446
0.653,0.0066,0.86,0.008691718237695914,0.9291226030748643,0.02100669644775773,0.018788541873304115
0.6539999999999999,0.0099,-1.14,0.00876468206419054,0.9291226030748638,0.021301986899230952,0.018788541873304074
0.655,0.0146,0.86,0.00888112456516472,0.9430787802669308,0.021773239029707826,0.020096799556180184
0.6559999999999999,0.0009,-0.14,0.008954765174632662,0.9504045515172005,0.02207126847609595,0.02078352030995551
0.657,0.0067,-0.14,0.009003743273666397,0.9751980635000814,0.022269486766868258,0.023107674130209557
0.6579999999999999,-0.0024,-0.14,0.00903076658250376,0.9783353399011302,0.02237885226276194,0.023401763686288782
0.659,-0.0009,-3.14,0.009029661459848,0.9783353399011302,0.022374379742834866,0.023401763686288782
0.6599999999999999,0.0006,0.86,0.008999985629344903,0.9783353399011302,0.02225427927924764,0.023401763686288782
0.661,-0.0117,0.86,0.009128857968394459,0.9783353399011303,0.02277583596025802,0.023401763686288792
0.6619999999999999,-0.0197,0.86,0.009231762354471967,0.9743703535051557,0.023192298255113687,0.023030084261210868
0.663,-0.0058,-1.14,0.009233462638155939,0.9743703535051557,0.023199179439404506,0.023030084261210868
0.6639999999999999,-0.0113,-0.14,0.00923470168514592,0.9783353399011303,0.0232041939618418,0.023401763686288792
0.665,0.0,0.86,0.009236407289241693,0.9568314167265376,0.02321109667826543,0.02138597724864383
0.6659999999999999,0.0167,0.86,0.009214312841685522,0.9527769458405335,0.023121678678862754,0.021005909511353463
0.667,0.0055,-0.14,0.00899369423148762,0.9454695567655079,0.02222881748807073,0.020320911910104798
0.6679999999999999,0.0073,-0.14,0.008980598944680614,0.9527769458405336,0.0221758198132065,0.021005909511353473
0.669,-0.0017,0.86,0.008989996789110994,0.9695573510708466,0.022213853642544197,0.022578911470429352
0.6699999999999999,-0.0032,0.86,0.0089664503807356,0.9695573510708466,0.022118559441379252,0.022578911470429352
0.671,0.0135,-0.14,0.008963384007511135,0.9829395867807278,0.022106149583270944,0.023833367647115234
0.6719999999999999,0.0157,-0.14,0.009050523985924534,0.9829395867807278,0.022458812057311487,0.023833367647115234
0.673,0.0099,-0.14,0.009093491584580672,0.9798170528295151,0.022632705371511862,0.02354066005423389
0.6739999999999999,0.008,-0.14,0.009318064217021013,0.9632154008970242,0.023541568807103792,0.021984414501442968
0.675,-0.0069,0.86,0.009332423299001797,0.9632154008970241,0.023599681162287892,0.021984414501442957
0.6759999999999999,-0.0087,-0.14,0.009331169417181295,0.9806401655449688,0.02359460660210296,0.023617818972399344
0.677,-0.0033,-0.14,0.009293933494313298,0.9876873797082318,0.023443909839022378,0.02427842767240946
0.6779999999999999,-0.0019,0.86,0.00931408855377489,0.9837600868734282,0.023525478979428163,0.02391028165696931
0.679,-0.0004,0.86,0.00945061659395178,0.9806401655449689,0.024078018896253363,0.023617818972399354
0.6799999999999999,-0.0015,-1.14,0.00964650220835028,0.9969516953044244,0.024870783671509546,0.02514686835559291
0.681,-0.0077,-1.14,0.00966963801891232,1.0008272249894405,0.02496441615042795,0.02551016207247971
0.6819999999999999,-0.0001,-0.14,0.009729809102939378,1.0008272249894403,0.025207933348217627,0.02551016207247969
0.683,-0.0081,-0.14,0.00969113982658646,0.9876873797082318,0.025051435688747462,0.02427842767240946
0.6839999999999999,-0.0016,-0.14,0.009696541343895314,0.987687379708232,0.025073296062050245,0.02427842767240947
0.685,-0.0042,0.86,0.009709925767223812,1.0008272249894405,0.025127463895581726,0.02551016207247971
0.6859999999999999,0.0066,1.86,0.009744702215687427,1.017608156431007,0.02526820696870184,0.027083213358810882
0.687,-0.0072,-0.14,0.009746514814356597,1.0214053120796909,0.025275542700736103,0.02743916026189912
0.688,-0.0054,-0.139999999999889,0.00973550108111636,1.017608156431007,0.025230969239924603,0.027083213358810882
0.6890000000000001,-0.0102,0.859999999999889,0.009747397293938354,1.017608156431007,0.02527911416630517,0.027083213358810882
0.69,-0.0059,-0.14,0.009756961381372707,1.0303665048321708,0.025317820794398854,0.028279186087368693
0.6910000000000001,-0.0049,-0.14,0.009753135220397205,1.034116814383057,0.025302336014390112,0.028630741618341702
0.692,-0.0136,-0.14,0.009774690953683902,1.034116814383057,0.025389573793984002,0.028630741618341702
0.6930000000000001,-0.0191,-0.14,0.009625862454402707,1.0000207282929274,0.02478725293368669,0.025434560746636182
0.694,-0.0184,-0.14,0.009628082284805283,1.016814969780818,0.02479623676517227,0.02700885972208187
0.6950000000000001,-0.0141,-0.14,0.009610121223516996,1.016814969780818,0.024723546911150602,0.02700885972208187
0.696,-0.0018,-0.14,0.00959077858205036,1.016814969780818,0.024645265691458973,0.02700885972208187
0.6970000000000001,0.025700000000000868,-0.13999999999977797,0.009576216606352404,1.016814969780818,0.024586332209146224,0.02700885972208187
0.698,0.0296,1.859999999999778,0.009586137329023602,1.016814969780818,0.024626482168615994,0.02700885972208187
0.6990000000000001,0.011399999999997846,-0.14000000000011104,0.00973269239298328,1.0099710179086907,0.02521960225402611,0.026367304911282082
0.7,0.0017,-1.1399999999997779,0.009822079698656318,1.0333362998197706,0.02558135984153573,0.02855757586815356
0.7010000000000001,-0.013199999999999445,0.859999999999889,0.009851166127005755,1.02660249501468,0.025699074947385908,0.027926346287874552
0.702,-0.0107,-0.14,0.00977925055760329,1.0392504303658079,0.025408026876347963,0.029111968852557887
0.7030000000000001,0.011400000000000644,-0.13999999999977797,0.0098165326431511,1.0546558706544136,0.025558910463492165,0.03055608104304467
0.704,0.0143,1.86,0.00979735031332684,1.0583201108433673,0.025481278037860936,0.030899568397291435
0.7050000000000001,0.011699999999999511,-1.14,0.009842093231464665,1.0517462770367518,0.025662356212237128,0.030283334562975835
0.706,0.0095,-2.14,0.009735490731376709,1.0488286118406176,0.025230927353699042,0.03000983144988319
0.7070000000000001,0.007299999999997824,0.86,0.00976919191000786,1.0517462770367518,0.025367318723659688,0.030283334562975835
0.708,-0.0025,-0.14,0.010055569919174053,1.0517462770367518,0.026526313470528088,0.030283334562975835
0.7090000000000001,-0.007900000000001777,-0.14,0.010142528555521944,1.0742032781416961,0.026878242038700925,0.03238846291048641
0.71,-0.0159,-0.14,0.010148770424462869,1.0258162630343792,0.026903503382385226,0.02785264458470787
0.7110000000000001,-0.01439999999999729,0.86,0.01028567796804982,1.0258162630343794,0.027457579179915648,0.027852644584707893
0.712,-0.0022,-0.14,0.010256646359203888,1.0258162630343794,0.027340085932988138,0.027852644584707893
0.7130000000000001,0.002499999999999023,-1.14,0.010531132246221223,1.0258162630343794,0.02845095230875789,0.027852644584707893
0.714,-0.0019,0.86,0.01074793887676415,1.0567942574060587,0.02932838611248151,0.03075653428022415
0.7150000000000001,-0.002999999999999778,0.86,0.010784516483251459,1.0596899908612774,0.029476418616427056,0.031027981503071435
0.716,-0.002,-0.14,0.010810137050198258,1.071947597122511,0.029580107103506028,0.03217701446132626
0.7170000000000001,0.005599999999999845,-1.14,0.010686386816133932,1.0840666147529292,0.02907927999173902,0.033313056065392296
0.718,0.0049,1.86,0.010685992647803204,1.0840666147529292,0.029077684760924944,0.033313056065392296
0.7190000000000001,0.004199999999999822,-1.14,0.010660767871141246,1.0868896905698513,0.02897559806883829,0.03357769233190011
0.72,0.0034,1.86,0.010660443036175018,1.0840666147529292,0.028974283435705135,0.033313056065392296
0.7210000000000001,0.014699999999998934,-1.14,0.010694866321911144,1.0812361679932487,0.02911359723097273,0.03304772884373531
0.722,0.0099,-0.14,0.010608832485779745,1.096051640876025,0.028765411403368336,0.03443653725148125
0.7230000000000001,0.020399999999996716,-0.14,0.010497487597873332,1.1106695043789259,0.028314789721382645,0.035806821676199994
0.724,0.0056,-0.14,0.010458527810159839,1.1106695043789259,0.028157116339161306,0.035806821676199994
0.7249999999999999,-0.0002,-2.14,0.01044949134756297,1.1106695043789259,0.028120545051056687,0.035806821676199994
0.726,0.0052,-1.14,0.010440205686562041,1.1223704923965525,0.028082965237045787,0.03690367701564085
0.7269999999999999,0.0066,0.86,0.010410926533139221,1.1250974608662268,0.027964470157383056,0.03715930414062749
0.728,-0.0162,-0.14,0.010417638376273682,1.1312451202999638,0.027991633524281564,0.03773558821722004
0.7289999999999999,-0.0195,1.86,0.010491448650101777,1.1494908435768536,0.028290349615928235,0.03944594968140315
0.73,0.0074,-1.14,0.010539523996057185,1.1528536988606684,0.028484914392666608,0.03976118509299938
0.7309999999999999,0.011,0.86,0.010539982747111879,1.1494908435768538,0.028486770994938754,0.03944594968140317
0.732,-0.0053,0.86,0.01058899710004498,1.143441285642677,0.028685136008146355,0.03887886167897442
0.7329999999999999,0.0034,0.86,0.010611702055399757,1.143441285642677,0.028777024781522092,0.03887886167897442
0.734,0.006,1.86,0.010617056406524836,1.1494908435768538,0.02879869426950032,0.03944594968140317
0.7349999999999999,0.0082,-2.14,0.010649391776417863,1.1555087300500484,0.028929558102073153,0.04001006878829644
0.736,0.006,-1.14,0.010647821157288396,1.1528536988606684,0.028923201680622766,0.03976118509299938
0.7369999999999999,0.0002,0.86,0.010648597703456917,1.1448516621122895,0.02892634442518139,0.03901107093848189
0.738,-0.0052,0.86,0.010639562106605415,1.1448516621122895,0.028889776640817634,0.03901107093848189
0.7389999999999999,0.0061,1.86,0.010628043522438875,1.1508938065678003,0.028843160007860198,0.03957746399842831
0.74,0.0017,-1.14,0.010584076248906628,1.150893806567801,0.028665220929345165,0.039577463998428375
0.7409999999999999,-0.0073,0.86,0.01059778098303249,1.153553348675853,0.02872068508633595,0.039826770549062404
0.742,0.0015,1.86,0.010657396234436364,1.1674514451280515,0.028961952784967913,0.041129583719941125
0.7429999999999999,-0.0039,-2.14,0.010695107606346729,1.1674514451280515,0.029114573728414545,0.041129583719941125
0.744,-0.0064,-1.14,0.010536035714013337,1.1733772208827071,0.028470797035764148,0.04168506833090148
0.7449999999999999,-0.0038,-0.14,0.010421566977428342,1.1733772208827071,0.028007532887902562,0.04168506833090148
0.746,0.0017,0.86,0.010340698455509103,1.1759859168933853,0.027680251500744733,0.041929608547845554
0.7469999999999999,-0.008,0.86,0.010381283420058833,1.1818689024111029,0.02784450210382676,0.04248108198472465
0.748,-0.017,-0.14,0.010118649321122889,1.2018970646424443,0.026781600863953172,0.044358529995913235
0.7489999999999999,-0.0133,-2.14,0.00971981570777959,1.1884018703729096,0.02516748927736422,0.04309348503825391
0.75,-0.0078,-0.14,0.009654271336857529,1.194223693978929,0.024902225957018354,0.0436392251328447
0.7509999999999999,-0.0012,1.86,0.00965578537139524,1.1942236939789312,0.024908353376092512,0.043639225132844905
0.752,0.009,1.86,0.009574710635832612,1.194223693978932,0.02458023742579865,0.04363922513284497
0.7529999999999999,0.0025,-1.14,0.009515330725356609,1.1967869507585034,0.024339922170756614,0.043879505857925244
0.754,-0.0137,-0.14,0.009447622071405965,1.1967869507585038,0.024065899823598014,0.043879505857925286
0.7549999999999999,-0.0024,-0.14,0.00934117086676213,1.1858204886325276,0.023635083269843638,0.04285150527203179
0.756,-0.0082,0.86,0.009317111402344687,1.1825513856704022,0.02353771268977196,0.04254505824091035
0.7569999999999999,-0.0248,-0.14,0.009269607040955908,1.1621898847612169,0.023345458733320362,0.04063636292752093
0.758,-0.0135,-2.14,0.009240524909146617,1.1655161001680707,0.023227761015912382,0.04094816370226252
0.7589999999999999,-0.0037,-0.14,0.009243729482721164,1.1714516658854677,0.023240730181909683,0.04150456602828161
0.76,0.0167,0.86,0.009221527099362083,1.1714516658854677,0.02315087535766513,0.04150456602828161
0.7609999999999999,0.0087,0.86,0.009089165888538302,1.1773573082376847,0.022615198933066207,0.04205816332597128
0.762,0.0309,0.86,0.00897652286824459,1.1773573082376847,0.022159323605306525,0.04205816332597128
0.7629999999999999,0.0222,2.86,0.008974311134823106,1.1799572049467886,0.022150372542952133,0.04230187869283427
0.764,0.0143,0.86,0.009010320684687686,1.1766718123572673,0.022296106076234445,0.041993904665466035
0.7649999999999999,0.0074,1.86,0.009030832327652468,1.179957204946786,0.022379118338646073,0.04230187869283402
0.766,-0.0038,1.86,0.009036029931850221,1.177357308237682,0.022400153459251303,0.04205816332597103
0.7669999999999999,-0.0055,-0.14,0.009035209869903428,1.1773573082376818,0.022396834602851655,0.04205816332597101
0.768,-0.0001,0.86,0.009026298536145715,1.1740646403631205,0.02236076972118406,0.041749507310446736
0.7689999999999999,0.0014,-0.14,0.00904179886479105,1.1740646403631205,0.02242350079305296,0.041749507310446736
0.77,0.0091,-0.14,0.00920247733270054,1.1818689024111009,0.023073779425773988,0.042481081984724466
0.7709999999999999,0.0,1.86,0.009210959102241328,1.188401870372902,0.023108105826640253,0.0430934850382532
0.772,-0.0036,1.86,0.009099963915754046,1.1884018703729007,0.022658899414314846,0.043093485038253075
0.7729999999999999,0.0041,-0.14,0.009048300738118168,1.188401870372901,0.022449814395318977,0.043093485038253096
0.774,-0.0068,-0.14,0.008825233891859829,1.1942236939789184,0.021547044997044813,0.0436392251328437
0.7749999999999999,-0.0053,1.86,0.00881788283235561,1.1967869507584885,0.021517294670285743,0.04387950585792385
0.776,0.0037,0.86,0.008971618989191604,1.1825513856703866,0.02213947721389457,0.042545058240908894
0.7769999999999999,-0.005,-1.14,0.008957674895237886,1.1825513856703855,0.02208304434850364,0.04254505824090879
0.778,-0.0126,-2.14,0.008933205911827412,1.1799572049467715,0.021984016412257695,0.04230187869283267
0.7789999999999999,-0.0101,-1.14,0.008789753454080725,1.1935478850871843,0.021403452822763343,0.04357587453456743
0.78,-0.0018,0.86,0.008577420887823062,1.1799572049467677,0.020544125915651194,0.04230187869283231
0.7809999999999999,0.0127,-0.14,0.008560086214605592,1.1766718123572473,0.020473971104336512,0.04199390466546416
0.782,0.0069,-0.14,0.008642977981170865,1.1740646403631008,0.02080944072467332,0.04174950731044488
0.7829999999999999,0.0087,-1.14,0.008953538241794115,1.174064640363101,0.02206630298060006,0.041749507310444904
0.784,0.0084,-1.14,0.008968126611377405,1.174064640363101,0.02212534328108136,0.041749507310444904
0.7849999999999999,0.0037,-0.14,0.008966156655091739,1.174064640363101,0.0221173707101661,0.041749507310444904
0.786,-0.0068,-1.14,0.009046198309561174,1.1595501515657218,0.022441305698508364,0.04038891327234512
0.7869999999999999,-0.0057,-0.14,0.00902677072705,1.153553348675838,0.022362680715604263,0.03982677054906101
0.788,-0.0021,-1.14,0.009090386743722647,1.153553348675838,0.022620139831808616,0.03982677054906101
0.7889999999999999,-0.0032,0.86,0.009085150165295744,1.150893806567786,0.022598946979375513,0.03957746399842698
0.79,-0.008,0.86,0.009067405544477257,1.150893806567786,0.022527133077275708,0.03957746399842698
0.7909999999999999,-0.0123,1.86,0.009074728908112202,1.150893806567786,0.022556771316632918,0.03957746399842698
0.792,-0.0163,-0.14,0.009045869739544642,1.154252574398596,0.02243997594932739,0.039892316250528796
0.7929999999999999,-0.0051,-1.14,0.009051876469724591,1.146260303234101,0.022464285667607387,0.039143117525786086
0.794,-0.0099,-0.14,0.00904363742313402,1.1313891713356126,0.0224309415859669,0.0377490916194426
0.7949999999999999,-0.0055,0.86,0.009028662449529986,1.1252422989119433,0.022370336668040065,0.03717288131749145
0.796,0.0093,-1.14,0.009020940800276538,1.1252422989119433,0.02233908653487529,0.03717288131749145
0.7969999999999999,0.0111,-2.14,0.009034023941686365,1.1225156823026947,0.02239203505634408,0.036917287176043125
0.798,0.0093,-0.14,0.009002517656291927,1.119782426532196,0.02226452659516088,0.036661070676939564
0.7989999999999999,-0.002,-1.14,0.008847299941418708,1.1225156823026947,0.021636348067477284,0.036917287176043125
0.8,0.0024,-1.14,0.00874927314355713,1.103824161608604,0.021239625762909657,0.03516513648204206
0.8009999999999999,-0.0042,0.86,0.008716557555684115,1.103824161608604,0.02110722315770986,0.03516513648204206
0.802,-0.0006,0.86,0.008716526663141936,1.0891144252376035,0.02110709813311664,0.03378623985758659
0.8029999999999999,-0.0016,-0.14,0.008670904982643654,1.0891144252376035,0.0209224635370638,0.03378623985758659
0.804,-0.0024,0.86,0.008667936376812629,1.0891144252376035,0.020910449351429578,0.03378623985758659
0.8049999999999999,0.0096,0.86,0.00856097902720812,1.0919244504569838,0.02047758438846849,0.034049652755813446
0.806,0.0016,-0.14,0.0085720925509783,1.0919244504569838,0.020522561709549594,0.034049652755813446
0.8069999999999999,0.0001,-1.14,0.008533405800368772,1.0891144252376035,0.020365993330362948,0.03378623985758659
0.808,-0.0035,-1.14,0.008196521730769799,1.0891144252376035,0.019002596510524473,0.03378623985758659
0.8089999999999999,-0.0046,-0.14,0.008094437634113664,1.0669713115875876,0.018589453992676305,0.031710535446790006
0.81,0.003,-1.14,0.0081469955277668,1.0734519111286664,0.018802159999076057,0.03231802946342366
0.8109999999999999,-0.0017,0.86,0.008060600689773817,1.0705934014651104,0.01845251316801542,0.032050071613830826
0.812,0.0008,0.86,0.008018942978184885,1.0677272390528791,0.01828392107172037,0.031781396392488434
0.813,0.0084,0.8599999999997779,0.007414042700905085,1.0798936203444462,0.015835841186718876,0.032921877885267146
0.8140000000000001,-0.0064,-1.1399999999998889,0.007078865010064255,1.0656107920037599,0.01447935021842471,0.03158299979187887
0.815,-0.0043,-0.14,0.00693431180151614,1.0692374907122264,0.013894331802248026,0.031922967992592546
0.8160000000000001,0.0015,-0.139999999999889,0.007069438457519608,1.0606047750265533,0.014441200205048563,0.031113733739942997
0.817,-0.004,0.860000000000111,0.0070896366851209485,1.0606047750265533,0.014522944050374412,0.031113733739942997
0.8180000000000001,0.0072,1.86,0.0070872185166973274,1.0634901330309918,0.0145131575290274,0.03138420836384649
0.819,0.0176,1.859999999999556,0.007118236964107244,1.0634901330309918,0.014638691670803084,0.03138420836384649
0.8200000000000001,0.0052,-2.139999999999889,0.007288727535507193,1.0634901330309918,0.015328680672467185,0.03138420836384649
0.821,0.0037,-1.1399999999998889,0.007332383420645204,1.0634901330309918,0.015505359537203207,0.03138420836384649
0.8220000000000001,0.0021999999999985347,-0.14000000000011104,0.007346558631899139,1.048214536516249,0.015562727752824563,0.029952267781128215
0.823,-0.0044,-1.1399999999997779,0.007341644381760294,1.0356760788580683,0.015542839388797233,0.028776907699568362
0.8240000000000001,0.004300000000002709,0.8599999999997779,0.007330010602010956,1.0356760788580683,0.015495756550087081,0.028776907699568362
0.825,0.0165,-1.14,0.007361121589436439,1.042351268082729,0.015621665208719798,0.029402642631679857
0.8260000000000001,-0.0015999999999995339,-1.1399999999998889,0.007383203670317559,1.026761227152336,0.01571103315919776,0.027941225902524763
0.827,0.0005,-0.13999999999977797,0.007382218045277757,1.0267612271523359,0.01570704425569627,0.027941225902524743
0.8280000000000001,0.002599999999998712,1.859999999999778,0.007398351949884735,1.019984015476969,0.015772339460242205,0.027305927344706476
0.829,-0.0032,-0.139999999999889,0.007298675041759641,0.9993766630074843,0.015368939027236099,0.025374185806825746
0.8300000000000001,-0.005100000000002487,0.859999999999889,0.007374192230642435,0.9993766630074843,0.015674563140862206,0.025374185806825746
0.831,-0.0163,-0.139999999999889,0.007372481054658458,1.003242825079588,0.01566763787456061,0.02573660139989724
0.8320000000000001,-0.02399999999999605,0.86,0.007287695273280772,1.003242825079588,0.015324503024535014,0.02573660139989724
0.833,-0.0062,0.86,0.007256920598805162,1.0191926778406402,0.015199955451354843,0.027231747035283006
0.8340000000000001,0.0056999999999954925,1.86,0.0072113926824015195,1.0191926778406402,0.015015700326105113,0.027231747035283006
0.835,-0.0146,-1.14,0.007195382939743251,1.0356760788580683,0.014950907614913102,0.028776907699568362
0.8360000000000001,-0.0011999999999973575,-0.14,0.007185799075607885,1.0423512680827287,0.014912120948925968,0.029402642631679837
0.837,0.0107,0.86,0.007177079782323572,1.0386306920960764,0.014876833270439944,0.029053874337018958
0.8380000000000001,0.0040999999999996005,-0.14,0.007154761335972234,1.0386306920960764,0.0147865087299671,0.029053874337018958
0.839,0.0023,1.86,0.007206195772054566,1.0386306920960764,0.014994668013569658,0.029053874337018958
0.8400000000000001,0.003999999999998957,-1.14,0.007240725463351792,1.0423512680827287,0.015134412440667926,0.029402642631679837
0.841,-0.0007,-1.14,0.0072006175747630526,1.0394072309872207,0.014972092602221966,0.029126667406095857
0.8420000000000001,0.0035999999999991785,-1.14,0.007099378517983796,1.0267612271523359,0.014562370028457661,0.027941225902524743
0.843,-0.0001,-1.14,0.006912622997483449,1.042351268082729,0.013806555474683855,0.029402642631679857
0.8440000000000001,-0.00369999999999929,-0.14,0.006930138888339526,1.0386306920960766,0.013877443688300605,0.02905387433701898
0.845,-0.0005,-0.14,0.006941974671101248,1.061365236887695,0.013925344049385774,0.031185019741738554
0.8460000000000001,-0.005199999999999422,-0.14,0.007013101584741986,1.0736037166100088,0.014213200367371202,0.03233225977051532
0.847,-0.0026,-0.14,0.0069895281812035765,1.0736037166100088,0.01411779691461876,0.03233225977051532
0.8480000000000001,-0.0032999999999988676,0.86,0.006917315277370899,1.0540451902334533,0.013825545507320175,0.030498835613905425
0.849,0.0018,0.86,0.006854976969678832,1.0764542324520698,0.013573257381726551,0.03259946827605481
0.8500000000000001,-0.001799999999999356,-0.14,0.00689943023656014,1.0699918171692369,0.013753163314261605,0.031993678859128516
0.851,0.0011,-0.14,0.006975541669315873,1.0634901330309918,0.014061192380450586,0.03138420836384649
0.8519999999999999,0.0015,1.86,0.00697739577681479,1.0606047750265533,0.014068696102044405,0.031113733739942997
0.853,0.0011,-1.14,0.006992569930278293,1.0642485331532403,0.014130107116820223,0.03145530109740606
0.8539999999999999,0.0015,0.86,0.006991596772668731,1.070745612213131,0.01412616867000777,0.03206433991078447
0.855,-0.005,-0.14,0.007017204919603061,1.067879858330759,0.014229806892301224,0.031795702985195975
0.8559999999999999,-0.0007,-0.14,0.006952870967718256,1.067879858330759,0.013969442234774384,0.031795702985195975
0.857,0.007,-0.14,0.0069515738218735735,1.067879858330759,0.013964192581617402,0.031795702985195975
0.8579999999999999,-0.0039,-0.14,0.006965863600842113,1.061365236887695,0.014022024461958596,0.031185019741738554
0.859,0.0099,-1.14,0.006967418887327491,1.061365236887695,0.014028318830969949,0.031185019741738554
0.8599999999999999,0.0118,-0.14,0.006953572309475578,1.0836229130021988,0.013972280621055726,0.03327146328419513
0.861,-0.0031,-0.14,0.00702343637722797,1.0772035052990319,0.014255026100555485,0.03266970541514514
0.8619999999999999,-0.0049,1.86,0.007091784120817194,1.0772035052990319,0.01453163489468342,0.03266970541514514
0.863,-0.003,-2.14,0.007126363155657511,1.0963489723135917,0.014671579019053839,0.03446440922044553
0.8639999999999999,0.0017,-1.14,0.0071405368554025034,1.0935503165597464,0.014728941117477405,0.03420206210050679
0.865,0.0156,-1.14,0.007146882462367208,1.1019249600509906,0.01475462229725513,0.034987104561489325
0.8659999999999999,0.0065,1.86,0.007263355807693873,1.104702399666321,0.015225999257297668,0.03524746287204057
0.867,0.0051,0.86,0.007303907339513098,1.1047023996663212,0.015390114555440811,0.03524746287204059
0.8679999999999999,0.0066,0.86,0.007318109106353884,1.1047023996663206,0.015447590243649707,0.03524746287204053
0.869,0.0157,-0.14,0.0072848661690972615,1.0963489723135942,0.01531305341324475,0.03446440922044576
0.8699999999999999,0.0121,-0.14,0.007068333374236128,1.084367232466907,0.01443672784446426,0.033341236091233725
0.871,-0.0046,-0.14,0.007100419986443152,1.062125154272436,0.014566584934752097,0.03125625470409656
0.8719999999999999,0.0023,0.86,0.007090590749806528,1.0555750175062877,0.014526805226593841,0.030642242239918786
0.873,0.0002,-0.14,0.00708755282136783,1.0555750175062872,0.014514510486812442,0.030642242239918745
0.8739999999999999,-0.0096,-1.14,0.007247075169816774,1.05557501750629,0.015160110211451715,0.030642242239918994
0.875,-0.0078,-0.14,0.0074507675744978205,1.0555750175062917,0.01598446969243869,0.03064224223991916
0.8759999999999999,0.0035,0.86,0.007264948122487421,1.0489839807301915,0.015232443482838785,0.03002439579230072
0.877,-0.007,-0.14,0.007267785451951844,1.0423512680827478,0.015243926382499886,0.029402642631681627
0.8779999999999999,-0.0034,0.86,0.007267676115062867,1.0423512680827483,0.015243483887350444,0.02940264263168167
0.879,-0.0146,-1.14,0.007335021246686351,1.04975286095972,0.015516035030526674,0.030096470935346623
0.8799999999999999,-0.0008,-1.14,0.0073768948549601705,1.0497528609597202,0.015685500878002478,0.030096470935346644
0.881,-0.0062,-0.14,0.007369116181878082,1.0468296398402026,0.015654019964834613,0.029822447007753605
0.8819999999999999,0.0018,1.86,0.007233642005334902,1.0621251542724477,0.015105745118567528,0.031256254704097666
0.883,0.0032,-1.14,0.006891569670994676,1.0592360780737786,0.01372135097565253,0.03098543153516629
0.8839999999999999,0.0069,-2.14,0.006869428547336838,1.0628845283485964,0.013631744074326855,0.03132743873648894
0.885,0.0004,-1.14,0.006845631173489229,1.0476001012373548,0.013535434195789231,0.029894670370090734
0.8859999999999999,-0.0058,0.86,0.006690349418499148,1.0438982328765662,0.012906996492621985,0.02954765573582896
0.887,-0.0003,-0.14,0.006732808833891062,1.0438982328765662,0.01307883314843788,0.02954765573582896
0.8879999999999999,0.0088,-1.14,0.006646722041269778,1.0409585709132074,0.012730433001676205,0.029272090636898507
0.889,0.0077,-1.14,0.006645506807199538,1.0476001012373521,0.012725514852032925,0.029894670370090484
0.8899999999999999,0.0023,-0.14,0.006661420034294914,1.0350542004491166,0.012789916957009364,0.028718612566515134
0.891,-0.0024,0.86,0.006649830279648554,1.0313072996724417,0.012743012291418127,0.028367376575412523
0.8919999999999999,-0.0017,1.86,0.006653693771772089,1.0401831901608045,0.012758648153573821,0.029199406132214663
0.893,-0.0071,0.86,0.0066622409537463664,1.0334939977272533,0.01279323928379907,0.02857235853364988
0.8939999999999999,-0.0107,-2.14,0.006682023415799634,1.0334939977272533,0.012873300492641944,0.02857235853364988
0.895,-0.0114,1.86,0.006683734523097507,1.0401831901608047,0.012880225480965376,0.029199406132214684
0.8959999999999999,-0.0074,-1.14,0.006802452781454034,1.0468296398401964,0.013360687783895663,0.029822447007753022
0.897,-0.0049,0.86,0.00678767670456331,1.0468296398401962,0.013300887816902618,0.029822447007753
0.8979999999999999,-0.0012,-2.14,0.006783635610368655,1.0497528609597138,0.013284533184936139,0.03009647093534604
0.899,-0.0081,-0.14,0.006775792411527954,1.0468296398401953,0.013252791130853554,0.02982244700775292
0.8999999999999999,-0.0106,-0.14,0.006781034949746446,1.0438982328765583,0.013274008103040696,0.02954765573582821
0.901,-0.0045,-0.14,0.006849767792627584,1.0592360780737669,0.013552175424856044,0.030985431535165187
0.9019999999999999,0.0046,-1.14,0.006858478944342883,1.059236078073767,0.013587430153759987,0.030985431535165208
0.903,0.001,-1.14,0.006859016411662359,1.0665204977460476,0.013589605327062224,0.031668275975329806
0.9039999999999999,0.0064,-0.14,0.006924084000705848,1.0628845283485764,0.013852939072947134,0.031327438736487065
0.905,0.0017,0.86,0.006939262680095905,1.0665204977460472,0.013914368404510321,0.031668275975329764
0.9059999999999999,0.0009,-0.14,0.006927008835449772,1.0886727807850092,0.013864776113485043,0.033744839928347044
0.907,-0.0045,-0.14,0.0069374491491139,1.0886727807850094,0.013907028899331321,0.033744839928347065
0.9079999999999999,-0.0038,-1.14,0.006907177093256043,1.088672780785009,0.013784515463965542,0.03374483992834702
0.909,0.0012,-2.14,0.0069220941281708005,1.0914839430185481,0.013844885899374998,0.03400835941074005
0.9099999999999999,0.0103,-0.14,0.006962803469167424,1.0998743203669927,0.01400963986390228,0.03479487676984694
0.911,-0.01,0.86,0.006865153582399885,1.1213679022124952,0.013614442948729256,0.03680969380712908
0.9119999999999999,-0.0071,-2.14,0.006950169333615295,1.1275358964872475,0.013958508505112637,0.037387884079925805
0.913,-0.0096,-0.14,0.0069523322713947785,1.115889073170873,0.013967262087594488,0.036296106161441896
0.9139999999999999,0.007,1.86,0.007025859632526412,1.1089289970970884,0.014264833208892441,0.035643665821109526
0.915,0.0136,0.86,0.007035443245762592,1.1026569252709135,0.01430361885947047,0.03505571927663543
0.9159999999999999,0.0078,-0.14,0.0068907517633931895,1.096348972313586,0.013718040838060937,0.03446440922044499
0.917,0.006,0.86,0.006873515267623434,1.087931407009469,0.013648283358742849,0.03367534325139996
0.9179999999999999,-0.002,-1.14,0.006854680328665784,1.0914839430185408,0.013572056851780733,0.03400835941073936
0.919,-0.0006,0.86,0.0068238197245789394,1.0886727807850025,0.013447161514579468,0.03374483992834642
0.9199999999999999,0.0085,-0.14,0.006683637652822333,1.0886727807850025,0.012879833439200778,0.03374483992834642
0.921,-0.0002,-0.14,0.0066049317583130925,1.0886727807850025,0.012561304378434626,0.03374483992834642
0.9219999999999999,0.0008,-0.14,0.0065893059396362865,1.0950249537690906,0.012498065438354465,0.03434029518769316
0.923,0.0157,-1.14,0.006586952260997611,1.0985545507104766,0.012488539912333861,0.034671161029569186
0.9239999999999999,0.0178,0.86,0.006672263850875525,1.1048499113642296,0.01283380275148613,0.035261290678140135
0.925,-0.0003,-0.14,0.006755155960469704,1.0985545507104766,0.013169273760088404,0.034671161029569186
0.9259999999999999,-0.0026,-0.14,0.006768370934549772,1.0985545507104766,0.013222755818935708,0.034671161029569186
0.927,-0.0004,-0.14,0.006933185320250909,1.0985545507104766,0.013889772842317233,0.034671161029569186
0.9279999999999999,-0.0103,-2.14,0.0069339585043877595,1.0985545507104766,0.013892901980464332,0.034671161029569186
0.929,-0.0085,-0.14,0.006925958525459141,1.0985545507104766,0.013860525424805177,0.034671161029569186
0.9299999999999999,-0.0038,-0.14,0.006772325099936328,1.0922229054235442,0.013238758643051329,0.03407763004483906
0.931,-0.0082,1.86,0.006774737503625571,1.0886727807850025,0.013248521834056459,0.03374483992834642
0.9319999999999999,0.0095,-0.14,0.006786703855837094,1.0914839430185408,0.013296950620165811,0.03400835941073936
0.933,0.0027,-1.14,0.006795062981348689,1.083028566166123,0.013330780670820051,0.03321574897189539
0.9339999999999999,0.0005,-0.14,0.0068898089380794,1.0766056145947778,0.013714225148479609,0.03261365889921202
0.935,-0.0014,0.86,0.00704449356439224,1.054199790299401,0.014340246224049849,0.030513327886485916
0.9359999999999999,0.0076,-0.14,0.007254593881824219,1.0701441134829224,0.015190539041323173,0.03200795517704214
0.937,-0.0004,-0.14,0.007238924299347044,1.0672767445124058,0.015127122985636694,0.031739166852439105
0.938,0.0039,-1.1399999999997779,0.007300147513984511,1.0672767445124058,0.015374898240300337,0.031739166852439105
0.9390000000000001,-0.0052,0.86,0.0072827414887500315,1.0636433602797986,0.015304454661656303,0.031398571947994114
0.94,0.0009,0.860000000000111,0.007256998418869135,1.059997521863897,0.015200270395388462,0.031056809583380456
0.9410000000000001,-0.0024,1.859999999999778,0.007258026991236553,1.0628845283485662,0.015204433110165625,0.03132743873648611
0.942,-0.005,-0.14000000000011104,0.007254667912136045,1.0665204977460359,0.015190838647926226,0.0316682759753287
0.9430000000000001,0.0051,-1.14,0.007253541619338427,1.0512889344143932,0.015186280450738967,0.0302404630809666
0.944,-0.004,-1.14,0.007242041260884569,1.051288934414393,0.015139737578700947,0.03024046308096658
0.9450000000000001,-0.0127,-1.1399999999998889,0.007175797031972867,1.0283316450019673,0.014871641877000418,0.028088437505589935
0.946,-0.0026,-0.139999999999889,0.007128761709299718,1.0155477329339577,0.014681286157808988,0.026890068428584178
0.9470000000000001,0.0009999999999997559,0.859999999999889,0.007184290288629014,1.0155477329339577,0.014906014767142855,0.026890068428584178
0.948,-0.0001,-0.14,0.007419526625170308,1.0125257644238739,0.015858035067576288,0.026606787880743745
0.9490000000000001,0.0032000000000014656,-0.13999999999977797,0.007935155794134353,1.0048499990559556,0.017944827625082475,0.025887258537117937
0.95,0.0098,1.859999999999778,0.008196583167488457,1.0048499990559556,0.019002845149847018,0.025887258537117937
0.9510000000000001,0.0035999999999988008,-0.14000000000022206,0.008295262535964208,1.0048499990559556,0.019402208459972255,0.025887258537117937
0.952,-0.0018,-2.139999999999667,0.008285128141858401,1.0048499990559556,0.019361193755087887,0.025887258537117937
0.9530000000000001,0.009499999999998955,0.8599999999997779,0.008272250707656616,0.9979239925204249,0.0193090777471707,0.025238011889052392
0.954,0.0048,-1.140000000000111,0.008288958339297485,0.9940371438423231,0.019376694870988132,0.02487365712518526
0.9550000000000001,-0.002800000000000244,-2.139999999999778,0.008263917287273225,0.9940371438423231,0.019275351727229727,0.02487365712518526
0.956,-0.0039,-0.14,0.008275664714775798,0.9909495794908293,0.01932289450750235,0.024584227596695735
0.9570000000000001,-0.0028000000000007103,-0.139999999999889,0.008297867730622396,0.9940371438423227,0.01941275189147456,0.024873657125185217
0.958,-0.006,0.860000000000111,0.00828599253331953,0.9971151476050026,0.019364692016583602,0.025162190440220552
0.9590000000000001,-0.012499999999997735,1.859999999999556,0.008327997159542118,0.9971151476050026,0.01953468810419485,0.025162190440220552
0.96,-0.0023,-2.14,0.00832760511403443,0.9728803451985493,0.01953310146461569,0.022890410281163162
0.9610000000000001,-0.011299999999998644,-1.14,0.00827563683493148,0.9728803451985493,0.01932278167553874,0.022890410281163162
0.962,-0.0052,0.86,0.008255672404553683,0.972880345198551,0.019241984026307724,0.02289041028116333
0.9630000000000001,-0.010599999999998557,1.86,0.008277131758927636,0.9648892491132108,0.019328831752720148,0.02214132170881487
0.964,-0.0041,-0.14,0.008305090167610524,0.9720506616473723,0.019441981672606145,0.02281263541020493
0.9650000000000001,-0.006599999999999512,-0.14,0.008277780710189309,0.9585164132991898,0.01933145811046822,0.021543929507450432
0.966,-0.0044,-1.14,0.008173784384631524,0.9553140532404988,0.018910576649052862,0.021243738983035228
0.9670000000000001,0.0006999999999995337,-1.14,0.008235229433107269,0.9720506616473714,0.0191592496830327,0.022812635410204847
0.968,-0.0014,-0.14,0.008347809284639228,0.9688930356669628,0.01961486936175267,0.022516638276343082
0.9690000000000001,0.007599999999999755,-0.14,0.008448288829097372,0.9688930356669628,0.020021518128303516,0.022516638276343082
0.97,0.0065,-0.14,0.008448215787175544,0.9657250852695034,0.02002122252179397,0.02221967332745991
0.9710000000000001,0.0004000000000002443,-1.14,0.008438905133529403,0.9822843217770971,0.01998354156054556,0.023771942841201554
0.972,0.0015,-1.14,0.008574009106027902,0.9822843217770967,0.02053031816138415,0.023771942841201512
0.9730000000000001,0.0106000000000008,-1.14,0.008651204288973272,0.9853990374737748,0.020842733251417504,0.02406391754774724
0.974,0.0142,-0.14,0.008506921036166747,1.0024382718198068,0.020258807367755108,0.025661182252597368
0.9750000000000001,0.008800000000001466,-0.14,0.008319874898879961,1.0062926713033238,0.01950181666456321,0.026022495215867213
0.976,0.0154,0.86,0.008361747124476123,1.0093333020186792,0.019671276916231755,0.026307525166362106
0.9770000000000001,0.006999999999998335,-0.14,0.00837137564027904,1.0123648002617838,0.019710244291094834,0.026591699035222224
0.978,-0.0005,0.86,0.008426600060461137,1.0123648002617835,0.019933741943991636,0.026591699035222204
0.9789999999999999,-0.0013,-0.14,0.008363900025224658,0.9885039389397409,0.019679989878045222,0.024354972264344875
0.98,-0.002,0.86,0.008322599274562152,0.9885039389397409,0.01951284243121809,0.024354972264344875
0.9809999999999999,-0.0074,0.86,0.008320103256152584,1.0046878051363444,0.019502740844740834,0.025872054413630035
0.982,0.0038,-1.14,0.008280900745284222,0.9885039389397409,0.01934408514246547,0.024354972264344875
0.9829999999999999,0.0118,-0.14,0.008229466993146107,0.9885039389397409,0.01913592862683995,0.024354972264344875
0.984,0.0162,-0.14,0.00822603713942963,0.9885039389397409,0.01912204773405947,0.024354972264344875
0.9849999999999999,0.0173,-2.14,0.008229543698090659,0.9954954862048505,0.01913623905789593,0.02501036272685422
0.986,0.0032,-0.14,0.008278163592137316,0.9924124590154443,0.019333007664387197,0.024721358513770046
0.9869999999999999,0.0094,-0.14,0.0082564563525994,0.9924124590154443,0.01924515672685638,0.024721358513770046
0.988,-0.0073,0.86,0.00828222529550545,0.9993766630074619,0.01934944570332989,0.025374185806823643
0.9889999999999999,0.0047,0.86,0.008285848896660607,0.9993766630074645,0.01936411070751719,0.025374185806823893
0.99,0.0026,0.86,0.008275708336268627,0.9993766630074645,0.019323071047178658,0.025374185806823893
0.9909999999999999,0.0008,-1.14,0.008344558332585749,1.0123648002617853,0.019601712498335422,0.02659169903522237
0.992,-0.0011,-0.14,0.008370857347138,0.9993766630074676,0.019708146717228904,0.025374185806824184
0.9929999999999999,-0.0058,0.86,0.008363210259195421,1.0024382718198124,0.019677198339662853,0.025661182252597888
0.994,-0.0043,-0.14,0.008357778620182917,1.0024382718198124,0.019655216061412135,0.025661182252597888
0.9949999999999999,-0.0079,0.86,0.008395038195471105,0.998568994761701,0.01980600854773219,0.02529847465948078
0.996,-0.0116,-1.14,0.00830798445806974,0.9985689947617024,0.01945369509797672,0.025298474659480905
0.9969999999999999,-0.0192,-0.14,0.008321325698733499,0.9985689947617026,0.019507688167804342,0.025298474659480926
0.998,-0.0282,1.86,0.008321233663991253,1.019192677840626,0.019507315695828916,0.027231747035281674
0.9989999999999999,-0.0221,-0.14,0.00833964138515517,1.019192677840626,0.019581813218152347,0.027231747035281674
1.0,-0.0166,-0.14,0.008415618107486408,1.0221949367948846,0.019889297100460793,0.027513180001404024
1.001,-0.0018,-0.14,0.008362474422142475,1.006292671303336,0.019674220348156458,0.026022495215868358
1.002,0.0004,-0.14,0.008398311445145,1.022194936794888,0.01981925565140568,0.027513180001404337
1.003,-0.0054,0.8599999999997779,0.008479507688925702,0.9985689947617148,0.020147863355192978,0.02529847465948207
1.004,0.0,-0.14,0.008546819684030859,1.002438271819828,0.020420280392224738,0.025661182252599345
1.005,0.0047,-0.13999999999977797,0.00856634662489092,0.9954954862048705,0.020499307486327088,0.025010362726856094
1.006,0.0061,0.86,0.008569720254222566,0.9954954862048753,0.02051296083451763,0.02501036272685654
1.007,-0.0005,0.8599999999995559,0.00856282742521282,0.9985689947617201,0.02048506500328178,0.02529847465948257
1.008,-0.0092,-1.14,0.008558373553725178,1.005490558411307,0.02046703982854007,0.025947304829626528
1.009,0.0009,-0.14,0.00855030136813799,1.0024382718198308,0.020434371046748702,0.025661182252599616
1.01,0.0045,-0.14,0.008464908496936506,1.0024382718198388,0.02008877925556792,0.025661182252600365
1.011,0.0081,0.860000000000222,0.008515737500630477,0.9783353399011235,0.0202944883057893,0.023401763686288157
1.012,0.0092,1.86,0.008447634897982188,0.9876873797082252,0.020018871616689308,0.024278427672408835
1.013,0.0117,-1.1399999999995558,0.008459534593083365,0.9845799032022484,0.02006703063613272,0.02398713157052128
1.014,-0.0021,0.86,0.008431021096719785,0.9680599347661522,0.01995163423193095,0.022438543061650905
1.015,-0.0039,-0.13999999999955592,0.008441445291948374,0.9712202693233898,0.019993821785177238,0.022734794098597837
1.016,0.0127,1.86,0.008425587017731296,0.9712202693233899,0.019929642078901934,0.022734794098597848
1.017,0.0149,-0.14000000000022206,0.008589524851192118,0.9640526882851108,0.02059311162514009,0.02206290215914212
1.018,0.0131,-1.14,0.008592453842999217,0.9568314167265307,0.020604965489645723,0.021385977248643186
1.019,0.0004,-0.13999999999955592,0.008591407824041471,0.9600287153413958,0.020600732167119728,0.021685693311271282
1.02,-0.0076,1.86,0.008559634120067688,0.9672261162907564,0.020472141441521118,0.022360380581227496
1.021,-0.0152,-0.13999999999977797,0.008534659421113063,0.9915991183661862,0.020371066833951536,0.024645115633033895
1.022,-0.0116,0.86,0.008537225156572015,0.9845799032022484,0.020381450570913173,0.02398713157052128
1.023,-0.0004,-2.139999999999778,0.008569061118640121,0.9775102864087415,0.020510293260007452,0.023324422838910116
1.024,-0.0019,-1.14,0.008550671499950206,0.9735419397874967,0.020435868999846618,0.022952428424959138
1.025,-0.0084,0.86,0.00844404115163389,0.9899704323945759,0.020004327437297246,0.024492441952696644
1.026,-0.0048,0.86,0.008405536780418433,0.9969516953044179,0.019848497162130104,0.025146868355592294
1.027,0.0096,-0.14,0.008297073826950224,0.9938731853336228,0.019409538899708024,0.024858287588403936
1.028,-0.0002,-0.14,0.008289360741117578,0.9938731853336228,0.019378323423393313,0.024858287588403936
1.029,0.0016,-0.14,0.008304068592301232,1.0069323129040764,0.0194378472754838,0.0260824554776893
1.03,-0.0032,1.86,0.008460855008991955,1.013796778711198,0.02007237446510266,0.026725933273035154
1.031,0.0012,-0.14,0.00846216193178604,1.0176081564310007,0.020077663686357175,0.02708321335881028
1.032,-0.0025,-0.14,0.008456175637686206,1.0176081564310007,0.020053436674530682,0.02708321335881028
1.033,-0.0014,-1.14,0.008449683503328361,1.0176081564310007,0.02002716248665357,0.02708321335881028
1.034,-0.0025,-1.14,0.008385478459031622,1.0206150764514752,0.019767319528463334,0.02736508325516097
1.035,-0.0091,-0.14,0.008229333751275538,1.0206150764514754,0.019135389386314813,0.02736508325516099
1.036,0.0047,-0.14,0.008046081879396873,1.003884409942301,0.018393754379215085,0.025796743823879826
1.037,0.0065,-1.14,0.008039682160311621,1.0107695752643382,0.018367854203350197,0.026442162000108446
1.038,0.0046,-1.14,0.007986441346908095,1.0176081564310007,0.018152384366007072,0.02708321335881028
1.039,0.0031,0.86,0.008056310502264576,1.0214053120796847,0.018435150435448182,0.027439160261898538
1.04,0.0107,1.86,0.008059405798960232,1.0184007253038692,0.018447677349161664,0.027157509084843913
1.041,0.007,0.86,0.00806570955357057,1.0153872478292683,0.01847318914910818,0.026875024490096745
1.042,0.0034,0.86,0.008096129965149865,1.0085336074219078,0.01859630299196445,0.02623256147209378
1.043,-0.0042,-1.14,0.008095612748120215,1.0244010863864548,0.018594209773207533,0.027719985354548025
1.044,0.0088,0.86,0.008097803159714206,1.0214053120796847,0.018603074544417817,0.027439160261898538
1.045,-0.0039,-1.14,0.00809002911752829,1.0244010863864548,0.018571612372857774,0.027719985354548025
1.046,-0.0054,-0.14,0.008052727842882667,1.0214053120796847,0.01842065112589735,0.027439160261898538
1.047,-0.001,-2.14,0.008007980978050057,1.0176081564310007,0.018239556978931166,0.02708321335881028
1.048,0.0055,-0.14,0.008068774461615472,1.0333362998197644,0.018485593077517414,0.02855757586815298
1.049,0.0117,0.86,0.0076021291756375375,1.0206150764514754,0.016597042218902194,0.02736508325516099
1.05,-0.0028,-0.14,0.007291040342970508,1.0206150764514754,0.015338040789566625,0.02736508325516099
1.051,-0.0086,1.86,0.007100461881095841,1.0206150764514754,0.014566754485768007,0.02736508325516099
1.052,0.0118,-0.14,0.007099942691278302,1.0437421069353046,0.014564653282980447,0.02953302042708066
1.053,0.0143,-1.14,0.007102800264850447,1.0437421069353046,0.0145762181121674,0.02953302042708066
1.054,0.0075,-0.14,0.007083187229518529,1.0437421069353061,0.014496842586839802,0.029533020427080805
1.055,-0.0037,-2.14,0.007086721822637172,1.0437421069353061,0.014511147368372267,0.029533020427080805
1.056,-0.0018,0.86,0.007275597754971186,1.0437421069353066,0.015275543398718151,0.029533020427080846
1.057,0.0,-1.14,0.007251084278370906,1.0408020040068149,0.015176335394968399,0.029257413991900863
1.058,-0.0047,-0.14,0.00729899123318255,1.0532794433528836,0.015370218679256947,0.030427054192255575
1.059,-0.0032,1.86,0.007246916437845044,1.0466739511590568,0.01515946781044498,0.029807852687945054
1.06,-0.0096,-0.14,0.007247783097245336,1.0466739511590568,0.01516297525047219,0.029807852687945054
1.061,-0.0034,1.86,0.007239126873118271,1.0532794433528836,0.015127942817918467,0.030427054192255575
1.062,0.0068,-0.14,0.007193638985125017,1.0503660369340801,0.014943849690852539,0.030153950298668818
1.063,-0.008,-0.14,0.007154016707114333,1.037853572186103,0.014783495157321677,0.028981026803002515
1.064,0.0058,0.86,0.007060297650672875,1.0378535721861082,0.014404206627404987,0.028981026803002994
1.065,0.004,-0.14,0.007109957628367746,1.0348967402858675,0.014605184535749048,0.028703852187259234
1.066,-0.0173,-0.14,0.007118202151969616,1.0415769240959427,0.014638550783293059,0.029330055313823374
1.067,-0.0024,-0.14,0.007003587304350122,1.028957586377599,0.014174695312368866,0.028147113502779608
1.068,0.0002,0.86,0.006843405949940498,1.04451484577976,0.013526428537809082,0.029605457278247198
1.069,-0.002,-1.14,0.006725418415690352,1.0445148457797597,0.013048923533880806,0.029605457278247177
1.07,0.0002,-2.14,0.006761211844008457,1.0445148457797606,0.013193782405949506,0.02960545727824726
1.071,0.0021,-0.14,0.0067399677316494185,1.0289575863775997,0.013107805781216007,0.02814711350277967
1.072,0.007500000000000333,-0.14,0.00660272774343675,1.0289575863776,0.012552384553650807,0.02814711350277969
1.073,0.009,0.86,0.0065225958379610685,1.0259751168127154,0.012228084312255617,0.02786753560200452
1.074,0.004599999999999778,1.86,0.006559542810006264,1.0093333020187265,0.012377611668206421,0.02630752516636654
1.075,0.0036,-1.14,0.0065712365751549985,1.0024382718198546,0.012424937272633788,0.02566118225260184
1.076,-0.007599999999999667,-0.14,0.006543915124117197,0.9993766630075097,0.012314365171368646,0.02537418580682813
1.077,-0.0061,-0.14,0.006563344083587894,0.9963056460338241,0.012392995726938255,0.02508630743621308
1.078,-0.005000000000002509,1.86,0.006677879951043746,1.0032428250796137,0.012856531558812523,0.025736601399899656
1.079,-0.0163,-1.14,0.006686199301879898,1.0032428250796133,0.012890200638168614,0.025736601399899615
1.08,-0.0024999999999979795,-1.14,0.006685578775541228,1.0062926713033713,0.012887689318361251,0.026022495215871667
1.081,0.0066,0.86,0.006707172468646926,0.9932251336296923,0.012975080724383872,0.024797538960115533
1.082,0.0018999999999983125,-1.14,0.006706080356954377,0.9932251336296923,0.012970660860867317,0.024797538960115533
1.083,-0.0057,0.86,0.0067278188789017404,0.9963056460338182,0.013058638400815422,0.02508630743621253
1.084,-0.0020999999999992006,-0.14,0.0067284929303119195,0.9963056460338182,0.013061366340875454,0.02508630743621253
