time_sec,bts_raw,diy_raw,bts_rms,diy_rms,bts_norm_rms,diy_norm_rms
0.0,0.0101,0.976,0.023932516022171918,0.7194333881164044,0.05343954465066571,0.0
0.0010000000000000009,0.0062,-1.024,0.023845214129648077,0.7194447268622984,0.0531881912717424,1.3511099591279372e-06
0.0020000000000000018,0.0171,-1.024,0.02384744042225931,0.7194560654294919,0.05319460105455613,2.70219862454086e-06
0.0030000000000000027,0.0009,0.976,0.023814474448903767,0.7269396010597559,0.05309968777658626,0.0008944304033197386
0.0040000000000000036,0.004,-1.024,0.0237569643373315,0.7550319036483571,0.05293410876737982,0.004241872012574717
0.0050000000000000044,0.0447,0.976,0.02376475564473523,0.7611055460104509,0.052956540943653915,0.004965599200778072
0.006000000000000005,0.0622,-1.024,0.023704132504198287,0.7671311027515905,0.05278199912360412,0.005683596570007668
0.007000000000000006,0.0359,-1.024,0.023444636721389918,0.7731096981993407,0.05203487738386157,0.0063959980936485975
0.008000000000000007,0.0026,-2.024,0.023072124179479344,0.773120249717464,0.050962365856405734,0.006397255398588096
0.009000000000000008,-0.019,-1.0239999999999982,0.022972419825556437,0.7731308010915824,0.05067530419568579,0.006398512686368172
0.010000000000000009,-0.0469,-0.024,0.022938004909370438,0.773141352321702,0.050576219224917826,0.006399769956989539
0.01100000000000001,-0.0504,-0.024,0.022905207357963926,0.7731519034078286,0.05048179085540469,0.006401027210452888
0.01200000000000001,-0.0866,1.976,0.02291920174906587,0.780120515849173,0.050522082507598674,0.007231397849219725
0.013000000000000012,-0.0725,0.9759999999999982,0.022998446046897006,0.7860003154514534,0.050750237034888235,0.0079320269906252
0.014000000000000012,-0.0507,-0.024,0.022971794899048936,0.7860106939241363,0.05067350495188136,0.007933263675698963
0.015000000000000013,-0.0148,0.976,0.02295182441871055,0.7928662967163718,0.05061600737002306,0.008750168234194123
0.016000000000000014,0.0287,0.976,0.022897322767480136,0.7928765853158055,0.05045909010514334,0.008751394210090434
0.017000000000000015,0.0345,-1.024,0.022901187702748262,0.7996733289585714,0.0504702177509581,0.009561285190207717
0.018000000000000016,0.0295,-0.02399999999999306,0.022747547368318466,0.8054103982993316,0.050027867464138266,0.010244906782488097
0.019000000000000017,0.0153,1.976,0.022509732817202605,0.8054205266579727,0.04934316877947029,0.010246113664303561
0.020000000000000018,0.011,0.976,0.02254649551979429,0.8121122941241794,0.04944901332931494,0.011043495822109601
0.02100000000000002,-0.0409,1.976,0.022606104027193433,0.8373519989858403,0.04962063389004056,0.01405102566031948
0.02200000000000002,-0.0619,0.976,0.022579408432886652,0.8373617409930435,0.049543773839961544,0.014052186505008755
0.02300000000000002,-0.043,-0.024,0.02260869219843474,0.890850445164146,0.04962808556798164,0.02042582972641312
0.02400000000000002,-0.002,-0.024,0.022607875035337267,0.890859602138561,0.04962573285030573,0.020426920859369372
0.025000000000000022,0.0136,1.976,0.02266464753192953,0.9139271429717033,0.049789188171099376,0.02317561850579799
0.026000000000000023,0.0089,-1.0239999999999965,0.02263576763224275,0.9139360687344266,0.04970603922484651,0.023176682087874965
0.027000000000000024,0.0133,-0.024,0.022652948928056173,0.919838731104192,0.049755506385662125,0.023880035526405625
0.028000000000000025,0.0093,-0.024,0.022849098317819047,0.9662795097774491,0.05032024571106882,0.029413857270164732
0.029000000000000026,-0.0088,-1.024,0.023037053222404864,0.9710327325362168,0.05086139205952799,0.029980245005401952
0.030000000000000027,-0.0055,-0.024,0.02303473026098873,0.9765903548378837,0.050854703954789665,0.030642483925919343
0.031000000000000028,-0.0026,-0.024,0.023444445106568068,0.997677659918437,0.0520343257001405,0.033155219299997936
0.03200000000000003,0.0053,-1.024,0.025357485191657057,1.0030876664608932,0.057542214194900444,0.033799868521949133
0.03300000000000003,-0.0068,1.976,0.027339315743066483,1.0236292583469393,0.06324815929126991,0.03624757743376991
0.03400000000000003,0.0086,-0.024,0.027705448277248468,1.0289028195361973,0.06430230195576324,0.0368759680079565
0.03500000000000003,0.0102,-0.024,0.027662931281097553,1.0341494889788265,0.06417989005454033,0.03750115419719361
0.03600000000000003,0.0083,0.9759999999999861,0.027980063200586266,1.0393696739181877,0.06509295364598712,0.03812318452806133
0.03700000000000003,0.0163,-1.024,0.029726646208026668,1.0437901109427146,0.0701215908014792,0.038649917955494814
0.038000000000000034,0.012,-1.024,0.031121597037358346,1.04819190625706,0.07413783368291071,0.03917443006140678
0.039000000000000035,0.0186,-0.024,0.03267852625625082,1.0663521512856342,0.07862043318447555,0.04133838083230519
0.040000000000000036,0.0151,0.976,0.0329386547342326,1.0842082589429907,0.07936937653501105,0.0434660909964348
0.041000000000000036,0.0141,0.976,0.033009237424773255,1.0884466111854985,0.07957259318069884,0.0439711274421481
0.04200000000000004,0.0031,-0.024,0.033043950502068736,1.0884541058191262,0.07967253659565587,0.04397202049277549
0.04300000000000004,0.0045,-0.024,0.03333779315919963,1.0884616004011496,0.08051854740488869,0.04397291353725378
0.04400000000000004,0.0081,-0.024,0.03341190231777925,1.0884690949315694,0.08073191720569871,0.04397380657558305
0.04500000000000004,-0.0007,-0.024,0.03342858059499389,1.0926909202799089,0.08077993611126108,0.044476873698452976
0.04600000000000004,0.0048,-1.024,0.033476671665907246,1.0976327258094059,0.0809183964907633,0.045065732707148
0.04700000000000004,-0.0043,-0.024,0.033801666659831,1.1025523816460685,0.08185409888499932,0.045651952387749786
0.04800000000000004,0.0045,-2.024,0.03507872344040589,1.1067204845463114,0.08553090963439687,0.04614861801478141
0.049000000000000044,0.0014,-0.024,0.03564952102239654,1.1108729484308397,0.08717430929924856,0.04664342011739148
0.050000000000000044,0.0125,-0.024,0.03574572897239843,1.1150099480257705,0.08745130436330924,0.04713637951571298
0.051000000000000045,-0.004,-0.02400000000000694,0.03574764632297617,1.1108802917635838,0.08745682466226681,0.04664429513920576
0.052000000000000046,-0.0105,-1.024000000000007,0.03576657777393564,1.1060050561351118,0.0875113307448845,0.04606336851184231
0.05300000000000005,-0.0122,-2.024,0.03582154399370998,1.118402284019257,0.08766958556236337,0.047540605784505106
0.05400000000000005,-0.0104,0.976,0.03584906166654357,1.1184022840192567,0.08774881248227168,0.04754060578450508
0.05500000000000005,-0.0089,0.976,0.035890389180239,1.1135599806329144,0.08786779971049251,0.04696360331954318
0.05600000000000005,-0.0045,0.976,0.03571557512367449,1.109424927112912,0.08736448755390003,0.046470875812935415
0.05700000000000005,-0.0135,-0.024,0.035352758461398064,1.10454326781126,0.08631989171117017,0.04588918374917463
0.05800000000000005,-0.0124,-0.024,0.03527977624806733,1.1045432678112599,0.08610976653069975,0.045889183749174604
0.05900000000000005,-0.0001,-0.024,0.035369947041031614,1.1045432678112599,0.08636937984304092,0.045889183749174604
0.06000000000000005,0.0079,-0.024,0.035331955968975155,1.1045432678112599,0.0862599986594921,0.045889183749174604
0.061000000000000054,0.0093,-1.024,0.03520010163770919,1.109424927112912,0.08588037307829038,0.046470875812935415
0.062000000000000055,0.0216,0.976,0.034839679150466596,1.1135599806329144,0.08484267037346499,0.04696360331954318
0.06300000000000006,0.0034,-0.024,0.03375920306520578,1.0961895398752004,0.08173184073363834,0.04489376458061888
0.06400000000000006,0.0057,-1.024,0.033002871924198804,1.109424927112912,0.07955426608569928,0.046470875812935415
0.06500000000000006,-0.0008,-0.024,0.03261831750640625,1.1135599806329144,0.07844708444853553,0.04696360331954318
0.06600000000000006,0.0073,-1.024,0.032639185719733094,1.1135599806329144,0.07850716671915024,0.04696360331954318
0.06700000000000006,0.0016,0.976,0.032522304367000966,1.1142852001762402,0.07817065026924254,0.04705001952083239
0.06800000000000006,0.0108,-0.024,0.03235771396383751,1.1142852001762402,0.07769677332594278,0.04705001952083239
0.06900000000000006,0.0221,-1.024,0.032377515552825295,1.1328050071377822,0.07775378464787684,0.04925681521594889
0.07000000000000006,0.0178,-2.024,0.03247187348279464,1.1342303725106657,0.07802545326628081,0.04942665986796818
0.07100000000000006,-0.0025,-0.024000000000041634,0.03256521338747106,1.130170950059325,0.07829419085890961,0.04894294445943933
0.07200000000000006,0.0123,-3.0239999999999583,0.03230777650646296,1.113059770732293,0.07755299696230318,0.04690399896958217
0.07300000000000006,-0.0011,-0.024,0.03171338893572493,1.149840600671188,0.07584167868527711,0.05128675400264047
0.07400000000000007,-0.0177,-2.024,0.03145160461231796,1.1677966791426089,0.07508796794275774,0.053426376556708725
0.07500000000000007,-0.0065,-0.024,0.0314940472545785,1.1854808141345572,0.0752101657695655,0.05553359468555479
0.07600000000000007,-0.0122,-1.024,0.0315195504578334,1.1691793863842108,0.07528359277241926,0.05359113812224286
0.07700000000000007,-0.0325,2.976,0.03151322380083089,1.1645482382080383,0.07526537751306007,0.05303929663275829
0.07800000000000007,-0.03,0.976,0.03156648801249562,1.168488237288306,0.07541873203024835,0.053508781710391834
0.07900000000000007,0.006700000000004108,-1.024,0.03165598375117518,1.1724149957454566,0.0756764017744661,0.053976689052892594
0.08000000000000007,0.04370000000000589,-2.024,0.031768449752800014,1.1724149957454566,0.07600020586055364,0.053976689052892594
0.08100000000000007,0.09670000000000076,-1.024,0.031769359370896214,1.177015191355291,0.07600282476806412,0.054524842275523774
0.08200000000000007,0.10359999999999356,-2.024,0.03176947917915331,1.1809135964365973,0.0760031697114482,0.05498937106727154
0.08300000000000007,0.04559999999999569,-1.024,0.03178255392144194,1.176328646176954,0.07604081357640682,0.05444303446039894
0.08400000000000007,0.006799999999994537,-1.024,0.03180030436025161,1.1598985993099278,0.07609191937312208,0.05248525181331151
0.08500000000000008,-0.04240000000000644,-1.024,0.031846258935932736,1.1638543389311307,0.07622422850801608,0.05295661251297755
0.08600000000000008,-0.10039999999999916,0.976,0.03184368412593581,1.1638543389311307,0.07621681529881633,0.05295661251297755
0.08700000000000008,-0.09280000000000076,0.9760000000000139,0.03183536744176338,1.1598985993099282,0.07619287049524169,0.05248525181331157
0.08800000000000008,-0.09969999999999356,1.976,0.031794768712048026,1.155230246422253,0.07607598152984886,0.0519289770596276
0.08900000000000008,-0.041699999999992195,1.976,0.031772427514215676,1.1545307468336183,0.0760116583473609,0.0518456256141109
0.09000000000000008,0.028600000000001055,0.976,0.03172728503249233,1.1545307468336183,0.07588168733543756,0.0518456256141109
0.09100000000000008,0.038100000000000925,-0.024,0.03169179476118513,1.1545307468336183,0.07577950627894404,0.0518456256141109
0.09200000000000008,0.04639999999999741,-0.024,0.031663291031987235,1.1671047112199822,0.07569744037591852,0.053343922574548855
0.09300000000000008,0.023099999999996092,-0.024,0.031662297237295495,1.1710361089734014,0.07569457911316117,0.053812382729455016
0.09400000000000008,-0.012100000000000688,0.976,0.03166015158391468,1.1749543523419324,0.07568840150106508,0.05427927542526166
0.09500000000000008,-0.018300000000003265,-1.024,0.03167085675889665,1.1795446445639788,0.07571922307693126,0.05482624857330658
0.09600000000000009,-0.047700000000005315,-1.024,0.031675256638889135,1.1841171424111199,0.0757318908974217,0.055371101367180424
0.09700000000000009,-0.09559999999999792,0.976,0.031675408823112226,1.1841171424111199,0.07573232905537666,0.055371101367180424
0.09800000000000009,-0.07689999999999675,0.976,0.031678076712566956,1.1841171424111196,0.07574001025230899,0.055371101367180396
0.09899999999999998,-0.0476,0.976,0.031676098153612144,1.1710361089734007,0.07573431372656007,0.05381238272945494
0.09999999999999998,-0.0107,-0.024,0.03167585305027831,1.1749543523419321,0.07573360804253236,0.05427927542526163
0.10099999999999998,0.0132,-0.024,0.03165398971919795,1.1749543523419324,0.07567066069989523,0.05427927542526166
0.10199999999999998,0.0262,1.9759999999999862,0.03165481036607637,1.1749543523419324,0.07567302344782463,0.05427927542526166
0.10299999999999998,0.0141,0.9759999999999861,0.0316470813523853,1.17034605636749,0.07565077062316262,0.05373015697390089
0.10399999999999998,0.0177,-0.024,0.03171952831806889,1.156410989379639,0.07585935475680368,0.052069672828261124
0.10499999999999998,0.0273,-0.024,0.03185720959116682,1.1571093523183633,0.07625575685310619,0.05215288883207833
0.10599999999999998,0.0359,-0.024,0.032018021379178176,1.153130474688331,0.07671875467730929,0.05167877103789267
0.10699999999999998,0.0278,-1.024,0.03229529299737287,1.1671047112199815,0.07751705533377827,0.05334392257454877
0.10799999999999998,0.0254,-2.024,0.03233631653424239,1.1717257551936757,0.07763516737361432,0.05389456006063429
0.10899999999999999,0.0097,-1.024,0.03233686147346597,1.1879922426175866,0.07763673632373894,0.055832853180875566
0.10999999999999999,0.0357,-1.024,0.03234008867688821,1.2053801248503269,0.0776460278575328,0.05790477022288825
0.11099999999999999,-0.0043,0.976,0.0325366853649417,1.2098549846227453,0.07821205501225775,0.058437988592957096
0.11199999999999999,-0.0096,-0.024,0.032683180965941916,1.2091870851741167,0.0786338346924491,0.05835840257831531
0.11299999999999999,-0.0145,1.976,0.03267485861360436,1.2098549846227453,0.07860987356949792,0.058437988592957096
0.11399999999999999,0.0071,0.976,0.03267384112340279,1.2136479083260472,0.07860694408431962,0.0588899483632578
0.11499999999999999,0.0189,0.976,0.03278470819022026,1.2091870851741167,0.07892614463141287,0.05835840257831531
0.11599999999999999,0.0078,-1.024,0.03312590826311737,1.2091870851741167,0.07990850353260329,0.05835840257831531
0.11699999999999999,0.011,-1.024,0.0337600114156077,1.2091870851741167,0.08173416807843012,0.05835840257831531
0.118,0.0316,-2.024,0.03463844630008254,1.2211984148857888,0.08426329511100333,0.05978965673530443
0.119,0.0291,-2.0239999999999725,0.03540850372507865,1.224956215579663,0.08648038949626985,0.06023743129427083
0.12,0.027,-0.024,0.035463645520806136,1.236161079629313,0.08663914981950357,0.06157258806995866
0.121,0.0023,-0.024,0.035451141693697834,1.219212261226765,0.08660314969279057,0.05955298929305326
0.122,0.0055,-3.024,0.03551103481760782,1.2236365376851066,0.08677558970106342,0.060080180222340386
0.123,0.0141,-2.024,0.03558399592489469,1.185269109131364,0.0869856541145185,0.055508368197468204
0.124,0.0165,-2.024,0.03564614511730228,1.2026963614835136,0.08716458963421227,0.0575849765308215
0.125,0.0186,-0.024,0.03560208235345986,1.185269109131363,0.08703772726896093,0.05550836819746807
0.126,-0.0062,-0.024,0.03559759659217867,1.1852691091313632,0.0870248121851927,0.0555083681974681
0.127,-0.0226,0.976,0.03557659847124738,1.1807010725110492,0.08696435589387373,0.05496404699748059
0.128,-0.0255,0.976,0.035467047132932465,1.147026895714904,0.08664894349839211,0.05095147664269012
0.129,-0.0281,-1.024,0.03543178341631855,1.1470268957149037,0.08654741472200413,0.05095147664269009
0.13,-0.006,-1.024,0.03558476871392075,1.1589854115546183,0.08698787907353463,0.052376437568571556
0.131,0.0028,0.976,0.03545714191321097,1.1449120791132774,0.08662042509662556,0.05069947789442446
0.132,-0.0105,-0.024,0.03412133326702413,1.1442062716288792,0.08277446016840445,0.05061537480839417
0.133,-0.0126,-0.024,0.032524139735940934,1.1299488823561532,0.07817593453251903,0.04891648316573353
0.134,-0.0191,0.976,0.03220331138816715,1.125156272837514,0.07725222844853812,0.04834540215630021
0.135,-0.0093,-0.024,0.03225120735074911,1.1203431616577542,0.07739012708605586,0.04777187819605227
0.136,-0.0039,-0.024,0.03201515366765013,1.1155092834400706,0.07671049816692316,0.04719587966304092
0.137,-0.0025,-0.024,0.030399455051409077,1.1155092834400704,0.07205869401040979,0.04719587966304089
0.138,-0.0011,0.976,0.028950728695798324,1.1162332365171743,0.06788762447124078,0.04728214495389068
0.139,-0.0076,-0.024,0.027196676214506683,1.0989050528458921,0.06283748173967225,0.04521734151347783
0.14,-0.0014,0.976,0.026933978842957472,1.0862853356587179,0.06208114221409861,0.04371359270982803
0.14100000000000001,0.0042,1.9759999999999722,0.026852699824758162,1.087028751842287,0.06184712946512658,0.04380217719869377
0.14200000000000002,0.0018,0.976,0.026629390400636666,1.0870287518422872,0.06120419290698695,0.043802177198693795
0.14300000000000002,-0.0025,0.9759999999999445,0.026339285928048708,1.0912486741799448,0.060368944811926104,0.04430501756132862
0.14400000000000002,-0.0115,-1.024,0.026388847507263252,1.1086965283768413,0.06051163897399079,0.046384080783244935
0.14500000000000002,-0.0053,-1.024,0.026485651966755987,1.1094249271129106,0.060790351465609425,0.04647087581293526
0.14600000000000002,0.0049,-1.024,0.026493792621039663,1.1094249271129106,0.06081378945649021,0.04647087581293526
0.14700000000000002,0.006,-0.024,0.026098271360811148,1.1094249271129104,0.05967503286919985,0.046470875812935235
0.14800000000000002,-0.0027,-1.024,0.024319897764807436,1.1094249271129106,0.05455486651975397,0.04647087581293526
0.14900000000000002,0.0006,0.976,0.023072428543704886,1.1101528479286598,0.050963242160163895,0.046557613894272536
0.15000000000000002,-0.0041,-0.024,0.022666807102177125,1.10600505613511,0.04979540585164515,0.046063368511842104
0.15100000000000002,-0.0046,-0.024,0.022763332353066972,1.110880291763582,0.05007331446577923,0.04664429513920555
0.15200000000000002,0.0079,-0.024,0.02281864262715641,1.1157342251006979,0.05023255985988975,0.047222683413714744
0.15300000000000002,0.0247,0.976,0.022671043925889492,1.1033070181767157,0.049807604212129895,0.0457418738783284
0.15400000000000003,0.0314,-1.024,0.02266739920808687,1.1040389726919166,0.04979711060072667,0.04582909260995561
0.15500000000000003,0.0333,-0.024,0.02265763567156344,1.108194123242994,0.0497690001231132,0.04632421485219711
0.15600000000000003,0.0425,-2.024,0.022571943039836635,1.1130597707322916,0.049522280013036775,0.046903998969582014
0.15700000000000003,0.0212,-1.024,0.022286256887753382,1.1130597707322916,0.04869975283107321,0.046903998969582014
0.15800000000000003,0.0126,1.976,0.022184652123893592,1.1130597707322913,0.048407219645679914,0.046903998969581986
0.15900000000000003,0.0046,-2.024,0.022071590328660518,1.0942058199251155,0.048081700193152506,0.04465738713590497
0.16000000000000003,0.0366,-1.024,0.022050515607768315,1.089255956112098,0.04802102336069238,0.04406756791280707
0.16100000000000003,0.0323,0.976,0.021766860112481,1.089255956112098,0.04720434270086409,0.04406756791280707
0.16200000000000003,0.0203,-1.024,0.021762847016282057,1.085028283667294,0.047192788480670385,0.04356380405765836
0.16300000000000003,0.0022,0.976,0.02174278043847908,1.0899973462308554,0.04713501422184972,0.0441559109784704
0.16400000000000003,-0.0275,-0.024,0.021736951716884292,1.0765231317638375,0.047118232582582825,0.04255034140948738
0.16500000000000004,-0.0474,-0.024,0.021727849636956214,1.0722452572312617,0.04709202652359587,0.042040595539979096
0.16600000000000004,-0.0655,-1.024,0.021646898271927745,1.0729984009864886,0.046858957130251365,0.04213033915341361
0.16700000000000004,-0.0775,1.976,0.021641071869429575,1.0679502470093107,0.046842182167961946,0.041528807804396044
0.16800000000000004,-0.0742,0.976,0.02171052937030876,1.0628781170270345,0.04704215924787213,0.04092441950633213
0.16900000000000004,-0.0296,1.976,0.021490935563485084,1.0431175460082664,0.04640992042990278,0.038569776007735396
0.17000000000000004,0.0151,-0.024,0.021315815814445842,1.0274583687397598,0.04590572814535186,0.03670384916211727
0.17100000000000004,0.0208,-1.024,0.02114687808036064,1.0319219258553696,0.045419334677096114,0.03723572072255464
0.17200000000000004,0.0259,-0.02400000000005551,0.021171858873384634,1.0363662589204363,0.045491257593693255,0.03776530157056347
0.17300000000000004,0.0211,-2.0239999999999445,0.021224651709465303,1.0099583310548874,0.045643254959938165,0.03461856782481452
0.17400000000000004,-0.0006,-0.024,0.021179178584521237,0.9945893584966912,0.04551233198364907,0.03278722138852492
0.17500000000000004,0.0033,-0.024,0.021115045041645634,0.9734435346594238,0.04532768326369488,0.030267512996818857
0.17600000000000005,-0.0003,-0.024,0.021064477636830295,0.9734435346594238,0.045182093200338044,0.030267512996818857
0.17700000000000005,-0.0167,0.976,0.021163438433555167,0.9945893584966913,0.045467014064235076,0.03278722138852493
0.17800000000000005,-0.0255,0.976,0.021261577607498326,1.0107578875931666,0.04574956937045158,0.03471384192407165
0.17900000000000005,-0.0336,1.976,0.02126569871571994,1.0266718183668728,0.045761434571153024,0.036610124860320614
0.18000000000000005,-0.0316,0.976,0.02134291405830156,1.0656785160137967,0.04598374747527832,0.041258111344558555
0.18100000000000005,-0.0071,0.976,0.022004016056429883,1.1033070181767155,0.04788714517077639,0.04574187387832837
0.18200000000000005,0.0091,0.976,0.022461159690835533,1.1033070181767155,0.049203320500306146,0.04574187387832837
0.18300000000000005,0.0002,-0.024,0.022592075031419783,1.1033070181767155,0.04958024260654525,0.04574187387832837
0.18400000000000005,-0.0188,-0.024,0.022604403100463428,1.1033070181767155,0.04961573670318094,0.04574187387832837
0.18500000000000005,-0.0168,-0.024,0.022602719337987895,1.1040389726919164,0.04961088893441792,0.04582909260995558
0.18600000000000005,-0.0013,0.976,0.022985999998193746,1.1040389726919164,0.05071440325963584,0.04582909260995558
0.18700000000000006,0.0044,-1.024,0.02386867000849757,1.1040389726919164,0.05325572376426913,0.04582909260995558
0.18800000000000006,0.0099,-0.024,0.025890336760046914,1.1212878204805368,0.05907636240529342,0.047884442491554886
0.18900000000000006,0.0179,-1.024,0.028306146267071536,1.1171813705886373,0.06603178874109529,0.04739512335542816
0.19000000000000006,0.0195,-1.024,0.030055490778075213,1.1557122044407786,0.07106837662058053,0.05198640653946601
0.19100000000000006,0.016,-0.024,0.030458904436047228,1.1682734530327437,0.07222985643623726,0.05348318830266689
0.19200000000000006,0.0248,0.976,0.0304892722220787,1.155712204440779,0.07231728919867532,0.05198640653946607
0.19300000000000006,0.0282,1.976,0.030492335246982697,1.168273453032744,0.07232610804139555,0.05348318830266695
0.19400000000000006,0.0257,-1.024,0.03050960301480375,1.1643327271417592,0.07237582416624473,0.05301361661922994
0.19500000000000006,0.0195,-1.024,0.030599926838011358,1.163638699351624,0.07263587807234193,0.05293091718598303
0.19600000000000006,0.0141,-1.024,0.03075063177050659,1.1589854115546172,0.0730697769593877,0.052376437568571424
0.19700000000000006,0.0134,0.976,0.0307980849996914,1.1708217921184612,0.07320640091050269,0.05378684501656983
0.19800000000000006,0.0025,-1.024,0.030823073101964645,1.1754282229603807,0.07327834487136867,0.05433574122120682
0.19900000000000007,-0.0203,-0.024,0.03082320116195221,1.1708217921184612,0.07327871357254627,0.05378684501656983
0.20000000000000007,-0.0235,-1.024,0.030848770583069413,1.171511564502934,0.07335233122514373,0.05386903738130806
0.20100000000000007,-0.0206,-1.024,0.03091857067125962,1.171511564502934,0.07355329465799212,0.05386903738130806
0.20200000000000007,0.0037,-1.024,0.030971431332510117,1.1761152937516055,0.07370548730162588,0.05441761166766793
0.20300000000000007,0.0135,-1.024,0.031111985783364413,1.1761152937516055,0.074110161646289,0.05441761166766793
0.20400000000000007,0.01640000000000028,0.9759999999999445,0.031107285538173136,1.1722009309963626,0.07409662903575283,0.05395118138060649
0.20500000000000007,0.018899999999998158,-1.0239999999999723,0.030954268942150736,1.1675817676704385,0.0736560745720444,0.0534007679900211
0.20600000000000007,0.002300000000001732,-0.024000000000027756,0.03080143448806957,1.1675817676704385,0.07321604451841518,0.0534007679900211
0.20700000000000007,0.017899999999999344,-1.0239999999999723,0.030602039600500553,1.1536133099524664,0.07264196098733001,0.051736305049157306
0.20800000000000007,0.01199999999999859,-0.024,0.03053436685153863,1.1529128293304998,0.07244712243777666,0.05165283670500672
0.20900000000000007,-0.0007000000000005218,-0.024,0.030560191255262693,1.1401823671970952,0.07252147421809976,0.05013589168008396
0.21000000000000008,-0.005399999999999523,-1.024,0.03069379883101488,1.1265913154444507,0.07290614761571129,0.04851639993472592
0.21100000000000008,-0.0011000000000001332,-0.024,0.030563114966522226,1.1265913154444507,0.07252989195891653,0.04851639993472592
0.21200000000000008,-0.0023000000000012546,-1.024,0.030424363569620038,1.1273081517045307,0.07213040883852291,0.04860181719507496
0.21300000000000008,-0.013599999999998844,0.976,0.030382364997076562,1.1225042674605612,0.07200948954555483,0.048029392704288194
0.21400000000000008,-0.003199999999999889,-0.024,0.03040138990793808,1.1184022840192545,0.072064264711253,0.047540605784504815
0.21500000000000008,-0.002200000000000411,-1.024,0.03030014343526622,1.1232237120590887,0.07177276309227965,0.0481151207707957
0.21600000000000008,-0.005900000000001621,-0.024,0.029927187895642283,1.1232237120590887,0.07069897611742067,0.0481151207707957
0.21700000000000008,-0.02049999999999849,-0.024,0.02920320422297472,1.1184022840192545,0.06861453399194672,0.047540605784504815
0.21800000000000008,-0.0068999999999981455,-0.024,0.028156146552012665,1.105274403635495,0.06559992026576661,0.04597630492666947
0.21900000000000008,0.009799999999999268,0.976,0.027166523009057784,1.101108235263052,0.06275066678233465,0.04547986981541104
0.22000000000000008,0.0031999999999984792,0.976,0.02700495222190265,1.0885140610304733,0.06228548370196044,0.043979164676436554
0.22100000000000009,-0.0105000000000006,0.976,0.026962902178314763,1.0885140610304733,0.062164416217234356,0.043979164676436554
0.2220000000000001,-0.01589999999999798,1.976,0.026935409565819718,1.1025745777467237,0.06208526144926445,0.04565459724573757
0.2230000000000001,0.0022999999999997666,-1.024,0.02713061874490613,1.1198459816549502,0.06264729378718671,0.04771263488470651
0.2240000000000001,0.00020000000000125457,-0.024,0.027416019295903232,1.10600505613511,0.06346899868688409,0.046063368511842104
0.2250000000000001,0.0115000000000011,-0.024,0.027578830818116386,1.1101528479286598,0.06393775400309612,0.046557613894272536
0.22599999999999998,0.0214,-2.024,0.027711982461053906,1.1273081517045316,0.06432111471148391,0.04860181719507507
0.22699999999999998,0.0305,-2.024,0.02775488398785172,1.1313778460210246,0.06444463372590452,0.049086756585465414
0.22799999999999998,0.0259,-2.024,0.027736466577783465,1.1320916514716468,0.06439160763313788,0.04917181269856934
0.22899999999999998,0.0335,-3.024,0.027621110604860444,1.1280245324300862,0.06405948294792252,0.048687180174532746
0.22999999999999998,0.0539,-3.024,0.02741623205475412,1.1157342251006979,0.06346961124698468,0.047222683413714744
0.23099999999999998,0.0452,0.976,0.027306726878364267,1.1116072595540964,0.0631543317576235,0.04673091965931674
0.23199999999999998,0.0265,-0.024,0.02732897499909652,1.1123337522335621,0.06321838695916701,0.04681748756582396
0.23299999999999998,0.0147,-0.024,0.02732196262949932,1.112333752233562,0.06319819744503896,0.046817487565823934
0.23399999999999999,-0.0189,-1.024,0.027334957807768276,1.116458032317238,0.06323561223494997,0.047308931324012725
0.235,-0.0428,-0.024,0.027273371314151366,1.1349423839077926,0.06305829679745907,0.0495115022040312
0.236,-0.0644,-0.02399999999994449,0.027375122792903755,1.139693841881501,0.06335125239390128,0.050077679649815646
0.237,-0.1003,1.9759999999999445,0.027662186958710915,1.1356539489012176,0.06417774705464101,0.049596291347219726
0.238,-0.1144,-0.023999999999916734,0.027709530271056108,1.1308855172928054,0.06431405454103525,0.049028091345580754
0.239,-0.1013,2.9759999999999724,0.027703412955415216,1.1308855172928054,0.06429644200238543,0.049028091345580754
0.24,-0.0494,1.976,0.027650930687818858,1.1430129211542952,0.06414533880275779,0.05047317674469157
0.241,-0.0142,0.976,0.027592409305566015,1.1382753179672138,0.06397684821517405,0.049908650216951185
0.242,0.0047,1.976,0.027546359949852647,1.1423059402196278,0.06384426619637491,0.05038893383187972
0.243,0.0106,-0.024,0.027457088945288307,1.1430129211542952,0.06358724349058424,0.05047317674469157
0.244,0.0262,0.976,0.027363022888413205,1.126096894050553,0.0633164152123646,0.04845748533556769
0.245,0.0309,-0.024,0.027354726334686188,1.126096894050553,0.06329252836693183,0.04845748533556769
0.246,0.0178,1.976,0.02728613061156515,1.139693841881501,0.06309503245604478,0.050077679649815646
0.247,0.0138,-1.024,0.027313032923544884,1.139693841881501,0.06317248767289599,0.050077679649815646
0.248,0.0029,-0.024,0.027282892702008437,1.1538308231797052,0.06308571009791256,0.05176222363753667
0.249,0.0126,-1.024,0.027282118383649082,1.1531304746883282,0.06308348073574915,0.051678771037892327
0.25,0.0212,-0.024,0.027284370261818878,1.1531304746883282,0.06308996418267726,0.051678771037892327
0.251,0.0187,-1.024,0.02720845189064027,1.1484346099028084,0.06287138542606115,0.05111921800286051
0.252,0.0306,-0.024,0.02713283504443709,1.1437194650745008,0.06265367479863686,0.05055736758343834
0.253,0.0241,-0.024,0.027130841602186515,1.1437194650745008,0.06264793542196488,0.05055736758343834
0.254,0.0059,-0.024,0.027127734709298003,1.1430129211542952,0.06263899027767414,0.05047317674469157
0.255,0.0128,-0.024,0.027100748406332,1.1389848007581092,0.06256129323996902,0.0499931912476411
0.256,0.0241,0.976,0.02704091632887027,1.1342303725106628,0.062389028992273596,0.049426659867967834
0.257,0.0059,0.976,0.02704009034339545,1.1342303725106628,0.06238665087383841,0.049426659867967834
0.258,0.0178,0.976,0.027012132055069478,1.147730968632454,0.062306155365247626,0.05103537304002968
0.259,0.029,-1.024,0.02698851608399508,1.164332727141758,0.062238161946611435,0.053013616619229806
0.26,0.0232,-1.024,0.02698964157756911,1.164332727141758,0.06224140238739239,0.053013616619229806
0.261,0.014,-1.024,0.027052901369754037,1.15968222417223,0.06242353546671052,0.05245946883817612
0.262,0.0125,-0.024,0.027064701031560626,1.163638699351623,0.062457508210937436,0.05293091718598292
0.263,0.011,-0.024,0.02712368723743646,1.1589854115546163,0.06262733708552579,0.05237643756857132
0.264,0.012,-1.024,0.027089427152737135,1.1550129967358536,0.06252869789452517,0.051903089874425976
0.265,-0.0018,-0.024,0.02708930978144806,1.15968222417223,0.06252835996748551,0.05245946883817612
0.266,-0.0036,-0.024,0.027095101909877423,1.1550129967358536,0.06254503625032189,0.051903089874425976
0.2670000000000001,-0.0022000000000008215,0.976,0.02708925881797955,1.1589854115546163,0.06252821323710382,0.05237643756857132
0.268,-0.0059,-0.024,0.0271270731848504,1.163638699351623,0.06263708566369226,0.05293091718598292
0.26900000000000013,-0.0015999999999997336,-1.024,0.027269979239497057,1.163638699351623,0.06304853057817937,0.05293091718598292
0.27,-0.0004,-0.024,0.027258920285827822,1.15968222417223,0.06301669042796317,0.05245946883817612
0.27100000000000013,-0.016800000000005484,-2.024,0.027336861326032177,1.1603786183507852,0.06324109270889666,0.05254245024713632
0.272,-0.0415,1.976,0.027317980093866084,1.1957047677645731,0.06318673121264518,0.05675186747342144
0.27300000000000013,-0.04469999999999671,-1.024,0.027305533848661412,1.184117142411118,0.06315089687163994,0.055371101367180216
0.274,-0.0299,0.976,0.027325662890873497,1.1834347172899926,0.06320885097352971,0.05528978449262173
0.27500000000000013,-0.027299999999997358,1.976,0.02735933373910294,1.1995424349403476,0.0633057936769353,0.05720915881670464
0.276,-0.0154,0.976,0.028048964368684176,1.1995424349403474,0.06529132897225445,0.05720915881670461
0.27700000000000014,-0.013299999999997845,-1.024,0.028277644180590165,1.1859504786987007,0.06594972756766196,0.05558955929363375
0.278,-0.0036,-0.024,0.028206685156512847,1.1728898923144337,0.06574542740931129,0.05403327709974538
0.27900000000000014,-0.0018000000000040412,-1.024,0.02809492649211288,1.1728898923144337,0.06542365983808464,0.05403327709974538
0.28,-0.02,-0.024,0.02798090770895223,1.1510268724321993,0.06509538509420866,0.051428108576199144
0.28100000000000014,-0.013099999999998557,-1.024,0.027692817887741812,1.115009948025767,0.06426593743962462,0.047136379515712555
0.28200000000000003,-0.0066,0.976,0.027504412304517657,1.11088029176358,0.06372349352939125,0.04664429513920531
0.28300000000000014,-0.008399999999997179,0.9759999999998334,0.027722214467483464,1.149622332477843,0.06435057397422018,0.05126074545349872
0.28400000000000003,0.0043,-2.0239999999999445,0.027799919879148722,1.1543133654966098,0.06457429785027882,0.05181972274159688
0.28500000000000014,0.0290000000000024,-1.0239999999999445,0.027790366298851493,1.1496223324778432,0.06454679186364895,0.05126074545349875
0.28600000000000003,0.0398,-0.024,0.027556776687193807,1.1543133654966098,0.06387425732316912,0.05181972274159688
0.28700000000000014,0.016799999999998046,-0.024,0.02685521225146306,1.158985411554616,0.06185436306480371,0.05237643756857129
0.28800000000000003,0.008,-0.023999999999888978,0.0250172897069065,1.1603786183507863,0.05656274763221224,0.052542450247136455
0.28900000000000015,0.005400000000000467,1.976,0.022307463698251668,1.1650263414867463,0.04876080996650099,0.05309626678690001
0.29000000000000004,0.0075,-0.024,0.020129707650885637,1.1315996333011284,0.04249077016379436,0.04911318446432943
0.2909999999999999,0.0011,0.976,0.019857907557384646,1.1145103888936505,0.041708222730764924,0.04707685271046561
0.29200000000000004,0.0111,-1.024,0.01994849869629538,1.1145103888936505,0.04196904627315841,0.04707685271046561
0.2929999999999999,0.0167,-0.024,0.019978083989416202,1.101336118260084,0.04205422613784833,0.04550702405183938
0.29400000000000004,0.0248,-1.024,0.0200096773391952,1.1186266439342318,0.04214518745596967,0.04756734021513668
0.29499999999999993,0.0021,-2.024,0.01983798934750887,1.1186266439342312,0.041650875642292445,0.047567340215136596
0.29600000000000004,0.0186,-1.024,0.019599762167453502,1.1186266439342312,0.040964988945827834,0.047567340215136596
0.29699999999999993,0.0038,-2.024,0.01955389418352768,1.1055014278380089,0.040832929119736364,0.04600335683027924
0.29800000000000004,0.0014,0.976,0.01955389418352768,1.1179042408251831,0.040832929119736364,0.04748125961642968
0.29899999999999993,-0.0206,-0.024,0.019565300419366063,1.122727807657422,0.04086576913999126,0.048056029458393816
0.30000000000000004,-0.0118,-0.024,0.01963716940222596,1.1179042408251827,0.04107268918673231,0.047481259616429634
0.30099999999999993,-0.0038,-0.024,0.019810945045792852,1.136365068329519,0.04157301161872519,0.04968102739745761
0.30200000000000005,-0.0016,-1.024,0.019985032293518848,1.1363650683295197,0.04207423119917629,0.049681027397457694
0.30299999999999994,-0.0128,0.976,0.01986946175048773,1.1545307468336132,0.041741488739017826,0.05184562561411029
0.30400000000000005,-0.011,-0.024,0.019763781001322905,1.1592019167584628,0.04143722026760445,0.05240223604221691
0.30499999999999994,0.0057,-0.024,0.019759050103786494,1.1592019167584628,0.04142359940502358,0.05240223604221691
0.30600000000000005,-0.0008,-0.024,0.01976008429258073,1.1638543389311258,0.041426576967598244,0.05295661251297697
0.30699999999999994,0.013,-2.024,0.019770732284493987,1.1638543389311258,0.04145723390605366,0.05295661251297697
0.30800000000000005,0.004,1.976,0.019848694111818964,1.1598985993099231,0.04168169603578145,0.05248525181331096
0.30899999999999994,0.0026,-0.024,0.01981057092998663,1.1605948636564563,0.041571934491193535,0.05256821775165919
0.31000000000000005,0.0193,-0.024,0.019611298983152146,1.159898599309923,0.04099820492229796,0.05248525181331093
0.31099999999999994,0.0081,0.976,0.019493946158455962,1.159898599309923,0.0406603310439565,0.05248525181331093
0.31200000000000006,-0.018,-0.024,0.019444149507914416,1.1592019167584628,0.04051696008130226,0.05240223604221691
0.31299999999999994,0.0002,-0.024,0.01945291964512273,1.1631600256990353,0.040542210434498537,0.05287387906684433
0.31400000000000006,-0.0031,-1.024,0.019458815288646382,1.1631600256990353,0.04055918475060735,0.05287387906684433
0.31499999999999995,-0.006,-0.024,0.019535921295704774,1.1585048152475963,0.04078118286369657,0.05231917034847431
0.31600000000000006,0.0019,0.976,0.019632849738088917,1.1631600256990353,0.04106025231800849,0.05287387906684433
0.31699999999999995,-0.025,-1.024,0.019712495522388882,1.1671047112199775,0.04128956277648825,0.05334392257454829
0.31800000000000006,-0.0287,-0.024,0.019829999293538802,1.167796679142604,0.04162787124908748,0.05342637655670815
0.31899999999999995,-0.0059,-0.024,0.019823068292492963,1.167796679142604,0.0416079160054859,0.05342637655670815
0.32000000000000006,0.0209,-1.024,0.020051576461526093,1.1671047112199775,0.04226582041898264,0.05334392257454829
0.32099999999999995,0.0028,-3.024,0.020060295739173863,1.171036108973397,0.04229092434096164,0.05381238272945449
0.32200000000000006,-0.0136,-1.024,0.01999332254296125,1.1578072940205724,0.04209809989376267,0.052236054641909696
0.32299999999999995,-0.0107,0.976,0.019588324142396724,1.1458364828299805,0.04093205740032387,0.05080962861828493
0.32400000000000007,0.0136,1.976,0.01908985789630836,1.1411106024184803,0.039496908956098475,0.050246498960973114
0.32499999999999996,0.0629,-0.024,0.018864398846700027,1.1411106024184803,0.03884778334965857,0.050246498960973114
0.32600000000000007,0.0418,0.976,0.018669731928393954,1.128246978894329,0.038287312250278274,0.04871368660090665
0.32699999999999996,0.023,-1.024,0.01860708304727645,1.124165950301153,0.038106938062509685,0.04822739663310245
0.32800000000000007,-0.0063,-2.024,0.01856343693603028,1.124165950301153,0.037981275293680346,0.04822739663310245
0.32899999999999996,-0.0219,-2.024,0.018579939243379976,1.1289627638894064,0.038028787559365125,0.048798978593908846
0.33000000000000007,-0.036,-1.024,0.01857932372456372,1.124165950301153,0.03802701540151397,0.04822739663310245
0.33099999999999996,-0.0316,-0.024,0.018488232532281584,1.1289627638894064,0.03776475214113832,0.048798978593908846
0.3320000000000001,-0.0436,2.976,0.018473912513256082,1.128246978894329,0.03772352296426426,0.04871368660090665
0.33299999999999996,-0.0254,-1.024,0.01855880394894418,1.124165950301153,0.03796793632788093,0.04822739663310245
0.3340000000000001,0.0175,-0.024,0.018578636360894293,1.1248843321342532,0.03802503639308855,0.04831299806188773
0.33499999999999996,0.0233,-1.024,0.01859168972769187,1.1062319303909556,0.03806261871525872,0.04609040254800524
0.3360000000000001,0.0183,-1.024,0.018364606394435566,1.101336118260083,0.037408816587251585,0.04550702405183925
0.33699999999999997,0.0231,-2.024,0.017970060094618143,1.1186266439342307,0.036272867036401785,0.04756734021513655
0.3380000000000001,-0.0164,-1.024,0.017919393787776544,1.1234471091029936,0.03612699222138878,0.04814174046698449
0.33899999999999997,-0.032,-1.024,0.01790675173683368,1.1282469788943321,0.03609059413047521,0.048713686600907025
0.3400000000000001,-0.0368,-0.024,0.017924801799524544,1.111106170556538,0.03614256258288748,0.04667121055732779
0.34099999999999997,-0.0237,0.976,0.01791000678915313,1.111106170556538,0.03609996584482657,0.04667121055732779
0.3420000000000001,-0.0118,0.976,0.017911766698427516,1.1069619508732575,0.036105032850018856,0.04617739082283102
0.34299999999999997,-0.0154,1.976,0.01788149868766837,1.1062319303909562,0.03601788735342472,0.046090402548005324
0.3440000000000001,0.0009,0.9759999999999445,0.017916394401733777,1.1248843321342545,0.03611835660313641,0.04831299806188789
0.345,0.0037,-0.02399999999994449,0.01774971633886374,1.1248843321342545,0.035638469018988886,0.04831299806188789
0.3460000000000001,0.0117,0.9760000000000555,0.01793403579644467,1.106231930390956,0.03616914844786409,0.046090402548005296
0.347,0.0138,1.9759999999998334,0.01788299236070389,1.106231930390956,0.0360221878302372,0.046090402548005296
0.3480000000000001,0.0073,-1.0239999999999445,0.01790080594066879,1.0872595858174228,0.03607347541846074,0.04382968306976867
0.349,0.021,-0.024000000000111023,0.017907918616810597,1.087259585817423,0.03609395372803395,0.0438296830697687
0.3500000000000001,0.0337,-2.0239999999999445,0.018130318509234737,1.087259585817423,0.036734271627416486,0.0438296830697687
0.351,0.0323,-1.0240000000000555,0.018240207741702277,1.087259585817423,0.037050656863629565,0.0438296830697687
0.3520000000000001,0.0218,-2.024,0.018278497063084008,1.087259585817423,0.03716089674535206,0.0438296830697687
0.353,0.0127,-1.024,0.01864594403698422,1.0822779534479858,0.038218823850881156,0.043236078347518844
0.3540000000000001,0.004,-0.024,0.019945495058321546,1.0830241204073838,0.041960398413049535,0.04332499061519297
0.355,-0.0129,-1.024,0.020609974188458773,1.087259585817423,0.04387351930602899,0.0438296830697687
0.3560000000000001,-0.0249,0.976,0.020738848857777943,1.0922184970893816,0.044244566057187906,0.04442058037610389
0.357,-0.0185,-0.024,0.020754771485329917,1.0922184970893816,0.04429040935016615,0.04442058037610389
0.3580000000000001,-0.0128,-1.024,0.020867282721487954,1.078022915782348,0.04461434367229367,0.04272905368886083
0.359,-0.0073,0.976,0.021072847972018822,1.0795206161445563,0.045206192472089596,0.04290751768250607
0.3600000000000001,-0.0088,-1.024,0.021650152271923368,1.0837697736368224,0.04686832581482705,0.043413841667484805
0.361,-0.0011,0.976,0.022400333857439645,1.0880023363102194,0.04902819510144143,0.04391818823580269
0.3620000000000001,0.0138,0.976,0.022703179311849005,1.0880023363102194,0.04990012612214143,0.04391818823580269
0.363,0.012,-0.024,0.022631643655228285,1.092218497089378,0.04969416576452141,0.04442058037610347
0.3640000000000001,0.0211,-0.024,0.022795345970100182,1.0971549953477362,0.05016548578738782,0.04500880697739132
0.365,0.0196,-1.024,0.022903691551337396,1.0964184451895456,0.05047742665313647,0.044921040635025666
0.3660000000000001,0.0181,0.976,0.022895883314726855,1.1152349904017922,0.05045494573549821,0.04716319526749996
0.367,0.0217,-1.024,0.022900299166512136,1.1159591214202746,0.0504676595408347,0.04724948176160899
0.3680000000000001,0.0028,-0.024,0.022763459260416456,1.1111061705565306,0.05007367984836351,0.04667121055732692
0.369,-0.0302,0.976,0.022597538666973848,1.1159591214202746,0.04959597311613694,0.04724948176160899
0.3700000000000001,-0.0059,0.976,0.02259873875545872,1.1159591214202746,0.049599428325261964,0.04724948176160899
0.371,0.0039,-1.024,0.022588845535963315,1.1152349904017917,0.04957094447369,0.04716319526749991
0.3720000000000001,-0.011,-1.024,0.022600508649981567,1.0729984009864804,0.049604524079269054,0.04213033915341263
0.373,-0.0085,-0.024,0.022594141761256473,1.0857725605404676,0.04958619298760522,0.04365249110515864
0.3740000000000001,-0.0063,0.976,0.022717117207368027,1.0815312716953296,0.049940255116284714,0.04314710473776116
0.375,-0.004,0.976,0.022756253149511636,1.063637893514303,0.05005293252808832,0.04101495346734136
0.3760000000000001,-0.0021,-0.024,0.02190696518670263,1.063637893514303,0.04760772323239484,0.04101495346734136
0.377,-0.0039,-1.024,0.02158387960178629,1.063637893514303,0.04667751827231387,0.04101495346734136
0.3780000000000001,-0.0086,-1.024,0.021462115776721934,1.0628781170270263,0.046326944556489856,0.04092441950633115
0.379,-0.001,-0.024,0.021507060782994837,1.0628781170270263,0.04645634701118851,0.04092441950633115
0.3800000000000001,0.008,-1.024,0.021510564219971703,1.0482852919041663,0.046466433856920286,0.03918555777156315
0.381,-0.0109,0.976,0.02126449518528578,1.061356932386868,0.04575796945221325,0.04074315715719599
0.3820000000000001,-0.0189,-0.024,0.021101225405492842,1.061356932386868,0.04528789475347964,0.04074315715719599
0.383,-0.012,-1.024,0.020772645494398927,1.0394795477003047,0.0443418709215539,0.03813627694257113
0.3840000000000001,0.0082,-0.024,0.020649979233589306,1.0394795477003047,0.04398869897713168,0.03813627694257113
0.385,0.0003,-0.024,0.020618693497208615,1.0394795477003047,0.043898623317554855,0.03813627694257113
0.3860000000000001,0.0122,1.976,0.020509767169967236,1.0342678046110285,0.04358501040935417,0.037515252531390646
0.387,0.01,-1.024,0.020448616654715812,1.0290296658612925,0.043408950209660915,0.03689108284823225
0.3880000000000001,0.0043,-1.024,0.020441484313032537,1.0274583687397505,0.04338841528046408,0.03670384916211616
0.389,0.0097,-0.024,0.020383406606923157,1.0266718183668637,0.04322120209357102,0.03661012486031953
0.3900000000000001,0.0017,-0.024,0.020219375868805508,1.025884664942456,0.04274893649793236,0.03651632869970153
0.391,-0.0027,-0.024,0.019942784928940964,1.025884664942456,0.04195259560193702,0.03651632869970153
0.3920000000000001,0.0038000000000036195,0.976,0.0198428895678744,1.0266718183668635,0.04166498400707971,0.036610124860319504
0.393,0.0201,-2.024,0.01998236516613118,1.022185335964587,0.04206655219633307,0.036075521553053956
0.39400000000000013,0.004399999999993316,-1.024,0.019975188815190177,1.0078048915803837,0.04204589055882197,0.03436196682611636
0.395,-0.0257,-0.024,0.02004444166715027,1.0086061552251093,0.04224527842816845,0.03445744434191907
0.39600000000000013,-0.012699999999999134,-1.024,0.02012601564083225,1.013949808812197,0.042480140391917595,0.03509418703349609
0.397,-0.0088,-0.024,0.02028042948490295,1.009406782829699,0.042924717712496376,0.034552846068020705
0.39800000000000013,-0.005200000000006617,0.976,0.020362469116647765,0.9956533375224282,0.04316092036570978,0.03291400372154635
0.399,-0.035,-0.024,0.020434044590840826,0.9956533375224288,0.04336699536324262,0.03291400372154642
0.40000000000000013,-0.0231999999999976,-0.024,0.020329651526524044,0.9956533375224288,0.043066434302152054,0.03291400372154642
0.401,-0.0124,-0.024,0.020172847765715766,0.9745306006765138,0.0426149761038515,0.030397046345184916
0.40200000000000014,0.036900000000007795,-0.024,0.020188411290788834,0.9737012964920497,0.04265978549459873,0.030298227555765687
0.403,0.072,-1.024,0.020292613632120798,0.952091664665578,0.04295979743968177,0.02772325241770195
0.40400000000000014,0.05309999999999349,0.976,0.020873837065603702,0.9915882130180942,0.0446332144721411,0.03242960886392683
0.405,0.0238,-1.024,0.021411119784963375,1.0107578875931615,0.04618012053619089,0.03471384192407104
0.40600000000000014,0.008199999999992585,-0.024,0.02159756452884037,1.005397269192371,0.0467169189377052,0.03407507772773829
0.40700000000000003,-0.0252,-1.0240000000000555,0.021454744482840488,1.0008154212100202,0.04630572165317614,0.033529110784123455
0.40800000000000014,-0.029600000000004463,-2.0239999999998335,0.021539093274980672,1.005397269192371,0.04654857267621375,0.03407507772773829
0.40900000000000003,-0.0497,0.976,0.02150614214930493,1.0206035015282822,0.046453702146624,0.035887032254452014
0.41000000000000014,-0.060599999999994936,0.976,0.021511535198744366,1.0213947249699389,0.04646922942971162,0.03598131339294061
0.41100000000000003,-0.0378,0.976,0.02176176747213877,1.016090225208423,0.047189680334211385,0.035349236219416706
0.41200000000000014,0.0009000000000058619,0.975999999999889,0.02179064028465745,1.016090225208423,0.04727280887559561,0.035349236219416706
0.41300000000000003,0.0273,-1.023999999999889,0.0218514352597617,1.016090225208423,0.04744784542946914,0.035349236219416706
0.41400000000000015,0.02249999999999518,0.9759999999998334,0.022425772738069907,1.0206035015282822,0.04910143691118452,0.035887032254452014
0.41500000000000004,0.0008,-2.0239999999999445,0.022679054898075566,1.0392381009504814,0.04983066883156962,0.038107506467305576
0.41600000000000015,0.0048999999999992,-1.0239999999999445,0.022780180393763012,1.0340251409104373,0.0501218221422426,0.037486337045881654
0.41700000000000004,0.0013,-0.024,0.022855953079622467,1.034806102078779,0.05033998145208421,0.03757939534545943
0.41800000000000015,-0.008499999999996692,-1.024,0.02293490572067075,1.0480458738063596,0.05056729626197777,0.03915702902778791
0.41900000000000004,0.0064,-0.024,0.022937904623187327,1.0662009551383402,0.05057593048809603,0.041320364499431994
0.41999999999999993,0.0198,0.976,0.022743489871825503,1.133296501998025,0.0500161854097865,0.04931538109322872
0.42100000000000004,0.0078,-0.024,0.02281066260919233,1.146103452140617,0.05020958436163704,0.05084144032812966
0.42199999999999993,-0.0125,1.976,0.0229082155505006,1.1461034521406164,0.05049045182868586,0.05084144032812958
0.42300000000000004,-0.0259,-0.024,0.022921854610226996,1.1413786771165497,0.050529720436140506,0.050278442387321876
0.42399999999999993,-0.019,-0.024,0.023048262193885845,1.1413786771165497,0.050893664130322216,0.050278442387321876
0.42500000000000004,-0.0126,-0.024,0.02320752900495087,1.1373447687524827,0.05135221376715398,0.04979776720367642
0.42599999999999993,-0.0184,0.976,0.02324725918004663,1.138054831663775,0.05146660205206781,0.04988237736074533
0.42700000000000005,0.0019,0.976,0.023284468440186275,1.1420862320512184,0.051573732298537345,0.050362753697214456
0.42799999999999994,0.0153,-2.024,0.02329943988675118,1.141378677116548,0.05161683701909573,0.05027844238732167
0.42900000000000005,0.0223,-1.024,0.023300727672631263,1.1413786771165477,0.05162054472030278,0.05027844238732164
0.42999999999999994,0.0157,1.976,0.023333315244432797,1.1461034521406142,0.051714368531521816,0.05084144032812932
0.43100000000000005,0.0176,-0.024,0.023320963514149532,1.1413786771165473,0.05167880631113352,0.050278442387321584
0.43199999999999994,0.023,-2.024,0.023300553588630292,1.1413786771165473,0.05162004351007016,0.050278442387321584
0.43300000000000005,0.0118,-1.024,0.023253136293984903,1.1461034521406142,0.051483523019116705,0.05084144032812932
0.43399999999999994,0.0133,-0.024,0.023241544092460355,1.1580715037128289,0.05145014757972907,0.052267537519279345
0.43500000000000005,0.0097,-0.024,0.023231103587676567,1.1627284490129266,0.05142008802341014,0.05282245295992025
0.43599999999999994,-0.0091,-0.024,0.023251206963318893,1.1673668166331947,0.051477968227943885,0.05337515470881166
0.43700000000000006,-0.0224,1.976,0.023233703673303217,1.155495045369412,0.05142757400439927,0.05196053015183181
0.43799999999999994,-0.0057,0.976,0.023221882660742158,1.1508088292331382,0.05139353978860371,0.051402126837078614
0.43900000000000006,0.019,0.976,0.023224637068052337,1.1461034521406142,0.051401470081571365,0.05084144032812932
0.43999999999999995,0.0157,-0.024,0.0232190833796156,1.1501066405235296,0.05138548029814623,0.05131845495946447
0.44100000000000006,0.0129,-1.024,0.023227382854581022,1.154795706178644,0.05140937555420013,0.0518771978191127
0.44199999999999995,0.0264,-0.024,0.023231009726087253,1.154795706178644,0.05141981778382033,0.0518771978191127
0.44300000000000006,0.0145,0.976,0.02323462826012204,1.1902875605238792,0.05143023600878772,0.05610636022579503
0.44399999999999995,0.0167,-1.024,0.023147928358250185,1.190287560523879,0.05118061583839041,0.056106360225795
0.44500000000000006,0.0185,-1.024,0.02314546028338589,1.1857388575506724,0.051173509933367715,0.05556434279761766
0.44599999999999995,0.0276,-0.024,0.02300975271036569,1.1857388575506724,0.05078279037348197,0.05556434279761766
0.44700000000000006,0.0229,-1.024,0.023007794412229016,1.1850573663080393,0.05077715218123479,0.05548313720278476
0.44799999999999995,0.0186,-1.024,0.022994103747150333,1.1850573663080395,0.0507377349953325,0.05548313720278479
0.44900000000000007,0.0038,-0.024,0.022998721827419022,1.2196689367079088,0.050751031042486995,0.059607406139187025
0.44999999999999996,-0.0223,-0.024,0.02274969444139204,1.2196689367079088,0.05003404916371242,0.059607406139187025
0.45100000000000007,-0.0332,0.976,0.022661375450503406,1.2240915625893818,0.04977976742775932,0.06013440038791827
0.45199999999999996,-0.0299,-0.024,0.02263992340247215,1.2396711163602574,0.04971800422192722,0.061990839402903654
0.45300000000000007,-0.0505,2.976,0.022339042892851536,1.274504202206076,0.04885173053004073,0.06614150382677171
0.45399999999999996,-0.0478,1.976,0.021159288991221128,1.273870199265341,0.04545506728597911,0.06606595687516413
0.45500000000000007,-0.0311,-0.024,0.020485483725981277,1.27025710901716,0.043515095250343166,0.065635425821449
0.45599999999999996,0.0026,-0.024,0.020365396353187355,1.2659957679930527,0.04316934825626132,0.06512765006293536
0.4570000000000001,0.0266,0.976,0.020349079948862293,1.2696209852329972,0.04312237122929867,0.06555962615294454
0.45799999999999996,0.0048,-2.024,0.020192117664400332,1.2653575019383618,0.04267045662100699,0.06505159512430908
0.4590000000000001,0.0088,-1.024,0.01997575461857758,1.2488050011299086,0.04204751957955816,0.06307922102757249
0.45999999999999996,0.0341,-0.024,0.019356241299918944,1.2488050011299086,0.04026386104214088,0.06307922102757249
0.4610000000000001,0.0113,0.976,0.01838427190251137,1.2488050011299086,0.037465436114734865,0.06307922102757249
0.46199999999999997,-0.0213,0.976,0.018098066531364927,1.2494517228415423,0.03664141403429704,0.06315628353109294
0.4630000000000001,-0.0518,0.976,0.018955441211584625,1.2500981099803035,0.03910990602967564,0.06323330616735254
0.46399999999999997,-0.0398,1.976,0.019739760988506657,1.2457678138979253,0.041368063560818326,0.06271731381532554
0.4650000000000001,-0.029,-0.024,0.019968083298755115,1.2464161115007484,0.04202543286296549,0.06279456409995514
0.46599999999999997,-0.0259,-1.024,0.02003169933731235,1.2464161115007493,0.04220859162141634,0.06279456409995524
0.4670000000000001,-0.0288,1.976,0.020029913893125827,1.2420729787642657,0.04220345109792723,0.062277042149208435
0.46799999999999997,-0.0046,1.976,0.020077888904254326,1.2464161115007497,0.04234157732637914,0.06279456409995529
0.4690000000000001,0.0051,3.975999999999889,0.02028625968407572,1.2587140109814314,0.042941503605900364,0.06425996553147671
0.47,0.0185,1.9759999999998334,0.020901228123455844,1.2623601399793363,0.0447120768512303,0.06469443343889739
0.4710000000000001,0.0215,-1.0239999999999445,0.022118926189962203,1.2738701992653476,0.04821798622703401,0.06606595687516492
0.472,0.0136,-0.024,0.023047602616733814,1.2774730706140238,0.05089176512285479,0.06649527025833506
0.4730000000000001,0.0256,-0.024,0.023559572535692113,1.2965838220923895,0.05236579237835917,0.06877248212023382
0.474,0.0279,-0.02400000000005551,0.023799530599253455,1.3001237515249828,0.053056662511095004,0.0691942954279581
0.4750000000000001,0.0142,-1.023999999999889,0.024063689030366903,1.3148026819316914,0.053817208615101975,0.07094341735442887
0.476,-0.0133,0.976,0.024113852820247982,1.3182936903370412,0.053961636619142835,0.07135940129727124
0.4770000000000001,-0.0092,0.975999999999889,0.024043589290265233,1.3293195310195896,0.05375933887775745,0.07267322588539006
0.478,0.009,-1.024,0.024055934210127947,1.3258575541823696,0.0537948814900689,0.07226070130579618
0.4790000000000001,0.0124,-1.0239999999999445,0.024007732303865638,1.3141881203047536,0.053656102001339405,0.07087018700405177
0.48,-0.0024,-0.024,0.02390897405385867,1.3135732711522088,0.05337176429549844,0.07079692239250374
0.4810000000000001,-0.0049,0.976,0.023866888210354938,1.3024141342590796,0.053250593738209416,0.06946721440428813
0.482,-0.0117,-1.024,0.02384729260656682,1.305938259905695,0.05319417547416273,0.06988714455378431
0.4830000000000001,-0.0095,1.976,0.023840651791857057,1.2899066097283507,0.053175055714351716,0.06797683432914514
0.484,0.0043,-1.024,0.02418912353056049,1.2899066097283507,0.05417835067681162,0.06797683432914514
0.4850000000000001,0.0097,-1.024,0.02469295258640942,1.2899066097283507,0.0556289393401992,0.06797683432914514
0.486,0.0082,-1.024,0.024822063502634984,1.294089216496761,0.05600066627659196,0.0684752282179184
0.4870000000000001,0.0067,-0.024,0.02486531827838792,1.294089216496761,0.05612520234019564,0.0684752282179184
0.488,0.0056,-0.024,0.024845959572428147,1.2827605928954608,0.056069466135470834,0.06712532441779462
0.4890000000000001,-0.0082,0.976,0.02486915038814039,1.2827605928954608,0.05613623547712821,0.06712532441779462
0.49,-0.0064,-1.024,0.024840399222424824,1.2940892164967612,0.05605345717253856,0.06847522821791843
0.4910000000000001,-0.0049,-0.024,0.024923051823035534,1.298258348205593,0.056291424641968006,0.06897201643642033
0.492,0.0056,-3.024,0.024906903810081805,1.3100696840694497,0.056244932435424964,0.07037943959110338
0.4930000000000001,-0.0008,-2.024,0.02482986695207159,1.3141881203047534,0.056023133411340645,0.07087018700405175
0.494,0.0028,-0.024,0.02495177488440804,1.3264667092871505,0.056374122030538695,0.0723332874221461
0.4950000000000001,0.006,-0.024,0.02556885828802924,1.3223865140021538,0.05815078452998361,0.07184709675024206
0.496,0.0124,0.976,0.026452492085787246,1.3528938499673193,0.06069487990267726,0.07548231054146587
0.4970000000000001,0.0039,-0.024,0.026818769092578028,1.3568823116658677,0.061749438522396,0.07595757036057582
0.498,0.007,-3.024,0.02705334959244996,1.3681876501942352,0.06242482595751059,0.077304699542216
0.4990000000000001,0.0094,-0.024,0.027275180041695147,1.3794003351370971,0.06306350435672885,0.07864078824519162
0.5,0.0118,-1.024,0.027272897842818205,1.3833123736194401,0.06305693361258446,0.0791069415749694
0.5010000000000001,0.0076,1.976,0.027967125951898326,1.3982735068194907,0.06505570564279181,0.08088969041292961
0.502,0.0025,2.976,0.028744013908447667,1.3949826659516562,0.06729246600706647,0.08049755816902819
0.5030000000000001,-0.0069,0.976,0.030205639185894098,1.40867347580657,0.07150067320149284,0.08212893695786881
0.504,-0.0032,-0.024,0.030747617565576604,1.3772379884166366,0.07306109867565276,0.07838312587084988
0.5050000000000001,-0.0086,-0.024,0.030700922723672815,1.3632315113738134,0.0729266582190773,0.07671413259753787
0.506,0.0006,0.976,0.030791057456870233,1.3665988128087254,0.07318616771071099,0.07711537578145197
0.5070000000000001,-0.0004,-0.024,0.03087899879599107,1.3665988128087254,0.07343936213864422,0.07711537578145197
0.508,0.003,-0.024,0.03077861364266743,1.3772379884166366,0.07315034036887286,0.07838312587084988
0.5090000000000001,-0.006,0.976,0.03085727260244583,1.3654160396893553,0.07337680963261183,0.0769744381014024
0.51,0.0028,0.976,0.030958685524651457,1.3754771703463575,0.07366879048120464,0.07817330911922583
0.5110000000000001,0.0197,-1.024,0.030782458566934866,1.3754771703463575,0.07316141040044244,0.07817330911922583
0.512,0.0564,-1.024,0.03077163176388058,1.3760643600532099,0.07313023864171009,0.07824327786781966
0.5130000000000001,0.0615,-0.024,0.03071581337711673,1.3760643600532099,0.07296953032584728,0.07824327786781966
0.514,0.0376,-1.024,0.030304006716794535,1.372720277930272,0.07178388597676474,0.07784480146640037
0.5150000000000001,0.016,-2.024,0.030047663987304036,1.3586672286861083,0.07104584228312703,0.07617025871119346
0.516,0.0041,-0.024,0.02993393386003382,1.372720277930272,0.07071839861669175,0.07784480146640037
0.5170000000000001,-0.013900000000003618,-1.024,0.02990520666571296,1.3827282618591454,0.0706356893288311,0.07903733959041515
0.518,-0.0302,-2.024,0.0298630852358591,1.368777967023374,0.0705144163138623,0.07737504091456418
0.5190000000000001,-0.0507000000000054,0.976,0.030251949636424854,1.3866309114455444,0.07163400694585798,0.07950237415177411
0.52,-0.075,1.976,0.0317216099258674,1.3329607933986196,0.07586534797342961,0.07310711389294434
0.5210000000000001,-0.0651999999999967,0.976,0.032580352068508484,1.3225762707816957,0.0783377770690271,0.07186970791703672
0.522,-0.0504,2.976,0.033022345398487724,1.332960793398618,0.07961033272320726,0.07310711389294415
0.5230000000000001,-0.04249999999999952,0.976,0.03303755208375175,1.3364043693080168,0.0796541147262411,0.073517445842324
0.524,-0.0403,1.976,0.03300051033847245,1.3364043693080168,0.07954746677660327,0.073517445842324
0.5250000000000001,-0.019999999999995802,0.976,0.03317873629190481,1.3364043693080165,0.08006060222317812,0.07351744584232398
0.526,-0.0011,1.976,0.03397817180138381,1.3357997460102058,0.082362279892811,0.07344539973009685
0.5270000000000001,-0.007899999999998512,-0.024,0.03503977920351126,1.3323546074049673,0.08541878416666568,0.07303488157194823
0.528,-0.0012,-1.024,0.03555875168354323,1.332354607404968,0.08691297269629711,0.07303488157194832
0.5290000000000001,0.004800000000000421,0.976,0.03559517656954581,1.3317481454872087,0.08701784462872567,0.0729626163722007
0.53,0.0067,0.976,0.03559058613470512,1.3276841810371574,0.08700462817631463,0.07247835974511471
0.5310000000000001,0.014700000000001687,0.976,0.03562602140565106,1.331748145487209,0.08710665087969294,0.07296261637220075
0.532,0.0223,-0.024,0.03562315578735967,1.3323546074049684,0.0870984003960044,0.07303488157194837
0.5330000000000001,0.042600000000001956,-1.024,0.03563572096498691,1.3323546074049684,0.08713457715875346,0.07303488157194837
0.534,0.0514,-0.024,0.03567398669381964,1.3219653229832422,0.08724474911449247,0.07179690818568056
0.5350000000000001,0.027099999999997824,-1.024,0.035743397508393886,1.3178711912542418,0.08744459177852511,0.07130905686554748
0.536,0.0173,-0.024,0.03582457178875105,1.317258061229176,0.08767830297377634,0.07123599710295538
0.5370000000000001,0.020199999999998223,0.976,0.03585686924818856,1.317258061229176,0.08777129151417984,0.07123599710295538
0.538,0.0122,0.976,0.03588066819369647,1.320742579551721,0.0878398117397476,0.07165120769611732
0.5390000000000001,-0.01470000000000242,1.976,0.03587691787443443,1.3248278378239369,0.08782901408815834,0.07213800166687989
0.54,-0.0256,-1.024,0.036045991843068434,1.3248278378239369,0.08831579979320503,0.07213800166687989
0.5410000000000001,-0.009199999999994027,-2.024,0.03617530880231374,1.3242179288201095,0.08868811995395662,0.07206532571691703
0.542,0.0177,-1.024,0.03617204510097251,1.3282924984509,0.08867872333795897,0.07255084604330882
0.5430000000000001,0.028600000000006596,-2.024,0.036170979883312575,1.307792708833998,0.08867565643928847,0.07010811823457325
0.544,0.0583,-0.024,0.03618094016039341,1.2953371198195571,0.08870433335827503,0.06862392672683844
0.5450000000000002,0.07029999999999596,-3.024,0.03618822293896525,1.2953371198195571,0.08872530141462596,0.06862392672683844
0.546,0.0521,-1.024,0.036294350209980536,1.2953371198195573,0.08903085547988653,0.06862392672683847
0.5469999999999999,0.0423,-2.024,0.03628562344761835,1.3065567020034425,0.08900573000845191,0.0699608372959291
0.548,0.0394,-2.024,0.03630200302753809,1.3065567020034425,0.08905288892607842,0.0699608372959291
0.5489999999999999,-0.0013,-1.024,0.036298851846127,1.2706954396129593,0.089043816269434,0.06568765671531612
0.55,-0.0658,-2.024,0.03629325861715832,1.274941072632569,0.08902771264373097,0.06619356072879613
0.5509999999999999,-0.0742,-0.024,0.036294914601235316,1.2706954396129593,0.08903248043491124,0.06568765671531612
0.552,-0.0975,1.976,0.03628712279583471,1.2555009267689925,0.08901004682484007,0.06387709866775716
0.5529999999999999,-0.0765,-0.024,0.03628809696746087,1.220125441261979,0.08901285159026734,0.05966180261787686
0.554,-0.0447,-0.024,0.036288882838034844,1.2201254412619793,0.08901511421274269,0.05966180261787689
0.5549999999999999,-0.039,0.976,0.036297235254199825,1.2201254412619793,0.0890391618933204,0.05966180261787689
0.556,-0.0234,-0.024,0.036290601002352166,1.22454641841257,0.08902006102883361,0.06018860040601754
0.5569999999999999,-0.0093,1.976,0.03629908968629566,1.2207873562907532,0.08904450104187486,0.0597406755369664
0.558,-0.0225,0.976,0.036299974396794076,1.225205945019726,0.08904704823720726,0.06026718872394703
0.5589999999999999,-0.0265,1.976,0.036306241115920464,1.2296086556884647,0.0890650909277108,0.06079180990227745
0.56,-0.0085,-0.024,0.036302532589361676,1.225865116795607,0.08905441360269034,0.060345734760651255
0.5609999999999999,0.0078,-1.024,0.036312953566968294,1.2221101108364256,0.08908441693775426,0.05989829321857331
0.562,0.0106,0.976,0.03629960550893255,1.2214489126213972,0.08904598616160089,0.05981950571406133
0.563,0.0132,-0.024,0.03587137356762104,1.217016683415507,0.08781305131563365,0.059291367145898104
0.5640000000000001,0.0063,-0.023999999999777956,0.03535033923853194,1.2207873562907534,0.08631292645733443,0.05974067553696643
0.565,0.0127,1.976,0.03515469547974057,1.2201254412619793,0.0857496429085381,0.05966180261787689
0.5660000000000001,0.0224,1.975999999999778,0.0351206448923794,1.240771506300436,0.08565160688732337,0.0621219604123169
0.567,0.0241,-0.023999999999666934,0.03515147061644572,1.240771506300436,0.08574035811227203,0.0621219604123169
0.5680000000000001,0.0486,2.975999999999556,0.03513245475882193,1.2364085459162517,0.08568560901200988,0.06160207582530281
0.569,0.0956,-1.024,0.03500851462111682,1.2194631669509794,0.08532876941213648,0.059582886887192675
0.5700000000000001,0.0766,-1.023999999999667,0.034654834738056334,1.2201254412619793,0.08431047953210696,0.05966180261787689
0.571,0.058,1.975999999999889,0.03384612521246355,1.2214489126213972,0.08198210077709094,0.05981950571406133
0.5720000000000001,0.0169,0.975999999999889,0.03321164720958703,1.217680288325432,0.08015535698878223,0.05937044142898982
0.573,-0.0202,-0.024,0.03283686039310168,1.1811726376246816,0.07907629753226732,0.05502023807252215
0.5740000000000001,-0.0442,-0.023999999999888978,0.03258921294471644,1.1818563689120074,0.07836328867147585,0.055101710588116956
0.575,-0.0746,0.975999999999889,0.03234724223299614,1.165504248641978,0.0776666238657872,0.053153213571227764
0.5760000000000001,-0.0866,-0.023999999999888978,0.032289088340350776,1.165504248641978,0.07749919132805655,0.053153213571227764
0.577,-0.0612,0.976,0.03233698293754453,1.1489194186134766,0.07763708603444602,0.05117698716740305
0.5780000000000001,-0.0184,0.976,0.03238619633074548,1.1529128293304813,0.07777877772418759,0.05165283670500452
0.579,0.011,-0.024,0.03242035625399912,1.1529128293304811,0.07787712853750149,0.05165283670500449
0.5800000000000001,0.0161,-1.024,0.03244465199023706,1.1536133099524477,0.07794707908748719,0.051736305049155086
0.581,0.002,-1.024,0.03244498284132436,1.1536133099524477,0.07794803165032758,0.051736305049155086
0.5820000000000001,0.0151,-1.024,0.0324124597821011,1.1496223324778254,0.07785439357912016,0.05126074545349663
0.583,0.0191,-1.024,0.03234495582378646,1.1496223324778254,0.07766004099955325,0.05126074545349663
0.5840000000000001,0.0227,-0.024,0.032080354959402806,1.1449120791132577,0.07689822107324759,0.050699477894422106
0.585,0.026,0.976,0.031676413820974636,1.1489194186134766,0.07573522257350353,0.05117698716740305
0.5860000000000001,0.0173,-1.024,0.03156315524535431,1.1442062716288595,0.07540913656492777,0.05061537480839181
0.587,0.0147,0.976,0.03155381801858272,1.1489194186134766,0.07538225348792953,0.05117698716740305
0.5880000000000001,-0.002,-1.024,0.03155381801858274,1.1496223324778254,0.07538225348792957,0.05126074545349663
0.589,-0.0358,0.976,0.031545164562174904,1.1456174517543234,0.07535733907376746,0.050783529165096215
0.5900000000000001,-0.0312,0.976,0.031510808874748955,1.132805007137761,0.07525842463021876,0.04925681521594638
0.591,-0.0008,-1.024,0.03140786741517214,1.1280245324300662,0.07496204292590618,0.048687180174530366
0.5920000000000001,-0.0048,1.976,0.03139519849114649,1.1094249271128906,0.07492556746393038,0.046470875812932876
0.593,-0.0085,0.976,0.031392972532260546,1.1094249271128904,0.07491915864195468,0.046470875812932855
0.5940000000000001,0.0078,-0.024,0.03135293220361678,1.095452340573121,0.0748038773850786,0.044805920887126274
0.595,0.0284,-0.024,0.030859638479715252,1.100374331261613,0.07338362129761238,0.045392418785582964
0.5960000000000001,0.0095,1.976,0.03004975178831998,1.077040310511695,0.07105185333082263,0.0426119677448346
0.597,0.0116,-0.024,0.029766913951951798,1.0762899951232945,0.0702375268162046,0.04252256115584906
0.5980000000000001,0.0051,-0.024,0.02959732764989677,1.0611204636164364,0.0697492660373332,0.040714979851368696
0.599,0.0069,-1.024,0.029383694388503342,1.0413265392954,0.0691341883964106,0.038356362017401384
0.6000000000000001,0.0123,-0.024,0.02939253370515418,1.0361240866849013,0.06915963792612101,0.03773644464738035
0.601,0.0009,-0.024,0.028646246030393223,1.020357588158034,0.06701097970947636,0.03585772954260614
0.6020000000000001,-0.0036,-0.024,0.0276679923918514,1.024852071900802,0.06419446164345219,0.036393286279018576
0.603,-0.0073,0.976,0.025924803261959603,1.0248520719008019,0.05917559589800441,0.03639328627901855
0.6040000000000001,-0.0084,-0.024,0.024770168148604152,1.0248520719008019,0.05585125287661889,0.03639328627901855
0.605,-0.0051,-1.024,0.024362962556044865,1.0248520719008019,0.054678855593498256,0.03639328627901855
0.6060000000000001,0.0079,-0.024,0.024205364204343067,1.0256400178152145,0.054225109665800623,0.036487176871697044
0.607,0.0026,-1.024,0.02414170443522034,1.0301114540241167,0.054041825001426305,0.0370199872944668
0.6080000000000001,0.0074,-1.024,0.02412811262225876,1.016638147527733,0.0540026924234853,0.03541452591806328
0.609,0.0031,-0.024,0.02402847912112563,1.0121071887112225,0.0537158347570615,0.03487462286012162
0.6100000000000001,-0.0091,-0.024,0.02389554824838566,0.9983909438380713,0.053333109674471905,0.03324021326815934
0.611,-0.017,0.976,0.023904596496268565,0.9983909438380713,0.053359160744075956,0.03324021326815934
0.6120000000000001,-0.0093,-0.024,0.02392714492335658,0.9975814753057756,0.05342408056624855,0.03314375806880916
0.613,-0.0082,0.976,0.023904440145387475,1.0121071887112225,0.05335871058977663,0.03487462286012162
0.6140000000000001,0.0057,0.976,0.023868130433405712,1.016638147527733,0.053254170258169774,0.03541452591806328
0.615,0.004,-3.024,0.02386062546595583,1.021149002142345,0.05323256249145702,0.03595203338590534
0.6160000000000001,0.0153,-0.024,0.0238360178793874,1.0021781086418393,0.05316171408425401,0.03369148681561084
0.617,0.0078,-0.024,0.023773081177214116,0.982841105319456,0.05298051122264108,0.03138731508331887
0.6180000000000001,0.0067,-0.024,0.023658850673122504,0.9828411053194562,0.05265162690696949,0.0313873150833189
0.619,0.0105,-1.024,0.023157171497784183,0.9429782563955814,0.05120722802612844,0.026637310745640738
0.6200000000000001,0.0095,-2.024,0.02109823567046454,0.942121178601895,0.04527928692173941,0.02653518248969214
0.621,0.0005,-0.024,0.019660998515426895,0.9583319641974508,0.04114129626896899,0.028466838253762294
0.6220000000000001,-0.0082,-0.024,0.01904870087683473,0.9438345558939284,0.03937841260267426,0.02673934626094641
0.623,-0.0137,-1.024,0.0209013878279293,0.9608575254409114,0.04471253666095345,0.02876778079011786
0.6240000000000001,-0.0074,-0.024,0.022062520339149714,0.9664652205996578,0.04805558652660494,0.029435986326036515
0.625,-0.005,0.976,0.022225978868180545,0.9720405655429504,0.04852620465867477,0.030100337053082283
0.6260000000000001,-0.0176,-0.024,0.02099564755212164,0.9885779566417621,0.044983922532292414,0.0320709106968087
0.627,-0.0195,0.976,0.01914239742039481,0.9940292826623949,0.03964817700452647,0.03272048349311216
0.6280000000000001,-0.0149,-1.024,0.018991339779457748,0.9940292826623948,0.03921326262450493,0.03272048349311214
0.629,-0.0134,-1.024,0.020347478312100636,0.9940292826623948,0.043117759911030396,0.03272048349311214
0.6300000000000001,-0.0068,0.976,0.022342231400541594,1.013152771266845,0.04886091065384389,0.034999213094103455
0.631,0.0021,-0.024,0.023960063695776704,1.0123551062058516,0.05351885794665351,0.03490416438077719
0.6320000000000001,0.0077,-0.024,0.02457862039090221,1.007002990377262,0.0552997622418607,0.034266413339698674
0.633,0.0104,-0.024,0.024653709588150146,1.0070029903772617,0.055515953700067094,0.03426641333969865
0.6340000000000001,0.008,0.976,0.02458401364933553,1.0062004500913924,0.0553152901266686,0.03417078370102629
0.635,0.0041,-0.024,0.024487548850515774,1.0115568121447425,0.05503755556182076,0.034809040716629346
0.6360000000000001,0.0155,-1.024,0.024524742624051788,1.0070029903772617,0.05514464122036627,0.03426641333969865
0.637,0.0202,-1.024,0.024758310178838044,1.0221853359645994,0.0558171122562759,0.036075521553055434
0.6380000000000001,0.0097,-0.024,0.024838628405447934,1.0229753359322442,0.05604835876266761,0.03616965690399949
0.639,0.0006,0.976,0.024941046110777264,1.0221853359645985,0.05634323251112693,0.03607552155305533
0.6400000000000001,-0.003,-0.024,0.024692471686822624,1.017679074901991,0.05562755476842681,0.03553856144679269
0.641,0.0024,-0.024,0.0245102465858383,1.0334864366745697,0.05510290526160723,0.037422145761862216
0.6420000000000001,0.017300000000001443,-1.024,0.024512423554484266,1.032704477537341,0.05510917303438002,0.037328968545632224
0.643,0.0238,-1.024,0.0245347704982838,1.0184725702531139,0.055173512760246644,0.035633113303007447
0.6440000000000001,0.018099999999995495,-1.024,0.024528741307823128,1.0139498088122003,0.05515615394532693,0.03509418703349648
0.645,-0.0022,-2.024,0.02458666254498804,1.0192654478704792,0.055322916638001006,0.03572759155088495
0.6460000000000001,-0.03189999999999911,0.976,0.024509749494274386,1.0192654478704792,0.055101474071049816,0.03572759155088495
0.647,-0.0279,0.976,0.024536548916862532,1.0056468408539574,0.05517863305610715,0.03410481635673997
0.6480000000000001,-0.016999999999997847,-0.024,0.024544079679765393,1.010206775906415,0.05520031509124731,0.0346481721846204
0.649,-0.0073,-0.024,0.024566383637709698,1.0290296658612899,0.05526453105530712,0.03689108284823193
0.6500000000000001,0.001499999999999445,0.976,0.024658994308285945,1.023764726287385,0.05553116908915427,0.0362637196143241
0.651,-0.001,0.976,0.0246284738595636,1.0290296658612887,0.05544329679119095,0.036891082848231796
0.6520000000000001,-0.012999999999997512,1.976,0.024630626239426974,1.0290296658612887,0.0554494937696956,0.036891082848231796
0.653,-0.0018,-0.024,0.024628072431796134,1.0290296658612887,0.055442141029009524,0.036891082848231796
0.6540000000000001,-6.106226635437678e-15,-0.024,0.024617522418272215,1.0245535084391195,0.055411766182940754,0.03635770985193549
0.655,-0.0275,-1.024,0.024794250811457835,1.0290296658612885,0.055920589960921974,0.03689108284823177
0.6560000000000001,-0.01549999999999758,0.976,0.025152823079614008,1.0237647262873837,0.05695296564698894,0.03626371961432394
0.657,-0.0046,-1.024,0.02525988982575609,1.0423428120947804,0.05726122458199183,0.03847745973960733
0.6580000000000001,0.005300000000000644,-0.024,0.025271984667895143,1.0423428120947804,0.05729604718836734,0.03847745973960733
0.659,0.0082,-1.024,0.025261278312859344,1.0423428120947804,0.057265222214974404,0.03847745973960733
0.6600000000000001,0.01080000000000049,-0.024,0.025261158742780038,1.0423428120947804,0.057264877957334814,0.03847745973960733
0.661,0.013,0.976,0.025260443839559586,1.062117797040555,0.05726281965899936,0.040833820782675986
0.6620000000000001,0.0017999999999996003,1.976,0.025212227233937876,1.0628781170270223,0.05712399784892326,0.040924419506330675
0.663,0.0,0.976,0.025241194131021334,1.0628781170270225,0.05720739727187234,0.0409244195063307
0.6640000000000001,0.0019000000000010436,0.976,0.025236329863653716,1.0628781170270223,0.05719339242039099,0.040924419506330675
0.665,0.0066,-0.024,0.02535719654127505,1.058545100639185,0.057541383133319225,0.04040810300630424
0.6660000000000001,0.014199999999995494,-0.024,0.025626561611814588,1.0192654478704726,0.058316919822005965,0.03572759155088416
0.667,-0.0061,-0.024,0.025764230431010303,1.0192654478704726,0.05871328606192194,0.03572759155088416
0.6680000000000001,-0.003199999999998246,-1.024,0.025873287708614988,1.0245535084391195,0.05902727599306379,0.03635770985193549
0.669,0.0047,0.976,0.025893305511310787,1.0245535084391195,0.059084909822076544,0.03635770985193549
0.6700000000000002,-0.0021999999999925174,-2.024,0.025875651297119613,1.0237647262873837,0.059034081068416074,0.03626371961432394
0.671,0.0315,-1.024,0.025888170217778873,1.0086061552251047,0.059070124651403905,0.03445744434191852
0.6720000000000002,0.08769999999999685,-2.024,0.02599665443951834,1.0131527712668287,0.05938246468099299,0.0349992130941015
0.673,0.0735,-1.024,0.02607684390294482,1.0176790749019757,0.05961334046161581,0.035538561446790864
0.6739999999999999,0.0518,-1.024,0.026041347498549874,1.0311387802795513,0.059511141747173736,0.03714240213187202
0.675,0.0159,-2.024,0.02609408876206398,1.0311387802795513,0.05966299062936531,0.03714240213187202
0.6759999999999999,-0.0081,-1.024,0.026173385738034346,1.0266718183668597,0.05989129682379412,0.03661012486031905
0.677,-0.0563,0.976,0.026829971499463163,1.0467429003787614,0.06178169169287433,0.039001768438039534
0.6779999999999999,-0.0753,0.976,0.028259649741909948,1.0467429003787614,0.06589791926393171,0.039001768438039534
0.679,-0.0929,1.976,0.028945025378764182,1.0467429003787612,0.06787120388783577,0.03900176843803951
0.6799999999999999,-0.088,0.976,0.02919432713745491,1.0415675019224762,0.06858897572080404,0.03838507480524089
0.681,-0.0548,-0.024,0.029233674448686464,1.0371454572495322,0.06870226169140194,0.037858149812549015
0.6819999999999999,-0.0244,-1.024,0.029753809218040324,1.055488049495926,0.07019979660150576,0.04004382883667038
0.683,-0.0045,0.976,0.030710185699454814,1.055488049495926,0.07295332751792502,0.04004382883667038
0.6839999999999999,0.0064,-1.024,0.03178287656722658,1.0735172778134907,0.07604174251512533,0.04219216782962508
0.685,0.0293,-0.024,0.03297782568694804,1.0870287518422748,0.07948215474675466,0.04380217719869231
0.6859999999999999,0.0381,-2.024,0.03376784151662643,1.1045432678112463,0.08175671194651213,0.04588918374917299
0.687,0.0248,-1.024,0.033790617893797226,1.1169567203657471,0.08182228806629611,0.0473683543320895
0.688,0.0227,0.975999999999889,0.033730602039888695,1.116233236517162,0.0816494947025697,0.04728214495388922
0.6890000000000001,0.0071,-0.024000000000222045,0.03372501167670101,1.121063993150209,0.0816333993278188,0.04785777152300526
0.69,0.0089,-2.023999999999667,0.03381727975036128,1.1217843614538934,0.08189905098107385,0.04794360965699715
0.6910000000000001,0.0034,0.976,0.03395024613097329,1.1387644518239461,0.08228187829539471,0.0499669347601764
0.692,-0.0115,0.975999999999889,0.03395539502385288,1.1427933489067823,0.0822967026203387,0.050447012806180504
0.6930000000000001,0.0066,-0.024000000000111023,0.033912077841256424,1.1420862320512195,0.08217198687940465,0.05036275369721459
0.694,0.0186,-1.023999999999889,0.03387561924511918,1.1373447687524827,0.08206701789116198,0.04979776720367642
0.6950000000000001,0.0207,-0.024000000000111023,0.033856883883766904,1.1373447687524827,0.08201307637574802,0.04979776720367642
0.696,0.0149,-1.023999999999778,0.03385891796722035,1.1237193976150472,0.08201893276367106,0.048174186005832564
0.6970000000000001,0.0131,0.976000000000111,0.03370833461195728,1.1196218660818653,0.08158538391311616,0.04768592956953129
0.698,-0.0116,1.975999999999778,0.03362558770707823,1.115509283440058,0.08134714492956703,0.04719587966303941
0.6990000000000001,-0.0224,-0.024000000000111023,0.03359227582550955,1.1155092834400582,0.08125123573735457,0.04719587966303944
0.7,0.0004,-1.023999999999889,0.03358472405064881,1.134009099745491,0.08122949320608473,0.04940029329802239
0.7010000000000001,0.0034,-0.024,0.03358674908134709,1.1299488823561412,0.08123532352996113,0.0489164831657321
0.702,0.0008,-0.024,0.03359137774733789,1.1427933489067825,0.08124865005477133,0.05044701280618053
0.7030000000000001,-0.0013,-0.023999999999888978,0.03357333545129938,1.1258740227797273,0.08119670396355028,0.048430928289803415
0.704,-0.0307,0.976,0.0335914152673002,1.1299488823561412,0.08124875807956931,0.0489164831657321
0.7050000000000001,-0.0426,-0.024,0.03361345531510405,1.146808091998511,0.08131221421238585,0.05092540428133053
0.706,-0.0245,1.976,0.03353763138643423,1.1420862320512195,0.08109390736790142,0.05036275369721459
0.7070000000000001,-0.0082,-1.024,0.033583073966579245,1.1420862320512195,0.08122474240178483,0.05036275369721459
0.708,0.0005,-1.024,0.033631746958423775,1.1373447687524827,0.08136487820650508,0.04979776720367642
0.7090000000000001,0.003,-0.024,0.033631143893543436,1.1373447687524827,0.08136314190513748,0.04979776720367642
0.71,-0.0089,-2.024,0.03362783408147393,1.1373447687524827,0.08135361253042152,0.04979776720367642
0.7110000000000001,-0.0068,-1.024,0.03362125343677136,1.1420862320512193,0.08133466600780137,0.05036275369721456
0.712,0.0153,-0.024,0.03367741296072779,1.1427933489067823,0.08149635650152486,0.050447012806180504
0.7130000000000001,0.0066,0.976,0.03374595762672787,1.1306635899340347,0.08169370541239278,0.04900164677512812
0.714,0.0254,-0.024,0.03385516209496044,1.1313778460210127,0.08200811912428663,0.049086756585463985
0.7150000000000001,0.0373,-1.024,0.0338599096324854,1.1320916514716346,0.08202178789553505,0.04917181269856788
0.716,0.0307,-0.024,0.03391633140522341,1.1320916514716348,0.08218423343723587,0.04917181269856791
0.7170000000000001,0.025,-1.024,0.033887516516278006,1.1320916514716348,0.08210127166527029,0.04917181269856791
0.718,0.0122,-0.024,0.033932602245290815,1.1361442113127453,0.08223107927883942,0.04965471036754124
0.7190000000000001,0.0043,0.976,0.033966584397095656,1.1313778460210129,0.08232891826528406,0.04908675658546401
0.72,-0.0124,-1.024,0.03402086774830522,1.1273081517045196,0.08248520701632206,0.04860181719507364
0.7210000000000001,-0.0237,0.976,0.0341883289028509,1.108696528376829,0.08296734922213918,0.04638408078324348
0.722,-0.022,0.976,0.034365683229049496,1.108696528376829,0.08347797514178357,0.04638408078324348
0.7230000000000001,0.0019,1.976,0.03323209720855973,1.0897670921670402,0.08021423516647307,0.0441284742088612
0.724,0.0182,-0.024,0.03247222097838531,1.1038116477019617,0.07802645375078751,0.04580200486491233
0.7250000000000001,0.021,-0.024,0.03231837733292707,1.1038116477019615,0.07758351810536325,0.04580200486491231
0.726,0.0616,-2.024,0.032467822528715856,1.08976709216704,0.07801379004838106,0.04412847420886118
0.7270000000000001,0.0909,0.976,0.032588094385480784,1.0847969748934094,0.07836006819554708,0.04353624161019273
0.728,0.0644,-1.024,0.03240773130607037,1.0847969748934094,0.07784077968836567,0.04353624161019273
0.7290000000000001,0.0404,-0.024,0.0315875206368613,1.0847969748934094,0.07547928766139339,0.04353624161019273
0.73,-0.0166,-0.024,0.030199248482939898,1.0712573524462765,0.0714822735456,0.041922878112836494
0.7310000000000001,-0.0554,1.976,0.028891065520031588,1.0669583654494301,0.06771584651325242,0.04141061651001833
0.732,-0.0764,-0.024,0.02840655465111365,1.0720111902563485,0.0663208773950935,0.0420127044289281
0.7330000000000001,-0.0825,1.976,0.028475748460506857,1.0669583654494301,0.0665200952732948,0.04141061651001833
0.734,-0.0883,1.976,0.028616132740563165,1.0626419867645138,0.06692427967434007,0.04089628253665963
0.7350000000000001,-0.0727,1.976,0.02877943110982452,1.061881497705938,0.06739443668583094,0.04080566366659619
0.736,-0.0198,1.976,0.028633684603929968,1.061881497705938,0.06697481374681097,0.04080566366659619
0.7370000000000001,0.0013,0.976,0.028598531792593775,1.0421020287407463,0.06687360428098418,0.03844876831370631
0.738,0.0075,-1.024,0.02894091646798582,1.0369034669983823,0.06785937380514251,0.03782931457438445
0.7390000000000001,0.025,-1.024,0.029215275787646856,1.0369034669983834,0.06864928957950062,0.037829314574384584
0.74,0.0302,1.976,0.02938953270417239,1.0421020287407472,0.06915099765825146,0.03844876831370642
0.7410000000000001,0.0064,0.976,0.02944848970468528,1.0272140964148033,0.06932074244684296,0.036674741995057186
0.742,0.0021,0.976,0.029471289595707308,1.0227299928649762,0.06938638626602942,0.0361404221487022
0.7430000000000001,-0.0178,-0.024,0.02949475177958995,1.0384604728166291,0.06945393691155764,0.03801484532770783
0.744,-0.0141,-1.024,0.029625519342905478,1.0384604728166293,0.06983043354803031,0.03801484532770786
0.7450000000000001,-0.0043,-1.024,0.029829548428433262,1.033243589464859,0.07041785953117305,0.03739320840964934
0.746,-0.0014,-0.024,0.030063639403992523,1.0384604728166302,0.07109183756282,0.03801484532770796
0.7470000000000001,-0.0149,-0.024,0.030373680621571607,1.0516542389519492,0.07198448611133473,0.039586997044529726
0.748,-0.0081,-0.024,0.03102700140124636,1.0472747856880327,0.07386548067794403,0.03906514718778747
0.7490000000000001,-0.0017,-2.024,0.03163025477344006,1.0332435894648642,0.07560232473784059,0.03739320840964995
0.75,0.004,-0.024,0.031966098514289866,1.0376822619366313,0.0765692620700386,0.03792211474885038
0.7510000000000001,0.0057,1.976,0.03213875128173682,1.0524221183395184,0.07706635159723756,0.03967849653641834
0.752,0.007,-0.024,0.0321801924046375,1.0954523405731442,0.07718566592097478,0.04480592088712906
0.7530000000000001,0.0112,0.976,0.03218027821686609,1.1142852001762416,0.0771859129854196,0.04705001952083254
0.754,0.0122,1.976,0.03230977867297376,1.1184022840192582,0.07755876145724262,0.047540605784505266
0.7550000000000001,0.0158,-0.024,0.032560921417174635,1.1184022840192582,0.07828183372431542,0.047540605784505266
0.756,0.0234,0.976,0.03242659216106887,1.1232237120590922,0.07789508251613038,0.048115120770796126
0.7570000000000001,0.0187,-0.024,0.03235833671289617,1.106005056135113,0.07769856630059188,0.046063368511842444
0.758,0.0049,-0.024,0.03236132111232948,1.1011082352630555,0.07770715877046777,0.04547986981541147
0.7590000000000001,0.0067,-1.024,0.03245186564897786,1.096189539875202,0.07796784813895312,0.04489376458061907
0.76,0.0085,-1.024,0.032735865592602095,1.1011082352630555,0.07878552050985256,0.04547986981541147
0.7610000000000001,0.0234,-1.024,0.03292362845729447,1.08702875184229,0.07932611395075487,0.043802177198694135
0.762,0.0216,-1.024,0.03365323486104725,1.0820460567367238,0.08142674464232044,0.043208445842213186
0.7630000000000001,0.0272,-1.024,0.035173640458154354,1.099639937449921,0.08580418793843689,0.045304909390613164
0.764,0.006,-1.024,0.035743853988574555,1.0954523405731442,0.08744590604368599,0.04480592088712906
0.7650000000000001,-0.0206,-0.024,0.03575601248364228,1.099639937449921,0.08748091191503135,0.045304909390613164
0.766,-0.0023,-0.024,0.03556261346021836,1.0989050528458948,0.08692409124811633,0.04521734151347815
0.7670000000000001,-0.018499999999999333,0.976,0.035590300508397975,1.103079542344035,0.08700380582143394,0.04571476815906548
0.768,-0.0155,-0.024,0.035548553602410944,1.1023469507706258,0.08688361110885576,0.045627473516425036
0.7690000000000001,0.01980000000000313,-0.024,0.03592190446916742,1.1023469507706256,0.08795853628138343,0.04562747351642501
0.77,0.0339,-0.024,0.036081533660057695,1.1023469507706258,0.08841812925634794,0.045627473516425036
0.7710000000000001,0.046999999999988495,-1.024,0.03617076646667543,1.1016138720117268,0.08867504198533661,0.04554012082140617
0.772,-0.0048,-0.024,0.036167142029245494,1.101613872011726,0.0886646067637352,0.045540120821406065
0.7730000000000001,-0.020100000000004642,-2.024,0.03614669992092078,1.0974338073164054,0.08860575130423494,0.04504202984269892
0.774,-0.041,-1.024,0.036750501248115394,1.098905052845889,0.09034417299706701,0.045217341513477456
0.7750000000000001,-0.03489999999999871,-1.024,0.03741219785987436,1.098905052845889,0.09224928266169766,0.045217341513477456
0.776,-0.0291,-0.024,0.03735577363422375,1.103079542344027,0.09208683005774593,0.04571476815906453
0.7770000000000001,-0.04469999999999465,0.976,0.03687350870567209,1.0890255452952398,0.09069832729081495,0.04404011246471266
0.778,-0.0206,0.976,0.03576241062950486,1.0897670921670461,0.08749933300001485,0.044128474208861915
0.7790000000000001,-0.0075999999999973354,0.976,0.03518212271487302,1.0847969748934156,0.08582860944667108,0.04353624161019347
0.78,0.0044,-0.024,0.03499620881166831,1.0890255452952387,0.0852933394037386,0.044040112464712525
0.7810000000000001,0.015200000000003619,-1.024,0.03517499697986657,1.0932377599924357,0.0858080935389467,0.04454203439510758
0.782,0.0315,-0.024,0.03521690428283945,1.079803981426997,0.08592875005508027,0.04294128311465849
0.7830000000000001,0.028700000000000576,-0.024,0.03461798050437501,1.0974338073163952,0.08420437145248084,0.04504202984269771
0.784,0.0313,0.976,0.033622016879008405,1.079803981426993,0.08133686405620957,0.04294128311465801
0.7850000000000001,0.004499999999991162,-0.024,0.03244109931693361,1.0662009551383356,0.07793685048403753,0.04132036449943144
0.786,-0.0353,-0.024,0.031617413499665764,1.048045873806355,0.07556535305876769,0.03915702902778735
0.7870000000000001,-0.05079999999999891,-0.024,0.03155518137710161,1.0295707020244669,0.07538617877248521,0.036955552001624335
0.788,-0.0459,0.976,0.03155689948482122,1.0295707020244669,0.07539112542562403,0.036955552001624335
0.7890000000000001,-0.032699999999997315,-1.024,0.03160685589817777,1.0295707020244669,0.07553495636597427,0.036955552001624335
0.79,-0.0206,-1.024,0.031585267951781126,1.0243085433768675,0.07547280189126651,0.03632852013921579
0.7910000000000001,0.012100000000000976,-0.024,0.0315374840172215,1.0099583310548774,0.07533522579683612,0.034618567824813325
0.792,0.0165,-2.024,0.03154137591572691,1.0258846649424553,0.0753464310732795,0.03651632869970145
0.7930000000000001,0.028600000000002422,-0.024,0.031546159062329784,1.0258846649424553,0.07536020236764394,0.03651632869970145
0.794,0.0395,-0.024,0.03153469323048348,1.0303550394557113,0.07532719076281594,0.03704901261222266
0.7950000000000002,0.042800000000000664,-1.024,0.031519435802207355,1.02509690707731,0.0752832626641228,0.03642246051472484
0.796,0.0458,1.976,0.03151663029828945,1.0250969070773097,0.07527518525744854,0.036422460514724815
0.7970000000000002,0.06469999999999952,-0.024,0.031523154396467176,1.030355039455711,0.07529396897534962,0.03704901261222263
0.798,0.0626,0.976,0.0314971224516079,1.0303550394557113,0.07521901965740056,0.03704901261222266
0.7990000000000002,0.051399999999995984,0.976,0.031507153350210516,1.0303550394557113,0.07524789990483297,0.03704901261222266
0.8,0.0333,-2.024,0.031531348373167976,1.015294867956825,0.07531756048832859,0.035254462501604696
0.8010000000000002,0.016699999999996537,-3.024,0.03155676378540751,1.0206035015282773,0.07539073472955586,0.03588703225445143
0.802,0.0011,-2.024,0.03155958989298318,1.006200450091379,0.07539887145681123,0.0341707837010247
0.8029999999999999,-0.0289,0.976,0.0315556501090592,1.0115568121447294,0.07538752831208788,0.034809040716627784
0.804,-0.0507,0.976,0.03153849940639483,1.0258846649424553,0.07533814923288384,0.03651632869970145
0.8049999999999999,-0.0307,-1.024,0.031516705067574334,1.0070029903772486,0.0752754005278379,0.034266413339697085
0.806,-0.0126,-0.024,0.031480541759541465,1.0070029903772486,0.07517128171203304,0.034266413339697085
0.8069999999999999,-0.0093,-0.024,0.03139423037018142,1.0024284817686668,0.07492278011913472,0.03372132094615028
0.808,-0.0242,-0.024,0.03134138412649218,1.0070029903772486,0.07477062898551448,0.034266413339697085
0.8089999999999999,-0.0431,-1.024,0.03134737876673295,1.0123551062058385,0.07478788832590663,0.03490416438077563
0.81,-0.0362,-1.024,0.03134570200313458,1.0123551062058382,0.07478306070781128,0.0349041643807756
0.8109999999999999,-0.07,-0.024,0.03134282630083037,1.0258846649424553,0.07477478119095267,0.03651632869970145
0.812,-0.1034,1.976,0.03125575825046269,1.0206035015282773,0.07452410107367795,0.03588703225445143
0.813,-0.0639,-0.023999999999888978,0.031182183864797108,1.0198116642141104,0.0743122709528796,0.03579267796772669
0.8140000000000001,-0.027,0.976,0.031073449284655212,1.0198116642141102,0.0739992101092443,0.03579267796772667
0.815,-0.0031,0.976,0.03106918993124108,1.0198116642141102,0.07398694688285001,0.03579267796772667
0.8160000000000001,-0.0337,0.976,0.031002750332680015,1.0250969070773097,0.07379565873193082,0.036422460514724815
0.817,0.0181,0.975999999999889,0.031002118941781266,1.0295707020244667,0.07379384087631241,0.03695555200162431
0.8180000000000001,0.0531,-0.023999999999888978,0.03095030909360246,1.0250969070773097,0.07364467365868664,0.036422460514724815
0.819,0.0342,0.976,0.030917888120228495,1.0250969070773097,0.07355132950577147,0.036422460514724815
0.8200000000000001,0.0283,0.976,0.03085877805357069,1.0451982327597449,0.07338114402005862,0.038817707888212524
0.821,0.0232,0.975999999999889,0.030675035018096646,1.0634019319615076,0.07285212418457897,0.040986836600896526
0.8220000000000001,0.0184,-0.024000000000222045,0.030351727879958972,1.0583080035921268,0.0719212813442736,0.04037985083586535
0.823,0.0664,-2.023999999999778,0.030379111344062182,1.062641986764517,0.07200012185998278,0.04089628253666001
0.8240000000000001,0.0724,-0.023999999999888978,0.030348801396214962,1.0428769415277206,0.07191285562111736,0.03854110589616259
0.825,-0.0042,0.9759999999997779,0.030076423413482316,1.0376822619366197,0.07112864437065144,0.037922114748849
0.8260000000000001,-0.0145,-1.024,0.029976746696858753,1.0324614464015525,0.07084166228127153,0.03730000927703125
0.827,0.0137,-1.023999999999889,0.029882873708663295,1.0324614464015525,0.07057138987261657,0.03730000927703125
0.8280000000000001,0.0052,-0.023999999999888978,0.02955032737325543,1.0280002318763841,0.06961394619485779,0.036768416856571534
0.829,-0.018,0.976,0.02948614084575578,1.023519572441198,0.06942914492535514,0.03623450740636048
0.8300000000000001,-0.0391,0.976,0.029476415098968967,1.0190192115963892,0.06940114324925459,0.0356982503622445
0.831,-0.058,0.976000000000111,0.02956411253168587,1.0190192115963892,0.06965363543927523,0.0356982503622445
0.8320000000000001,-0.0407,1.975999999999778,0.02955542272229722,1.0137022813283063,0.06962861636020498,0.03506469198600411
0.833,-0.0038,-0.024,0.029391268649406364,1.0137022813283063,0.06915599566788871,0.03506469198600411
0.8340000000000001,0.0008,0.976,0.029263823918587156,1.0182261422385006,0.06878906589361572,0.035603749266819924
0.835,-0.0036,-0.024,0.029137152511953538,1.019019211596389,0.06842436261915197,0.03569825036224447
0.8360000000000001,0.0003,-0.024,0.029133735354207574,1.019019211596389,0.06841452418242476,0.03569825036224447
0.837,-0.0035,0.976,0.028949893065682287,1.0243085433768673,0.06788521858464286,0.03632852013921576
0.8380000000000001,0.0193,-1.024,0.028791151517349987,1.0287857666212756,0.0674281812467874,0.03686202013747996
0.839,0.0221,-0.024,0.028907424991033374,1.0287857666212759,0.06776294753471739,0.03686202013747999
0.8400000000000001,0.0247,0.976,0.028851274358158378,1.0421020287407494,0.0676012826395611,0.03844876831370669
0.841,0.0081,-2.024,0.02877848669712898,1.0413265392954116,0.06739171760019305,0.038356362017402765
0.8420000000000001,0.0059,0.976,0.02878955157518374,1.0413265392954116,0.0674235748074773,0.038356362017402765
0.843,0.0157,0.976,0.028744742745570765,1.021149002142357,0.06729456442290008,0.035952033385906766
0.8440000000000001,0.0102,-0.024,0.02863410639021917,1.0256400178152265,0.06697602812379536,0.03648717687169847
0.845,-0.001,-1.024,0.028447287403968975,1.044184739056931,0.06643815223034678,0.03869694131947659
0.8460000000000001,0.0066,-1.024,0.028133999925815296,1.0434107975360252,0.06553615728004508,0.03860471947180001
0.847,0.0077,-0.024,0.028095320712655088,1.029326930983095,0.06542479484973743,0.03692650456685298
0.8480000000000001,0.0114,-0.024,0.02740984109144751,1.0478064010028048,0.06345121084150375,0.03912849376534809
0.849,0.0125,-1.024,0.026693620194426962,1.0434107975360252,0.06138911874570607,0.03860471947180001
0.8500000000000001,0.0133,-1.024,0.026200580031696636,1.0434107975360252,0.05996959269346937,0.03860471947180001
0.851,0.0071,0.976,0.02599394504265105,1.0285418095451688,0.05937466397888047,0.03683295053505572
0.8520000000000001,0.0049,-1.024,0.02599919819253681,0.982585741136879,0.05938978847315665,0.03135688622517969
0.853,0.0041,1.976,0.026277684585874414,0.9611758745520421,0.06019158662352841,0.02880571484901201
0.8540000000000001,0.0033,-0.024,0.02643271502459455,0.9620159763151078,0.06063793919942046,0.028905820263611798
0.855,0.0046,-0.024,0.026801891934598334,0.9572265025153783,0.06170084701352739,0.028335112902295092
0.8560000000000001,0.0019,-0.024,0.027554790501838733,0.9731857045549617,0.06386853884003281,0.030236790302690348
0.857,-0.0041,0.976,0.02806350038084004,0.9787227666619647,0.06533318002113576,0.03089657929761352
0.8580000000000001,-0.0078,-1.024,0.02813390619520464,0.9787227666619647,0.06553588741755968,0.03089657929761352
0.859,-0.0058,-1.024,0.028029382349976067,0.9834075531284763,0.06523494982140067,0.031454812254809374
0.8600000000000001,-0.0073,1.976,0.028332329124189804,0.982585741136879,0.06610717255485105,0.03135688622517969
0.861,0.0011,-0.024,0.029363851883168226,0.9965195549453956,0.06907705927104917,0.03301722104362798
0.8620000000000001,-0.0024,0.976,0.029183404105091872,0.9965195549453956,0.06855752690551302,0.03301722104362798
0.863,-0.0078,-1.024,0.027597296979885555,0.9817632412251351,0.063990920458281,0.03125887822389548
0.8640000000000001,-0.003,-1.024,0.026862479635612287,0.986433587926004,0.06187528679863162,0.03181539055772171
0.865,-0.0036,-1.024,0.02672847621073843,0.986433587926004,0.06148947370047753,0.03181539055772171
0.8660000000000001,-0.0012,0.976,0.026795731825932693,0.986433587926004,0.06168311126825451,0.03181539055772171
0.867,-0.0047,-0.024,0.02658754524253254,0.987252196884462,0.0610837153139247,0.03191293491816025
0.8680000000000001,0.0064,-0.024,0.02653773884300506,0.988070127631549,0.06094031628268586,0.03201039846382913
0.869,0.0051,-2.024,0.026512047266593217,0.9880701276315491,0.0608663469292813,0.032010398463829144
0.8700000000000001,0.0041,1.976,0.02751248200440879,0.9888873818501543,0.06374672723344846,0.03210778139525921
0.871,0.0153,-0.024,0.028401753635897135,0.9897039612162214,0.06630705465469182,0.032205083912153674
0.8720000000000001,0.0138,0.976,0.028625397082389793,0.9897039612162224,0.06695095290620601,0.03220508391215379
0.873,0.0149,-0.024,0.028572134745575645,0.9943370114879403,0.06679760378695375,0.03275715205282701
0.8740000000000001,-0.0061,-0.024,0.02779062222224279,0.9943370114879448,0.064547528700014,0.03275715205282756
0.875,-0.0249,-0.024,0.026837261548724175,1.0150476684764143,0.061802680682474666,0.035225006538573425
0.8760000000000001,-0.0169,-0.024,0.027582635628932713,1.0293269309831037,0.06394870854287985,0.03692650456685401
0.877,-0.0049,-0.024,0.029982431831530796,1.0426362815239811,0.07085803051531711,0.038512429168519484
0.8780000000000001,-0.0068,-0.024,0.03108883201216992,1.055777865013856,0.07404349896056357,0.04007836287034979
0.879,-0.0009,-0.024,0.031326114477962845,1.0738022273159007,0.07472666570314038,0.04222612203533304
0.8800000000000001,0.0232,-0.024,0.03127487303922059,1.0738022273159007,0.07457913500940151,0.04222612203533304
0.881,0.0134,-0.024,0.031037177909622703,1.087310160421706,0.07389478015464594,0.04383570947270289
0.8820000000000001,0.0048,-0.024,0.03049079138960118,1.0873101604217048,0.07232166307739532,0.04383570947270276
0.883,-0.0086,0.976,0.03022489669461337,1.069513469677175,0.07155611804634443,0.04171507934929471
0.8840000000000001,-0.0154,-1.024,0.030223740409473187,1.069513469677175,0.07155278895268355,0.04171507934929471
0.885,0.0003,-0.024,0.03025409275999438,1.069513469677175,0.07164017727430193,0.04171507934929471
0.8860000000000001,-0.0134,-1.024,0.030269685574566742,1.074554279807783,0.07168507099328536,0.042315735615271195
0.887,-0.0408,0.976,0.030298749002522645,1.078822998374112,0.07176874834103375,0.042824390471955215
0.8880000000000001,-0.0527,0.976,0.03033823230921935,1.079571553295814,0.07188242586007003,0.042913587286058104
0.889,-0.0273,1.976,0.030307814920034155,1.093747035249852,0.07179485028377154,0.04460271896099044
0.8900000000000001,0.0025,0.976,0.03026845988819533,1.093747035249852,0.07168154208455213,0.04460271896099044
0.891,0.0145,-0.024,0.030200084106175706,1.0895367894431809,0.07148467941238884,0.04410103164098554
0.8920000000000001,0.0037000000000021764,-0.024,0.03021422514041893,1.0880528763901558,0.07152539326905047,0.04392421052486143
0.893,0.0135,0.976,0.030218006177718262,1.083820511087147,0.0715362793618206,0.043419887474937885
0.8940000000000001,0.022199999999993406,1.976,0.030177346881114876,1.083820511087147,0.07141921601656591,0.043419887474937885
0.895,-0.0075,0.976,0.030167270716649063,1.0880528763901567,0.07139020544289046,0.043924210524861534
0.8960000000000001,-0.04329999999999469,0.976,0.030183238534299245,1.100652327723857,0.07143617884397462,0.04542554447622388
0.897,-0.0194,1.976,0.030185833417486898,1.0957315857871537,0.07144364984647264,0.0448391953773782
0.8980000000000001,-0.006299999999997358,-0.024,0.030176837539267035,1.100652327723855,0.07141774955586523,0.045425544476223635
0.899,0.0056,0.976,0.03017358041607037,1.104820215280126,0.07140837187919198,0.045922184443152485
0.9000000000000001,-0.005299999999994937,-1.024,0.030185944765135603,1.0999181195249539,0.07144397043067681,0.045338057198628434
0.901,0.0175,-0.024,0.030166261385377147,1.0949940781698306,0.07138729944832019,0.04475131494544909
0.9020000000000001,0.03820000000000055,-0.024,0.030170724593413266,1.0907886457326692,0.07140014959839465,0.04425020118018669
0.903,0.0407,-1.024,0.030192146253239686,1.0907886457326683,0.07146182531267595,0.044250201180186584
0.9040000000000001,0.0674000000000008,-0.024,0.030192364841415572,1.0730496477441924,0.07146245465615308,0.04213644564926016
0.905,0.071,-2.024,0.030191210048344436,1.0730496477441924,0.07145912985835093,0.04213644564926016
0.9060000000000001,0.05469999999999274,-1.024,0.030191363088722237,1.0780739236973709,0.07145957048128543,0.042735131724529515
0.907,0.022,-0.024,0.03019095919265726,1.0823287608319059,0.07145840761255796,0.04324213248816663
0.9080000000000001,0.00019999999998669953,0.976,0.030188260393122654,1.0780739236973698,0.07145063742152945,0.042735131724529384
0.909,-0.0597,0.976,0.030180535191331574,1.0907886457326592,0.07142839557181786,0.044250201180185494
0.9100000000000001,-0.08519999999999485,1.976,0.030177386876605972,1.090788645732659,0.07141933116872973,0.04425020118018547
0.911,-0.062,-0.024,0.03017241583401366,1.0780739236973635,0.07140501889764113,0.04273513172452864
0.9120000000000001,-0.04109999999999291,0.976,0.030172493420402787,1.0957315857871406,0.07140524227883598,0.04483919537737664
0.913,-0.0092,0.976,0.030178888111369557,1.0964685973415875,0.07142365341673003,0.04492701669910975
0.9140000000000001,-0.003500000000003486,0.976,0.03017536913139005,1.0915289948159486,0.07141352182069423,0.04433842019743978
0.915,-0.0192,0.976,0.030177099406841084,1.0915289948159486,0.07141850350629705,0.04433842019743978
0.9160000000000001,-0.005099999999997114,-1.024,0.03021536714974173,1.0865669367745376,0.07152868126079669,0.04374714792621995
0.917,0.0079,-1.024,0.030248604689455654,1.0865669367745376,0.07162437641324612,0.04374714792621995
0.9180000000000001,0.05180000000000651,-0.024,0.030263230318229938,1.0865669367745376,0.07166648547989997,0.04374714792621995
0.919,0.0811,-1.024,0.030270904788604294,1.0865669367745376,0.07168858126733682,0.04374714792621995
0.9200000000000002,0.07599999999999259,-1.024,0.03026709651766698,1.0672450661525568,0.07167761676541966,0.04144477938648679
0.921,0.0426,0.976,0.030266019937605238,1.0542464353859184,0.07167451715293272,0.03989587974202537
0.9220000000000002,-0.005699999999998624,0.976,0.03023541412189795,1.0593598939719346,0.0715863990724383,0.040505192701831595
0.923,0.0005,-2.024,0.030208813705456763,1.0550124280730262,0.07150981305167783,0.03998715441718318
0.9240000000000002,-0.005400000000012967,-2.024,0.03021765910873455,1.0601221919292396,0.07153528010557021,0.04059602711787438
0.925,-0.0638,1.976,0.030392993007127552,1.0652074447041615,0.07204008895365835,0.04120197911054799
0.9260000000000002,-0.1183999999999922,1.976,0.030382925076905362,1.1077411320114958,0.07201110208742953,0.04627023701637671
0.927,-0.0833,1.976,0.030337594721819815,1.1126087605184598,0.07188059016392875,0.046850257189205775
0.9280000000000002,-0.03879999999999092,1.976,0.030337276335376594,1.11260876051846,0.0718796734884021,0.0468502571892058
0.929,0.0021,0.976,0.03037928983083649,1.1167320249505297,0.07200063574636621,0.047341579923692916
0.9300000000000002,0.007099999999998957,1.976,0.03045463595917392,1.1208401211224537,0.07221756694223037,0.04783109522836927
0.931,0.0024,0.976,0.030740734562202734,1.1249332152112335,0.07304128162352311,0.04831882290466649
0.9319999999999999,0.0067,-0.024,0.030895218152250607,1.1290114703815766,0.07348605975174215,0.04880478239507527
0.933,0.0028,-0.024,0.031029511344222587,1.1290114703815766,0.07387270712664681,0.04880478239507527
0.9339999999999999,0.0136,0.976,0.03119499791949105,1.1290114703815766,0.07434916426471876,0.04880478239507527
0.935,0.0104,-1.024,0.0311935284652517,1.1242148646147925,0.0743449335169359,0.048233225198000204
0.9359999999999999,0.0133,0.976,0.031198069230183978,1.1282957162856477,0.07435800696329119,0.04871949408397474
0.937,0.0159,-1.024,0.031170867263887507,1.1234960547132462,0.07427968900311513,0.04814757276114525
0.938,0.0137,-2.023999999999778,0.030902378052218474,1.1234960547132462,0.07350667402478538,0.04814757276114525
0.9390000000000001,0.0158,-0.024,0.03045053939762265,1.1364134575601943,0.07220577241455048,0.049686793394164055
0.94,0.014,-0.023999999999777956,0.0303602719344492,1.1193977056384128,0.07194588077624167,0.04765921890766243
0.9410000000000001,0.0123,1.975999999999778,0.03036988327099911,1.1152842964109448,0.07197355305055265,0.04716907050631683
0.942,0.0076,-0.023999999999888978,0.03039340671398575,1.1201191455613861,0.07204128006892156,0.04774518473439101
0.9430000000000001,0.0,0.976,0.030473411909555,1.1249332152112335,0.07227162531867956,0.04831882290466649
0.944,-0.0065,0.976000000000111,0.03046956620405282,1.1256511073819055,0.07226055303783464,0.04840436598592467
0.9450000000000001,0.0099,1.975999999999778,0.030428663469235524,1.108470158558514,0.07214278880264668,0.046357106855189074
0.946,0.0077,-0.024000000000111023,0.03042876512884872,1.1043160466311492,0.07214308149375037,0.04586210837397503
0.9470000000000001,-0.0021,-1.023999999999778,0.030376215562866182,1.1001462490411738,0.07199178453341179,0.04536524080995702
0.948,0.0105,0.975999999999889,0.030365471714788254,1.0825605969847563,0.07196085161272753,0.04326975777741208
0.9490000000000001,0.0152,-0.024,0.03035969288885573,1.0825605969847563,0.07194421362949076,0.04326975777741208
0.95,0.0076,-0.024,0.030382963821490205,1.082560596984756,0.07201121363807332,0.04326975777741206
0.9510000000000001,0.0088,-0.024000000000111023,0.03039418771486959,1.0775572410371888,0.07204352867093258,0.04267356450233335
0.952,0.0124,-1.023999999999889,0.030344185359292068,1.096697444410393,0.07189956545701827,0.044954285813055085
0.9530000000000001,-0.0042,-0.024,0.030117296765865317,1.096697444410393,0.07124632401003136,0.044954285813055085
0.954,-0.0019,-0.024000000000111023,0.030005433920927416,1.096697444410393,0.07092425648963442,0.044954285813055085
0.9550000000000001,0.0047,-1.023999999999778,0.029932190495026104,1.1016138720116955,0.07071337924457143,0.04554012082140244
0.956,-0.001,0.975999999999889,0.029181927622351233,1.086797868838385,0.06855327592177082,0.043774665485415955
0.9570000000000001,0.0009,-0.023999999999777956,0.028665855414460886,1.081814110316251,0.06706743764872053,0.043180807413623734
0.958,-0.0038,1.975999999999667,0.02858303805866641,1.0860542946128542,0.06682899582792323,0.04368606216447916
0.9590000000000001,0.0039,-1.024,0.028592428924065712,1.0818141103162493,0.06685603333743065,0.043180807413623526
0.96,0.0049,-1.024,0.027984538983725975,1.0775572410371763,0.06510584000140246,0.04267356450233187
0.9610000000000001,0.0013,1.976,0.026663433297703234,1.0595967556463537,0.06130220678685425,0.04053341682557821
0.962,0.0067,-1.024,0.02598412665625874,1.064684518065604,0.05934639558143871,0.04113966786414963
0.9630000000000001,-0.0063,-0.024,0.025668312630585194,1.060358883322482,0.058437126375817106,0.04062423095114127
0.964,-0.0044,-1.024,0.025788957737913298,1.060358883322482,0.058784479159368755,0.04062423095114127
0.9650000000000001,-0.0156,-0.024,0.02586145871111655,1.060358883322482,0.058993218787606355,0.04062423095114127
0.966,-0.0142,0.976,0.025881592785358055,1.056015530128802,0.059051187377356144,0.0401066827310066
0.9670000000000001,-0.0105,-0.024,0.025876530133574112,1.070502983791044,0.0590366113516204,0.0418329885419379
0.968,-0.0093,-0.024,0.02586670104422938,1.0697480831676665,0.05900831213900182,0.041743035582418944
0.9690000000000001,-0.0016,-0.024,0.025390505117978326,1.0697480831676665,0.057637282810399044,0.041743035582418944
0.97,0.0032,-1.024,0.02421775772564959,1.0840520282132142,0.05426079220792079,0.04344747474937394
0.9710000000000001,-0.0069,-1.024,0.02309073958896012,1.0833065692630854,0.051015962014951274,0.04335864684714761
0.972,0.0054,-0.024,0.02274491124446563,1.0790555877436854,0.05002027772446006,0.04285210551350885
0.9730000000000001,0.0166,-1.024,0.02275824899188617,1.0798039814269518,0.05005867881502591,0.04294128311465309
0.974,0.0332,-1.024,0.02275871432529911,1.0646845180655853,0.05006001856978136,0.041139667864147404
0.9750000000000001,0.0237,-3.024,0.022825149141888466,1.0501167956833344,0.05025129295278885,0.039403797338738486
0.976,0.0034,-1.024,0.02205359048602867,1.036124086684866,0.04802987633075036,0.03773644464737615
0.9770000000000001,-0.0047,-0.024,0.018605765199969673,1.021939803237383,0.03810314381058813,0.036046264198129625
0.978,0.0174,0.976,0.016646468918982287,1.002983867420353,0.03246207777752883,0.033787499965608515
0.9790000000000001,-0.0214,0.976,0.016204307841361846,0.9836627039641767,0.031189039156310917,0.031485215690817005
0.98,-0.0478,0.976,0.01622948374371862,1.0000079152022028,0.03126152381777562,0.0334328894365936
0.9810000000000001,-0.0336,0.976,0.016229483743718624,0.9861233927678608,0.03126152381777563,0.03177842811307755
0.982,-0.0292,-0.024,0.016360136961525256,0.9861233927678608,0.031637691238819,0.03177842811307755
0.9830000000000001,-0.0332,0.976,0.016501617978760794,0.99158821301804,0.03204503328728543,0.03242960886392038
0.984,-0.0151,-0.024,0.016672506768322493,0.9915882130180401,0.03253704409523803,0.03242960886392039
0.9850000000000001,-0.0053,0.976,0.017265553149292293,0.9869422590144895,0.03424450091439331,0.03187600313163412
0.986,0.0033,-0.024,0.01740165907861679,1.0008154212099667,0.03463636739332291,0.03352911078411708
0.9870000000000001,0.0007,0.976,0.01737144921434543,0.9962125003050286,0.03454938930794696,0.03298063281892702
0.988,0.0029,1.976,0.01772923676385692,0.9907731866232973,0.0355795056880912,0.03233249139703427
0.9890000000000001,0.0141,-0.024,0.0178789049622065,0.9751018761644235,0.036010419684168155,0.03046511877650467
0.99,-0.008,-0.024,0.01795878349485893,0.9751018761644235,0.03624040025509496,0.03046511877650467
0.9910000000000001,0.0188,-1.024,0.017953910975391354,0.9798039755313638,0.0362263716447563,0.03102541471600997
0.992,0.0224,-1.024,0.01835595407725043,0.9798039755313682,0.03738390545305817,0.0310254147160105
0.9930000000000001,0.0126,-1.024,0.019242522980056857,0.9844836169458385,0.03993645137075248,0.031583034595612215
0.994,0.0156,-0.024,0.019564161816715313,0.9853038459781771,0.040862490956492095,0.031680772001910947
0.9950000000000001,0.0076,-0.024,0.019571857555033163,0.9853038459781761,0.040884647977074126,0.03168077200191083
0.996,0.0395,-0.024,0.019570367529484246,0.9712091351487251,0.04088035800184478,0.03000126490732096
0.9970000000000001,0.0177,-0.024,0.01955535751385385,0.9759299901960288,0.0408371422359854,0.03056379574888387
0.998,-0.0022,-0.024,0.019575034621682055,0.9759299901960312,0.04089379516064801,0.03056379574888416
0.9990000000000001,-0.0131,0.976,0.019557583086999737,0.9712091351487285,0.040843549947365845,0.030001264907321374
1.0,-0.0098,-0.024,0.019506329278973812,0.990773186623313,0.04069598364086814,0.03233249139703615
1.0010000000000001,-0.0012,-2.023999999999556,0.01949190494447544,0.9962125003050443,0.040654454126328746,0.032980632818928886
1.002,-0.0092,-0.024,0.019491904944475447,0.9962125003050442,0.040654454126328766,0.03298063281892887
1.0030000000000001,-0.0313,-1.024,0.019535440941672703,0.9962125003050453,0.04077979986264642,0.032980632818929004
1.004,-0.064,-1.024,0.019533599915811866,1.0008154212099833,0.040774499312367055,0.03352911078411906
1.0050000000000001,-0.0245,0.9759999999997779,0.01960797162599646,1.005397269192334,0.04098862503302193,0.034075077727733896
1.006,0.0019,-0.024,0.019638317169653006,1.0000079152022217,0.04107599375680136,0.03343288943659586
1.0070000000000001,-0.0029,0.9759999999997779,0.019651133833546358,0.9954012602460425,0.04111289458086126,0.03288396652680021
1.008,-0.0073,-0.024,0.019659707768281614,1.01609022520839,0.0411375800418985,0.035349236219412786
1.0090000000000001,-0.0113,-0.024,0.019668333292102852,1.001622276208134,0.0411624140345506,0.033625254558198314
1.01,0.0067,-0.024,0.019681078611323066,0.9962125003050554,0.041199109448118894,0.03298063281893021
1.0110000000000001,0.0165,-1.023999999999778,0.019693531046593007,0.9907731866233243,0.04123496161111832,0.03233249139703749
1.012,0.0078,-0.024,0.019703290365466728,0.9907731866233243,0.04126305994557573,0.03233249139703749
1.0130000000000001,0.0266,0.976,0.019696325197124588,0.9853038459781952,0.04124300632993288,0.031680772001913104
1.014,0.0197,0.976,0.01971038362720505,0.9899574892221935,0.041283482358583874,0.03223529397391796
1.0150000000000001,0.0218,-0.02400000000044409,0.019717237113963445,0.9844836169458564,0.04130321442858062,0.03158303459561434
1.016,-0.0003,-2.024,0.019660276568278255,0.9891411191546342,0.04113921769025816,0.032138016396756765
1.0170000000000001,-0.0032999999999958254,0.9759999999997779,0.019610671583302534,0.9844836169458564,0.04099639855742342,0.03158303459561434
1.018,0.0155,-0.024,0.019584016893696776,0.9844836169458564,0.040919656277240556,0.03158303459561434
1.0190000000000001,0.027499999999998557,-2.023999999999334,0.019569429769920106,1.0037889794026276,0.04087765807142804,0.03388343604422206
1.02,0.021,0.976,0.01958116199552826,1.0037889794026278,0.0409114366581648,0.03388343604422209
1.0210000000000001,0.015099999999998802,-0.024000000000222045,0.019579646946797254,1.0190192115963674,0.040907074637975285,0.035698250362241904
1.022,0.0097,-1.024,0.01956988327736886,1.0137022813282845,0.04087896377771132,0.03506469198600151
1.0230000000000001,-0.0015000000000037082,0.9759999999995559,0.019583995721467455,1.0137022813282848,0.04091959531966879,0.03506469198600154
1.024,-0.0182,-1.024,0.019514179965660683,1.0287857666212545,0.04071858677773685,0.03686202013747745
1.0250000000000001,-0.024699999999995094,0.976,0.019230199586091536,1.0280002318763626,0.03990097073426868,0.03676841685656897
1.026,-0.0026,0.976,0.01919026164771387,1.0013717015056334,0.03978598427213997,0.033595396408168374
1.0270000000000001,0.006099999999997003,-0.024,0.019241040746444515,0.9959605645526202,0.03993218382951087,0.03295061248799078
1.028,-0.0074,-0.024,0.01924358360789706,0.9959605645526203,0.039939505054741545,0.03295061248799079
1.0290000000000001,0.00929999999999951,-2.024,0.019214432989009107,0.9967713494119909,0.03985557667308371,0.03304722453913366
1.03,0.0071,-1.024,0.019095380083884943,0.9975814753057658,0.03951280804449502,0.033143758068807996
1.0310000000000001,0.020800000000000398,0.976,0.018510701599923084,0.9975814753057658,0.03782944347725575,0.033143758068807996
1.032,0.0226,-1.024,0.018237259975277486,0.9975814753057658,0.0370421698648976,0.033143758068807996
1.0330000000000001,0.024000000000005087,-0.024,0.01815853694225839,1.0021781086418295,0.03681551612605641,0.033691486815609684
1.034,0.0469,-0.024,0.018080015171078316,0.9975814753057658,0.0365894418459397,0.033143758068807996
1.0350000000000001,0.024099999999992783,1.976,0.018056053269864997,1.0029838674203795,0.03652045244993377,0.033787499965611666
1.036,-0.0084,-0.024,0.018056351201513467,1.0174324546982114,0.036521310233475074,0.035509174509598375
1.0370000000000001,-0.03879999999999734,-0.024,0.018072323240321892,1.0174324546982114,0.03656729578781681,0.035509174509598375
1.038,-0.0268,-1.024,0.018083778467660065,1.0129050490078237,0.036600276860901775,0.0349696948374646
1.0390000000000001,-0.023099999999997824,-0.024,0.018206179788183004,0.9937767934351098,0.03695268600815723,0.03269039721084189
1.04,-0.0133,0.976,0.018254789891569343,0.9991997566064967,0.037092640748916494,0.03333659032755435
1.0410000000000001,-0.040100000000004014,1.976,0.018359589258820277,1.0045934461436605,0.03739437160842051,0.03397929523674294
1.042,-0.0582,0.976,0.018369008860002208,1.0045934461436605,0.03742149185194263,0.03397929523674294
1.0430000000000001,-0.035299999999994044,-1.024,0.01832359699007835,1.0037889794026278,0.037290745236736436,0.03388343604422209
1.044,-0.0085,0.976,0.018339200284165247,1.0037889794026276,0.03733566912759029,0.03388343604422206
1.0450000000000002,0.009599999999997801,-1.024,0.018576991172306028,1.0037889794026276,0.03802029968350905,0.03388343604422206
1.046,-0.0003,0.976,0.018670831889968018,1.0083573160035362,0.03829047918114694,0.034427792989500335
1.0470000000000002,-0.008999999999999422,-1.024,0.01828651377105433,1.0129050490078235,0.03718397787885247,0.03496969483746457
1.048,-0.0064,-0.024,0.018505389736676127,1.0316787103749474,0.03781414993965991,0.03720673948769102
1.0490000000000002,0.005499999999998556,1.976,0.018878808946294606,1.0361240866848918,0.03888927188007879,0.037736444647379214
1.05,-0.001,-1.024,0.01901903617454727,1.0369034669983643,0.039293004108778534,0.03782931457438231
1.0510000000000002,0.008800000000002044,-0.024,0.01981130195416534,1.0413265392953905,0.04157403920384159,0.038356362017400246
1.052,0.018,-1.024,0.021226915844391674,1.0397738252676294,0.045649773695645136,0.03817134266815294
1.0530000000000002,0.0033000000000030865,0.976,0.02265960348660376,1.0580708534153331,0.04977466571575022,0.040351592334557464
1.054,0.0172,0.976,0.022648681152432484,1.052951134865592,0.0497432189106431,0.03974153344575595
1.0550000000000002,0.011899999999998957,-0.024,0.021805693811470878,1.052951134865592,0.04731614991574813,0.03974153344575595
1.056,0.0072,-0.024,0.021810698375875324,1.0485770981892824,0.04733055870044605,0.03922032902242657
1.0570000000000002,0.0059000000000002445,-2.024,0.02202728865446326,1.0485770981892824,0.047954149974256635,0.03922032902242657
1.058,0.007,0.976,0.02217559028245391,1.0485770981892844,0.048381129438477256,0.039220329022426816
1.059,0.0081,-0.024,0.022521012056284935,1.052951134865596,0.04937564315972789,0.03974153344575643
1.06,-0.0085,-0.024,0.02277202230405056,1.0580708534153374,0.050098333952519516,0.04035159233455797
1.061,-0.0063,1.976,0.02281544315385695,1.0580708534153374,0.05022334816468653,0.04035159233455797
1.062,-0.0041,-0.024,0.022760707625946355,1.0710230695695233,0.05006575753875913,0.04189496127520789
1.063,0.0098,0.976,0.02281957054670732,1.0710230695695235,0.0502352314596426,0.04189496127520791
1.064,-0.0068,-0.024,0.022715463317339472,1.0667231383927311,0.04993549335413928,0.041382587165156574
1.065,0.0045,0.976,0.022665908295419538,1.0667231383927311,0.049792818071369295,0.041382587165156574
1.066,0.0028,-0.024,0.022610456921603742,1.0710230695695233,0.049633166432995784,0.04189496127520789
1.067,-0.0025,-0.024,0.022616810066775996,1.0514155879981506,0.04965145795520305,0.039558559712619526
1.068,0.0055,1.976,0.0226284009026413,1.066723138392733,0.04968482946268204,0.04138258716515678
1.069,0.007,-0.024,0.022597905100543124,1.0717770721632158,0.0495970281255202,0.0419848072266977
1.07,-0.002,-2.024,0.02246385290235619,1.056542747416233,0.049211074602723656,0.04016950524544803
1.071,-0.0031,-0.024,0.022474388487978014,1.057307076483681,0.04924140790900631,0.04026058168588821
1.072,0.0092,-0.024,0.02242463316760389,1.0616451457761933,0.0490981559412207,0.04077750028335054
1.073,0.0013,-2.024,0.022409874339285353,1.074554279807779,0.04905566337594442,0.04231573561527072
1.074,-0.0001,0.976,0.022412039543353524,1.07530580632574,0.04906189727698436,0.0424052865208523
1.075,0.0202,1.976,0.022360283454842526,1.0745542798077827,0.048912884840357745,0.042315735615271174
1.076,0.0144,-0.024,0.022237256113204575,1.0753058063257401,0.04855867329778201,0.04240528652085233
1.077,0.0057,-0.024,0.022243341663214046,1.0753058063257401,0.048576194379092705,0.04240528652085233
