time_sec,bts_raw,diy_raw,bts_rms,diy_rms,bts_norm_rms,diy_norm_rms
0.0,-0.0186,-0.67,0.02178923206505943,0.6795334099713318,0.07438322585982501,0.0
0.001000000000000112,0.022,-0.67,0.021813122709675056,0.6804576137082128,0.07448357858872907,9.388900014953008e-05
0.0020000000000000018,-0.0074,0.33,0.021827762521808527,0.6835121732318022,0.0745450731662875,0.0004041988681175056
0.0030000000000001137,0.0082,-2.67,0.021816386139115167,0.686553142778217,0.07449728663450055,0.0007131281429131417
0.0040000000000000036,0.0517,-0.67,0.021706330462687138,0.6997876167298757,0.07403499741465631,0.00205760607266023
0.0050000000000001155,0.0107,-0.67,0.02169129049814961,0.7127764019650986,0.0739718219956484,0.0033771247136556632
0.006000000000000005,0.0056,0.33,0.021613296639649497,0.7315230305446812,0.0736442085442674,0.005281577317852741
0.007000000000000117,-0.0085,-0.67,0.021618060696143828,0.7343652164419693,0.07366421997876617,0.005570312346165928
0.008000000000000007,-0.0389,-0.67,0.02172654639532379,0.7371964446621038,0.07411991450417266,0.0058579341942236575
0.009000000000000119,-0.0429,-0.6699999999999983,0.021840092624863985,0.7380484447572906,0.07459686580349721,0.005944488093404331
0.010000000000000009,-0.0175,0.33,0.02183857687221972,0.756168798501775,0.07459049887968068,0.007785318018164276
0.01100000000000012,-0.0272,0.33,0.021825986100471137,0.7738649732650914,0.07453761130279413,0.009583055993782452
0.01200000000000001,0.0021,0.33,0.021826863844234583,0.7911654326786169,0.07454129826827194,0.011340593614161778
0.013000000000000123,0.0228,-0.6700000000000018,0.021864667421104825,0.8342229348326995,0.07470009231348498,0.015714765309059135
0.014000000000000012,0.0634,-1.67,0.02193327853902185,0.850296213104495,0.0749882935331217,0.01734763473583405
0.015000000000000124,0.0576,0.33,0.022095136861246797,0.8510349927036219,0.07566817993185372,0.017422686669866464
0.016000000000000014,0.0097,1.33,0.022081795488442774,0.8517731315275583,0.07561213945283984,0.01749767350814178
0.017000000000000126,-0.0222,0.33,0.022056357983726804,0.8525106312407326,0.07550528913315079,0.017572595419747747
0.018000000000000016,-0.0279,-0.67,0.02204642693190254,0.8682454269372427,0.07546357371828916,0.019171078715745016
0.019000000000000128,-0.0228,-0.67,0.02200741168374888,0.8787477522402362,0.07529969004398565,0.020238000199173486
0.020000000000000018,-0.0275,0.33,0.021965912044197566,0.8940208929808241,0.07512537067569264,0.021789584396524075
0.02100000000000013,0.0029,0.33,0.022042103714132674,0.8963479703713374,0.0754454140282585,0.022025990029553896
0.02200000000000002,0.0308,0.33,0.022076636006881444,0.8986690218825849,0.07559046703408598,0.022261783499099946
0.02300000000000013,0.0272,1.33,0.0220956049430707,0.9009840940848998,0.0756701461110479,0.022496969536199157
0.02400000000000002,0.024,-1.67,0.02206316399410393,0.9016813442564933,0.0755338778014468,0.022567802534219628
0.025000000000000133,-0.0148,-1.67,0.022090646926142456,0.9165724148146502,0.07564931994512787,0.024080572576223414
0.026000000000000023,-0.0303,0.33000000000000346,0.022074149937714834,0.9172578156578272,0.07558002429262264,0.024150201811963905
0.027000000000000135,-0.0063,1.33,0.022132053586430243,0.9179427047324782,0.0758232487537279,0.02421977905761467
0.028000000000000025,-0.0019,-0.67,0.02194967108773246,0.9202092892783487,0.07505715048626253,0.02445003927868275
0.029000000000000137,0.0021,-0.67,0.02147308784202952,0.9348052637277596,0.0730552610426869,0.02593283078079047
0.030000000000000027,-0.016,-0.67,0.02139029286162462,0.9370310603153513,0.07270748046343228,0.026158947391020253
0.03100000000000014,-0.0257,-0.67,0.02139095474079794,0.9377015072942566,0.07271026068901079,0.02622705747756365
0.03200000000000003,-0.0228,-0.67,0.021313125342132262,0.9520293387290559,0.07238333805168884,0.027682608579601215
0.03300000000000014,-0.003999999999991851,-1.67,0.020877567059658656,0.9616170508423382,0.07055377409700182,0.028656615357668978
0.03400000000000003,0.0327,0.33,0.020923678530486958,0.9755937153803722,0.07074746547728267,0.030076491740478318
0.03500000000000014,0.03779999999999263,-0.67,0.020900439280536344,0.9777266613897079,0.07064984893374654,0.030293175746610237
0.03600000000000003,0.0046,-1.669999999999993,0.020988840225439058,0.9783692212955566,0.07102117738475373,0.03035845281127556
0.037000000000000144,0.008999999999997357,-0.67,0.021087198394869375,0.9877012827005468,0.0714343311891464,0.03130648827108176
0.038000000000000034,-0.0029,1.33,0.02106580911308874,0.9898081383535352,0.07134448544280851,0.03152052178211911
0.039000000000000146,-0.013700000000002155,-1.67,0.02114253221679236,0.9904428603090136,0.07166676108461394,0.0315850025966784
0.040000000000000036,-0.0234,-0.67,0.021594251125599963,0.9910771757654948,0.07356420780175912,0.03164944211538171
0.04100000000000015,-0.0027999999999970245,0.33,0.021707289886693945,1.0046440729642874,0.07403902747825686,0.03302769061438141
0.04200000000000004,0.0106,1.33,0.02162608422965167,1.006715471344738,0.07369792285685588,0.03323812205399905
0.04300000000000015,0.03280000000000067,-0.67,0.02179780499525785,1.0073395400911587,0.07441923648046574,0.03330152061893426
0.04400000000000004,0.0358,-0.67,0.02167495641113784,1.0206903027118606,0.07390321061106002,0.034657812206676325
0.04500000000000015,0.006199999999999134,-1.67,0.021088263580950388,1.0227292021608727,0.07143880550667696,0.03486494211000178
0.04600000000000004,0.0023,0.33,0.021194426579367622,1.02476404496606,0.07188474352012167,0.03507165990264484
0.04700000000000015,-0.0012999999999992672,-0.67,0.0211762056972977,1.0253771289829954,0.07180820664687382,0.03513394253910332
0.04800000000000004,0.002,-0.67,0.02200633144227136,1.0259898466493804,0.07529515248621403,0.035196187958349286
0.049000000000000155,-0.006499999999995781,0.33,0.02268962001225561,1.0526600771289254,0.07816530830369312,0.03790559192801159
0.050000000000000044,0.0125,0.33,0.022709425718597923,1.0532569234366722,0.07824850223635173,0.03796622499065901
0.051000000000000156,-0.009499999999998024,-0.67,0.022640638405538135,1.059967598813535,0.07795956090845588,0.038647956276001
0.052000000000000046,-0.0006,-0.6699999999999862,0.0226383082201828,1.0585943002010516,0.07794977295743896,0.03850844414411117
0.05300000000000016,0.0020999999999995558,1.33,0.02308047010508573,1.1099070402826636,0.07980707536519169,0.04372125780082095
0.05400000000000005,0.0001,1.33,0.02318842394279569,1.0863958604502844,0.08026053580479713,0.04133277885542342
0.05500000000000016,-0.0062000000000021534,-1.67,0.02289329588007284,1.116277206537995,0.07902084943605714,0.04436839708043237
0.05600000000000005,-0.0159,-0.67,0.028189262979055517,1.2492485310850492,0.10126657612613378,0.057876830569800176
0.05700000000000016,-0.028699999999999646,-0.67,0.02818424396520567,1.2764600059411508,0.10124549374245001,0.06064121905350801
0.05800000000000005,-0.0271,0.33,0.028247286797664733,1.3019865525419365,0.10151030536126124,0.06323443723904199
0.05900000000000016,-0.004299999999999245,-1.67,0.02797707300860804,1.31075489742225,0.10037527147851678,0.0641252052601249
0.06000000000000005,-0.0009,-1.67,0.027707617742339725,1.3194649746138736,0.09924342377316411,0.06501005392077482
0.061000000000000165,-0.009599999999994582,-1.67,0.0276524640731698,1.3205670135775642,0.09901175060991038,0.06512200903661965
0.062000000000000055,0.0148,-2.67,0.02755008722582526,1.3205670135775642,0.09858171633612195,0.06512200903661965
0.06300000000000017,0.018200000000001954,-1.67,0.02754937811067526,1.3216681336347424,0.09857873769567276,0.06523387080160445
0.06400000000000006,0.027,0.33,0.02753786044666895,1.3270221622990288,0.09853035771128014,0.06577778160611845
0.06499999999999995,0.0029,0.33,0.0268153418039114,1.3183620144392865,0.09549541584799759,0.0648980052199697
0.06600000000000006,-0.0067,0.33,0.02627030537703911,1.3183620144392865,0.09320598859859758,0.0648980052199697
0.06699999999999995,-0.0037,-1.67,0.026272797496158563,1.3183620144392865,0.09321645675290713,0.0648980052199697
0.06800000000000006,0.0098,1.33,0.02617838785131185,1.3183620144392865,0.0928198887386212,0.0648980052199697
0.06899999999999995,0.003,-1.67,0.026038455628886726,1.3237294152823147,0.0922321029920288,0.06544327449171533
0.07000000000000006,0.0186,-0.67,0.02598691918943103,1.3323546761279574,0.09201562401372637,0.06631950673847004
0.07099999999999995,0.013,-0.67,0.02585610638522996,1.3387529887487302,0.09146614441246931,0.06696950538123234
0.07200000000000006,-0.0108,-0.6699999999999862,0.02585628360556544,1.358838006773031,0.0914668888270537,0.06900992372735486
0.07299999999999995,-0.014,0.33,0.02587525743219522,1.3683053624405839,0.09154658844632665,0.0699717036057682
0.07400000000000007,-0.0286,-1.67,0.025739676531810148,1.3817923674587587,0.09097708044184147,0.07134183593226325
0.07499999999999996,-0.0205,0.33,0.025640830160069916,1.372418052393121,0.09056187594208895,0.070389507962275
0.07600000000000007,0.0162,0.33,0.02591258970907239,1.387962798006814,0.09170340279441566,0.07196868424668817
0.07699999999999996,0.0319,-0.67,0.025913082339323233,1.387962798006814,0.0917054720893555,0.07196868424668817
0.07800000000000007,0.0178,-1.67,0.02656021707113173,1.382844736361844,0.09442376359426936,0.07144874511273527
0.07899999999999996,0.0048,-0.67,0.026766440030557455,1.387962798006814,0.09529000379305849,0.07196868424668817
0.08000000000000007,-0.0071,0.33,0.026887072729023947,1.386914312614347,0.09579672182770933,0.0718621695884567
0.08099999999999996,-0.0107,-1.67,0.026842929650046973,1.3920174116374313,0.09561129868367793,0.07238058868353459
0.08200000000000007,-0.0009,1.33,0.026719266010812853,1.3920174116374313,0.09509184917266587,0.07238058868353459
0.08299999999999996,0.014,-1.67,0.02679847306881581,1.390971982530704,0.09542455867242794,0.07227438451053579
0.08400000000000007,-0.0156,-0.67,0.02679894648759988,1.3827124205954833,0.09542654726954033,0.07143530327679384
0.08499999999999996,-0.0194,0.33,0.026669021466312125,1.3888787635904885,0.09488079680324212,0.07206173634049683
0.08600000000000008,0.0205,1.3299999999999723,0.026402371093747285,1.397101871041987,0.09376073106283674,0.07289711419706006
0.08699999999999997,-0.0059,-0.6699999999999862,0.026440398124862194,1.397101871041987,0.0939204637283172,0.07289711419706006
0.08800000000000008,-0.0199,0.33,0.02642849208889903,1.397101871041987,0.09387045238628117,0.07289711419706006
0.08899999999999997,0.0457,0.33,0.0264909377013302,1.3920174116374313,0.09413275538046048,0.07238058868353459
0.09000000000000008,0.0363,-1.67,0.026661604872117974,1.3837640897874888,0.09484964337567532,0.07154214137426647
0.09099999999999997,-0.0065,-0.67,0.0265723370378423,1.3888787635904885,0.09447467355309218,0.07206173634049683
0.09200000000000008,-0.0297,0.33,0.026576104661218198,1.3888787635904885,0.09449049946709898,0.07206173634049683
0.09299999999999997,-0.0087,-1.67,0.02664361495120891,1.3837640897874888,0.09477407665552028,0.07154214137426647
0.09400000000000008,0.0103,-0.67,0.026564400587178794,1.3837640897874885,0.09444133646676783,0.07154214137426645
0.09499999999999997,0.0277,-0.67,0.026561157364386613,1.3888787635904876,0.09442771329908545,0.07206173634049674
0.09600000000000009,-0.0092,0.33,0.02659575647165082,1.3806066789046998,0.09457304695949811,0.07122138293214335
0.09699999999999998,-0.0621,0.33,0.026671592018244032,1.3806066789046998,0.09489159441483053,0.07122138293214335
0.09800000000000009,-0.0552,2.33,0.02678555731351687,1.3888787635904876,0.0953703060011016,0.07206173634049674
0.09899999999999998,-0.0234,0.33,0.02679131958770912,1.3878309701963942,0.09539451045222418,0.07195529198173803
0.10000000000000009,-0.006,1.33,0.026783971640972966,1.3971018710419862,0.09536364537852364,0.07289711419705999
0.10099999999999998,-0.0216,0.33,0.026831897167563363,1.4032049814452063,0.09556495670581885,0.07351712352043101
0.10200000000000009,-0.0455,3.3299999999999725,0.02706449012796362,1.408249048897207,0.0965419641778052,0.07402954565297226
0.10299999999999998,-0.0237,1.3299999999999446,0.027352275794777784,1.4132751138710167,0.09775080878911314,0.07454013893045686
0.10400000000000009,0.0362,-2.6700000000000417,0.027674841117261078,1.4132751138710167,0.09910574545498446,0.07454013893045686
0.10499999999999998,0.1649,-5.67,0.028106659584326628,1.4072156784244239,0.10091960030312228,0.0739245665054078
0.1060000000000001,-0.0014,-2.67,0.028141153738698566,1.4372574143213277,0.10106449310857624,0.07697647858232234
0.10699999999999998,0.0208,-2.67,0.028664568785019096,1.4421823874908732,0.10326309968001,0.07747680203720517
0.1080000000000001,0.0004,-1.67,0.03222946364130958,1.4470905992909089,0.11823745189362778,0.07797542272011074
0.10899999999999999,0.0187,-1.67,0.0321353182239782,1.4480955150377681,0.11784199376786272,0.07807751117846902
0.1100000000000001,0.002,-0.67,0.032140353165320046,1.4391531483618223,0.11786314305502743,0.07716906444462598
0.11099999999999999,-0.0133,0.33,0.032229530612826345,1.4391531483618223,0.11823773320769754,0.07716906444462598
0.1120000000000001,0.0005,-0.67,0.032227227300156064,1.4361175195960167,0.11822805813547992,0.07686067773477724
0.11299999999999999,-0.0212,1.33,0.032355425665223723,1.413016169000858,0.11876655577681866,0.07451383296134761
0.1140000000000001,-0.009,-0.67,0.03236600571319618,1.4038503686736374,0.11881099730207066,0.07358268781017428
0.11499999999999999,-0.0203,0.33,0.03240268426353468,1.413016169000858,0.11896506566974901,0.07451383296134761
0.1160000000000001,-0.0102,1.33,0.03266134918012056,1.4190508362075984,0.12005158847684617,0.07512688920389014
0.11699999999999999,-0.001,0.33,0.03265997128300902,1.420075594416671,0.12004580061563455,0.07523099343957475
0.1180000000000001,0.0073,1.3299999999999585,0.03280914800072243,1.4119862873772835,0.1206724178941695,0.07440920824273728
0.119,-0.0159,-1.6699999999999584,0.033247453285053664,1.4150736836259146,0.12251352063892068,0.07472285396313617
0.1200000000000001,-0.009,1.33,0.03358773824180148,1.4059212971777124,0.1239428886850346,0.07379307151548688
0.121,-0.0029,2.33,0.03366160593597651,1.4109556540249972,0.12425317017000824,0.07430450715670459
0.12200000000000011,-0.0322,-1.67,0.03372174866855445,1.4099242672954924,0.12450579991001932,0.07419972953577923
0.123,-0.0059,2.33,0.03384391528430847,1.408892125534228,0.12501896116912864,0.07409487521187795
0.12400000000000011,0.0081,0.33,0.03381486029390723,1.408892125534228,0.12489691558928111,0.07409487521187795
0.125,-0.0402,-2.67,0.03383331782241918,1.3996993195538825,0.12497444649666348,0.07316098658145963
0.1260000000000001,0.0305,0.33,0.03386968658428859,1.3996993195538825,0.1251272135968894,0.07316098658145963
0.127,0.0587,-0.67,0.033839437289183635,1.4057911534233045,0.1250001513363248,0.0737798503322245
0.1280000000000001,0.0333,1.33,0.03369427650503809,1.4239102895527145,0.12439040299954995,0.07562055656059875
0.129,0.0256,0.33,0.03427693209983893,1.51233415152851,0.1268378496838153,0.08460345465867995
0.13000000000000012,0.0047,1.33,0.035058787924993215,1.6030277842823555,0.13012203757100357,0.09381693666420016
0.131,-0.0014,-0.67,0.03567071397834122,1.6373667343732339,0.13269243490975063,0.09730539874410675
0.13200000000000012,-0.0307,0.33,0.035878332841121276,1.6632566645741074,0.1335645386050317,0.09993553273242477
0.133,-0.0043,-0.67,0.04146252339067758,1.69734198758885,0.15702094881849415,0.10339822907298303
0.13400000000000012,0.0193,1.33,0.04253933900543197,1.815355864125255,0.16154411624263365,0.11538714929653361
0.135,-0.0027,-1.67,0.042759441034374346,1.9000168430821436,0.16246865551719297,0.12398777959994314
0.13600000000000012,-0.0148,-1.67,0.04296547251044775,1.9817972935429333,0.16333409138954996,0.13229577968600073
0.137,-0.004,-0.67,0.043984531368103534,1.994782741342927,0.1676146513712891,0.13361495928004768
0.13800000000000012,0.0185,-0.67,0.0440273885605645,2.000516834039639,0.1677946731449088,0.13419748043699076
0.139,0.0332,-0.67,0.04403156442301941,2.001243868545849,0.16781221386846906,0.1342713391979309
0.14000000000000012,0.0088,1.33,0.04380279498025212,2.001243868545849,0.1668512670944946,0.1342713391979309
0.14100000000000001,0.0054,0.32999999999997226,0.04365369197315434,1.9955118649800054,0.16622495943763568,0.13368903027385445
0.14200000000000013,-0.0216,-0.67,0.043667267229197705,1.9990619717865743,0.16628198234394234,0.13404968233052938
0.14300000000000002,-0.0254,-0.6699999999999445,0.04359345581705588,1.9990619717865743,0.16597193727182868,0.13404968233052938
0.14400000000000013,-0.0354,1.3299999999999446,0.0436505281451456,1.9925937696405842,0.16621166976799434,0.13339258367574405
0.14500000000000002,-0.0148,-0.67,0.043753394301117306,1.992593769640584,0.16664375938423176,0.13339258367574405
0.14600000000000013,0.0203,0.33,0.04373751050627551,1.9918635778321003,0.1665770394533395,0.1333184041673953
0.14700000000000002,0.0248,-1.67,0.0438386830222555,1.9983341434622113,0.16700201492939004,0.13397574292633962
0.14800000000000013,-0.0058,0.33,0.043395846483888376,2.004783825044387,0.16514187863760926,0.13463096009423048
0.14900000000000002,-0.0019,-1.67,0.04304782243027422,1.9955118649800054,0.16368000249042544,0.13368903027385445
0.15000000000000013,-0.0202,1.33,0.04299933851804025,1.9962407223058938,0.16347634566245348,0.13376307421335445
0.15100000000000002,-0.0366,1.33,0.043200462914330155,1.996240722305894,0.1643211693305294,0.1337630742133545
0.15200000000000014,-0.0395,1.33,0.04331462302038583,1.996240722305894,0.16480069922011512,0.1337630742133545
0.15300000000000002,-0.0421,1.33,0.04327725292907811,1.972510039930117,0.16464372603238997,0.13135229620822858
0.15400000000000014,-0.049,0.33,0.04321547712983053,1.9725100399301174,0.16438423659062462,0.13135229620822864
0.15500000000000003,-0.0152,3.33,0.04332456241683112,1.955010895948148,0.16484244968658399,0.12957457440688147
0.15600000000000014,0.0569,1.33,0.040648608471846585,1.890327841652566,0.15360209660606852,0.1230034829342096
0.15700000000000003,0.1502,1.33,0.04081567217959939,1.8789438338626487,0.1543038482433122,0.12184699214496336
0.15800000000000014,0.011599999999995846,-0.67,0.04077093158782504,1.8651520737851273,0.15411591524486976,0.12044590003474231
0.15900000000000003,-0.0071,0.33,0.040772271487950734,1.8651520737851266,0.15412154349962115,0.12044590003474226
0.16000000000000014,-0.02389999999999665,-1.67,0.0407439882284033,1.8582178080387144,0.15400273957768637,0.11974145441120586
0.16100000000000003,-0.0088,1.33,0.04074951213822954,1.864371969385021,0.1540259427785293,0.12036664995251975
0.16200000000000014,0.032399999999997244,-0.67,0.040743716538187195,1.8651520737851266,0.15400159834206711,0.12044590003474226
0.16300000000000003,0.02,0.33,0.04077195956358103,1.8651520737851266,0.15412023326031138,0.12044590003474226
0.16400000000000015,0.03110000000000224,-1.67,0.040837899107457956,1.8605648810136495,0.154397212524672,0.11997989137710509
0.16500000000000004,0.0412,1.33,0.04089354940201546,1.8597828524709434,0.1546309717644502,0.11990044582302102
0.16600000000000015,-0.00600000000000564,-0.67,0.04089404896440896,1.8597828524709432,0.1546330701778774,0.11990044582302102
0.16700000000000004,-0.0314,-0.67,0.04094678648913564,1.8597828524709432,0.1548545943186913,0.11990044582302102
0.16800000000000015,-0.05459999999999847,-1.67,0.041056974391963826,1.864371969385021,0.15531743895595113,0.12036664995251975
0.16900000000000004,-0.0477,0.33,0.041054018040530015,1.8643719693850214,0.1553050207923245,0.12036664995251979
0.17000000000000015,-0.02889999999998825,1.33,0.04109732823255117,1.8620296952195619,0.15548694539204158,0.1201287004932228
0.17100000000000004,0.024,0.33,0.041090366373030596,1.8574347913172704,0.15545770207892148,0.11966190846896066
0.17200000000000015,0.030799999999992896,0.33,0.041260243761623176,1.842792131584185,0.1561712725915065,0.11817437425219926
0.17300000000000004,-0.0012,0.33,0.042192415297893096,1.8543980851869324,0.16008686210264847,0.11935341231064864
0.17400000000000015,-0.030699999999998912,0.33,0.042370098995327385,1.8397312560745698,0.1608332230404203,0.1178634227490709
0.17500000000000004,-0.0258,0.33000000000002777,0.042364414420711344,1.8397312560745698,0.1608093449666154,0.1178634227490709
0.17600000000000016,0.007499999999997091,1.33,0.042265871955813,1.8209565728563062,0.1603954170285215,0.11595612010015945
0.17700000000000005,-0.0056,2.33,0.04240193413711106,1.8209565728563062,0.16096694665501668,0.11595612010015945
0.17800000000000016,-0.06530000000000186,5.33,0.042013720406923395,1.8209565728563062,0.15933625364320605,0.11595612010015945
0.17900000000000005,-0.0737,5.33,0.041895530908553906,1.816257762088014,0.15883979827835495,0.11547877227378549
0.18000000000000016,-0.06609999999997643,3.33,0.0422456756046126,1.8209565728563064,0.1603105821908906,0.11595612010015945
0.18100000000000005,0.0401,3.33,0.04224371020473043,1.816257762088014,0.16030232652241713,0.11547877227378549
0.18200000000000016,0.2078999999999752,-3.67,0.042295225002120775,1.8154566478516043,0.16051871459315503,0.11539738782178587
0.18300000000000005,0.0962,-6.67,0.04227538772205653,1.8154566478516043,0.16043538803497676,0.11539738782178587
0.18400000000000016,-0.04599999999997948,-5.67,0.04232991791678138,1.8193581296698655,0.16066444229183546,0.11579373573989139
0.18500000000000005,0.0464,-5.67,0.042499084013931564,1.865833794754158,0.16137502502244813,0.1205151554354825
0.18600000000000017,0.09639999999998312,-2.67,0.043035274455754564,1.8885943606462505,0.16362729468343548,0.12282738020710916
0.18700000000000006,0.0204,-1.67,0.04366509982312081,1.9311478841265781,0.1662728781478037,0.12715035317613332
0.18800000000000017,-0.020799999999997244,-0.67,0.04420002959261928,1.9785815777431748,0.1685198523506711,0.1319690981014582
0.18900000000000006,-0.0084,0.33,0.044248545978454214,1.991496122375219,0.16872364558410746,0.1332810747084575
0.19000000000000017,0.002900000000002198,-0.67,0.04668935104680064,2.023557525691985,0.17897625505832768,0.13653816292469967
0.19100000000000006,0.0128,1.33,0.04681464162991564,2.1255729591608192,0.1795025385523003,0.14690181616044015
0.19200000000000017,-0.015500000000001865,0.33,0.04685398597463481,2.141678934636285,0.17966780459777687,0.14853800726579933
0.19300000000000006,-0.0239,0.33,0.04692297773035936,2.1569903790461296,0.1799576046877381,0.15009348269737138
0.19399999999999995,-0.0316,-0.67,0.04738298526911337,2.1569903790461296,0.18188986782140867,0.15009348269737138
0.19500000000000006,-0.0249,0.33,0.047269312126345116,2.1689271928220815,0.18141238342266489,0.15130613253384312
0.19599999999999995,-0.0311,-1.67,0.047401513698102964,2.1689271928220815,0.1819676965464735,0.15130613253384312
0.19700000000000006,-0.0017,-1.67,0.047446943431620724,2.1689271928220815,0.18215852428700707,0.15130613253384312
0.19799999999999995,-0.0068,1.33,0.047383926762020676,2.1669141453721568,0.18189382256536857,0.15110162891111936
0.19900000000000007,-0.0115,-0.67,0.047381985738855506,2.166914145372157,0.18188566929137265,0.1511016289111194
0.19999999999999996,-0.042,1.33,0.04739438818536774,2.166914145372157,0.18193776580750326,0.1511016289111194
0.20100000000000007,-0.0381,0.33,0.04739655389906861,2.168927192822082,0.18194686289481105,0.15130613253384315
0.20199999999999996,-0.0418,1.33,0.047407593628287996,2.1649837380173214,0.18199323531260686,0.15090552061898188
0.20300000000000007,-0.0055,1.33,0.04768143701404638,2.1610330872052446,0.1831435153278729,0.15050417766841384
0.20399999999999996,0.0475,0.32999999999991675,0.04787048885494042,2.1610330872052446,0.18393762818850462,0.15050417766841384
0.20500000000000007,0.0686,-2.6699999999999724,0.04924374093859333,2.1735328770835456,0.18970597794569802,0.15177401972479157
0.20599999999999996,0.037,-1.6699999999999167,0.052157901307834945,2.191195050570966,0.2019469178710338,0.153568303542338
0.20700000000000007,0.0081,1.3299999999999168,0.05243805826115969,2.2299344150215648,0.20312371804699864,0.15750379963432518
0.20799999999999996,0.0034,-1.6699999999999444,0.050962570025881636,2.2680121783069063,0.1969259250088349,0.1613720842777703
0.20900000000000007,-0.0107,0.33,0.06332277712664704,2.29621590781389,0.24884501435687678,0.16423727499084312
0.20999999999999996,-0.0069,-1.67,0.06834387411338234,2.3247032429458763,0.2699361482637958,0.1671312769362294
0.21100000000000008,-0.0114,-0.67,0.0683035677281849,2.3473525521309804,0.26976684116422195,0.16943219924221756
0.21199999999999997,-0.0151,-0.67,0.06835386068085418,2.3583260326895714,0.2699780968723121,0.1705469849509223
0.21300000000000008,-0.0314,0.33,0.06851808012131483,2.3583260326895714,0.27066790115572364,0.1705469849509223
0.21399999999999997,-0.0231,0.33,0.06893094848208527,2.358942791713633,0.27240215602192996,0.17060964092794506
0.21500000000000008,-0.0204,0.33,0.06906878894804996,2.3534638850734373,0.27298115533883893,0.17005304388572073
0.21599999999999997,-0.0231,1.33,0.06970518463370322,2.349830137788971,0.2756543374461269,0.1696838948704982
0.21700000000000008,-0.03,1.33,0.0726258739254746,2.3528456898463577,0.2879227021313721,0.16999024200616591
0.21799999999999997,-0.0052,1.33,0.0748858556761926,2.3637162659421396,0.29741576268318165,0.1710945737459691
0.21900000000000008,0.0248,1.33,0.07590123539919885,2.358248449516441,0.3016808684480913,0.170539103348346
0.21999999999999997,0.0051,0.33,0.07632215106561768,2.3637162659421396,0.3034489260473395,0.1710945737459691
0.22100000000000009,0.0376,0.33,0.08281012006847036,2.3746141283048408,0.33070166053635747,0.17220167747231227
0.22199999999999998,0.094,-2.67,0.08457886077013448,2.389041756163774,0.33813126149486655,0.17366736680048606
0.2230000000000001,0.0393,0.33,0.08453722191469164,2.389650587598627,0.3379563573497772,0.17372921742107636
0.22399999999999998,0.0041,0.33,0.08454226363283396,2.389650587598627,0.33797753510291395,0.17372921742107636
0.2250000000000001,-0.028,0.33,0.08449558084678219,2.3896505875986276,0.3377814439112148,0.1737292174210764
0.22599999999999998,-0.0455,0.33,0.08445956212179216,2.390259263955867,0.3376301471420171,0.1737910522874758
0.2270000000000001,0.0127,-0.67,0.08458909280993118,2.387290972034954,0.3381742412106664,0.17348950626522427
0.22799999999999998,-0.0105,0.33,0.08464172109829488,2.3795099502368067,0.3383953065037892,0.17269903948001603
0.2290000000000001,-0.0599,1.33,0.08440213572089737,2.3243135610520818,0.3373889273619045,0.16709168951418735
0.22999999999999998,-0.0021,0.33,0.08407913534374388,2.2658488922600544,0.33603216324750346,0.16115231805537672
0.2310000000000001,0.021,0.33,0.08390747909359507,2.2418092860503593,0.33531112062127805,0.15871015676458397
0.23199999999999998,0.028,0.33,0.08412738009301965,2.220704327742524,0.3362348154707067,0.15656612363136213
0.2330000000000001,0.022,1.33,0.08217294325659191,2.203195679588202,0.3280251973058693,0.15478743630996375
0.23399999999999999,-0.0424,4.33,0.08195253904437971,2.1452430173003623,0.3270993887095213,0.1489000791168717
0.2350000000000001,-0.0677,3.3300000000000276,0.08183660315047737,2.0740544053764167,0.32661239961742206,0.1416680940806187
0.236,-0.0753,4.33,0.08216223034845495,1.996786064123906,0.32798019770107256,0.13381847498267585
0.2370000000000001,-0.0686,4.329999999999945,0.08161406081348531,1.9802362863170364,0.325677609821117,0.13213719841023108
0.238,0.0278,2.3299999999998335,0.08159024240533068,1.991041227037518,0.32557756052169773,0.13323486231315426
0.2390000000000001,0.1527,-3.670000000000083,0.08179747357232502,2.007501931255812,0.32644803569959435,0.13490708998237852
0.24,0.0354,-6.67,0.08211042642713627,2.0139222527765486,0.3277625951643516,0.1355593244888682
0.2410000000000001,0.02,-2.67,0.08235067130873172,2.0139222527765486,0.3287717445557231,0.1355593244888682
0.242,0.0335,-2.67,0.08236591683676261,2.009674664801481,0.32883578344484055,0.1351278159674115
0.2430000000000001,0.0707,-0.67,0.08237191231605616,2.009674664801481,0.32886096747473487,0.1351278159674115
0.244,0.0136,-2.67,0.0824311171336249,2.0139222527765486,0.32910965749975846,0.1355593244888682
0.2450000000000001,-0.0383,-0.67,0.0824956779295519,2.0174399629222712,0.32938084532895806,0.13591668539882554
0.246,-0.0289,0.33,0.08261776680153923,2.0216712358539994,0.3298936800251275,0.13634653649016656
0.2470000000000001,-0.0036,1.33,0.08292542119998869,2.015275601412046,0.33118598330703825,0.13569680992110567
0.248,0.0041,0.33,0.0833353871532458,2.022300194625214,0.3329080466012279,0.1364104318281836
0.2490000000000001,0.0111,-1.67,0.08349512423954711,2.0180702404271154,0.33357902274169726,0.13598071470576847
0.25,-0.0207,-1.67,0.08348709970305829,2.0173492700028866,0.33354531565058276,0.13590747198929054
0.2510000000000001,-0.038,0.33,0.08352555365377189,2.013831401437055,0.33370684159319913,0.1355500949855813
0.252,-0.0645,0.33,0.0834936890992839,2.0180702404271154,0.33357299443044447,0.13598071470576847
0.2530000000000001,-0.0598,1.33,0.08339875942001296,2.018070240427115,0.333174242009901,0.13598071470576845
0.254,-0.1254,2.33,0.08391296046812351,2.0202316079218945,0.3353341451524669,0.13620028602423703
0.2550000000000001,-0.1725,4.33,0.08442462665451718,2.052552903608624,0.3374834006003064,0.13948377646521457
0.256,-0.0784,4.33,0.08430922799496345,2.0525529036086243,0.3369986681628019,0.1394837764652146
0.2570000000000001,0.0854,4.33,0.08423929142239908,2.0469645829852112,0.3367048993666917,0.13891606415795
0.258,0.3761,-3.67,0.08432468776863801,2.0434976976323154,0.33706360699142884,0.13856386649154048
0.2590000000000001,0.2573,-3.67,0.0843378749841397,2.043497697632316,0.3371189999322026,0.1385638664915405
0.26,0.005,-3.67,0.08433485632058445,2.056711939965299,0.33710632002631113,0.13990628910991734
0.2610000000000001,-0.0276,-2.67,0.08449571848586919,2.063595486409659,0.3377820220646387,0.14060558220661584
0.262,-0.0573,-0.67,0.08456071270055186,2.089686258524186,0.3380550304707039,0.14325611953859993
0.2630000000000001,0.078,-0.67,0.08532129189587791,2.133598267829004,0.3412498458064396,0.14771709982212508
0.264,0.0536,0.33,0.08545739869065486,2.159516916843625,0.34182156283199516,0.1503501513280863
0.2650000000000001,-0.1025,0.33,0.08550228998099019,2.172025432148768,0.34201012884022364,0.1516208797924814
0.266,-0.2039,1.33,0.08550653061688386,2.1720254321487684,0.34202794164482,0.15162087979248146
0.2670000000000001,-0.1852,2.33,0.08596155744587239,2.1740337468057334,0.3439392832912353,0.15182490261515955
0.268,-0.1352,0.33,0.08815260899937652,2.200220403239652,0.35314280232980405,0.15448518074618875
0.26900000000000013,0.0933,-1.67,0.08872457937062726,2.2119239352422504,0.3555453656984681,0.15567413170374533
0.27,0.3227,-2.67,0.0886991127549252,2.223565867646621,0.35543839309798914,0.15685682481527033
0.27100000000000013,0.1738,-2.67,0.08869783974706755,2.229364035772494,0.355433045824423,0.15744585533561242
0.272,-0.0154,-0.67,0.0886658127543044,2.2300164622962315,0.35529851633917536,0.15751213474083478
0.27300000000000013,0.0094,0.33,0.08867708232258094,2.2267524181036196,0.3553458541966638,0.15718054351970157
0.274,-0.0125,0.33,0.08919260679692123,2.251599004525714,0.3575113163953287,0.1597046851815523
0.27500000000000013,0.0079,-0.67,0.0900882266570677,2.263598736735032,0.3612733704743372,0.1609237268432937
0.276,-0.0473,-0.67,0.09084026580725785,2.2642412987720215,0.3644323133232422,0.16098900412445963
0.27700000000000014,-0.0303,1.33,0.09075674293458326,2.279367656481494,0.3640814752301873,0.16252567676986515
0.278,-0.0149,-1.67,0.09165774371178455,2.2937601770121243,0.36786613186844636,0.16398779957712933
0.27900000000000014,-0.0011,1.33,0.09285523895253008,2.322277636742041,0.37289621444645366,0.16688486185246967
0.28,-0.0386,-0.67,0.09283415299952394,2.3241561213613275,0.37280764283360046,0.16707569536207686
0.28100000000000014,-0.0727,1.33,0.09287367476975701,2.3278299461827,0.37297365415551403,0.16744891581708962
0.28200000000000003,-0.1033,2.330000000000111,0.09294722826724384,2.3516088118553697,0.3732826158562968,0.16986458871864216
0.28300000000000014,-0.07489999999998667,4.329999999999834,0.09290533357665881,2.352227332149722,0.3731066370748767,0.1699274236214796
0.28400000000000003,-0.0149,1.329999999999889,0.09288896073240596,2.349210986340936,0.37303786289037355,0.16962099584934365
0.28500000000000014,0.08659999999998463,-0.67,0.09289519451887006,2.3087723860983913,0.37306404793029785,0.16551287596981099
0.28600000000000003,0.0174,-0.6700000000001111,0.09280437472704586,2.2882851148935113,0.37268255910508236,0.16343159309628566
0.28700000000000014,0.005000000000012634,-2.67,0.09260434263260423,2.246750195172734,0.37184232365440384,0.15921209913812925
0.28800000000000003,0.0619,-2.6699999999999444,0.09234944153876157,2.2083058424633695,0.3707716107967438,0.15530657301522088
0.28900000000000015,0.07219999999999796,-1.67,0.0923098280756701,2.1966663260966586,0.3706052143186861,0.15412412534672013
0.29000000000000004,0.063,-0.67,0.09104865304477268,2.166496082558535,0.36530764457904735,0.151059158297764
0.29100000000000015,0.020399999999991387,0.33,0.09098264143672179,2.0623625648577995,0.3650303626088941,0.14048033085007236
0.29200000000000004,-0.0184,0.33,0.09099296030191975,2.046343205010853,0.36507370703506886,0.1388529389460521
0.29300000000000015,-0.039300000000001355,1.33,0.09096223782059112,2.0463432050108525,0.3649446571542626,0.13885293894605205
0.29400000000000004,-0.0454,1.33,0.0907868430318959,2.0623625648577995,0.36420791078494935,0.14048033085007236
0.29500000000000015,-0.05130000000000588,1.33,0.09077688520055259,2.0463432050108525,0.3641660828826326,0.13885293894605205
0.29600000000000004,-0.0778,0.33,0.0906964649685978,2.045632199242501,0.3638282774418166,0.13878070852971944
0.29700000000000015,-0.08249999999999323,2.33,0.09066758991425478,2.045632199242501,0.3637069876839555,0.13878070852971944
0.29800000000000004,-0.052,0.33,0.09067642125523766,2.042163051964868,0.3637440837599205,0.13842828107647448
0.29900000000000015,-0.000199999999989031,0.33,0.0907671799684212,2.042163051964868,0.3641253160241111,0.13842828107647448
0.30000000000000004,0.0492,-0.67,0.09090636509435801,2.036546221595298,0.36470996358952157,0.13785767249054928
0.30100000000000016,0.030499999999996134,1.33,0.09101075852325509,2.043497697632316,0.36514846852055305,0.1385638664915405
0.30200000000000005,0.0131,1.33,0.09104522237661965,2.0476751261155166,0.36529323404652886,0.13898824757531275
0.30300000000000016,0.09300000000000251,-1.67,0.09091849263934637,2.0476751261155166,0.3647609053809244,0.13898824757531275
0.30400000000000005,0.1043,-3.67,0.0907234819952066,2.0476751261155166,0.36394176254825417,0.13898824757531275
0.30500000000000016,0.05249999999998534,-2.67,0.08994696976173117,2.038598253758835,0.36068002043495556,0.13806613653415875
0.30600000000000005,-0.0135,-0.67,0.08832437287228814,1.9918635778320966,0.3538642970257879,0.13331840416739488
0.30700000000000016,-0.03869999999999478,-0.67,0.08799327771589718,1.9578915569884952,0.3524735307653827,0.12986721808928064
0.30800000000000005,-0.0152,-1.67,0.08792283964832619,1.9091822912944536,0.3521776554378976,0.12491888898008939
0.30900000000000016,-0.008000000000009881,2.33,0.0796625651534915,1.875166330500633,0.31748034607727077,0.12146323908320003
0.31000000000000005,-0.0525,2.33,0.0755738856404346,1.844370265554432,0.3003058347423625,0.11833469541803714
0.31100000000000017,-0.03500000000001768,3.33,0.07664993373750073,1.813051181263078,0.30482577820600454,0.11515301870285977
0.31200000000000006,-0.1146,4.33,0.07845242123651806,1.8247460308714698,0.31239713269442687,0.11634108762404444
0.31300000000000017,-0.0574999999999792,3.33,0.0782659144419776,1.8387413692066792,0.3116137103091204,0.11776286106058322
0.31400000000000006,0.0362,2.33,0.07788084628859603,1.8387413692066792,0.30999623030271617,0.11776286106058322
0.31500000000000017,-0.0220999999999748,0.33,0.07771514942211528,1.839532343001457,0.3093002200865952,0.11784321535452577
0.31600000000000006,0.0914,-1.67,0.07748770636729438,1.839532343001457,0.30834484480941987,0.11784321535452577
0.31700000000000017,0.19769999999997848,-3.67,0.07547361148246191,1.839532343001457,0.2998846328219868,0.11784321535452577
0.31800000000000006,0.1008,-2.67,0.07575742837597392,1.8255430685956329,0.3010768065883811,0.11642205794694716
0.3190000000000002,0.012699999999997557,-2.67,0.07454966834105765,1.883389122268535,0.2960036067097214,0.12229858486975963
0.32000000000000006,0.0017,-1.67,0.07405562655535868,1.883389122268535,0.2939283826132107,0.12229858486975963
0.3210000000000002,-0.028900000000014654,-0.67,0.0669177992066499,1.8719629183728683,0.2639459160697853,0.12113780741728002
0.32200000000000006,-0.0949,2.33,0.06473765315505685,1.8581193436637915,0.25478820562677573,0.11973145150671312
0.32299999999999995,-0.1034,3.33,0.06474141337776321,1.861931432428382,0.2548040004542465,0.12011871806743547
0.32400000000000007,-0.1267,2.33,0.06473471428040023,1.862712558926144,0.2547758608744074,0.12019807198361059
0.32499999999999996,-0.1199,-0.67,0.06474123858266077,1.8696301541786111,0.2548032662268612,0.12090082406713408
0.32600000000000007,-0.0236,-2.67,0.06480405441296073,1.8757468729896134,0.25506712432237916,0.12152221585602575
0.32699999999999996,0.1289,-2.67,0.06465371921111794,1.8757468729896134,0.2544356408275639,0.12152221585602575
0.32800000000000007,0.1491,-3.67,0.06478636113869747,1.871185653441873,0.25499280366740595,0.12105884579408992
0.32899999999999996,0.0567,-1.67,0.06476906358974159,1.8787490724365463,0.25492014525784845,0.12182720651238607
0.33000000000000007,-0.0271,1.33,0.06493551167193824,1.8749711766888408,0.2556193109579801,0.12144341358852465
0.33099999999999996,-0.0424,3.33,0.06598958238415363,1.9036489279666116,0.2600469383464626,0.12435675973349225
0.3320000000000001,-0.0009,-0.67,0.06597862838185571,1.9036489279666116,0.2600009260248738,0.12435675973349225
0.33299999999999996,-0.0132,-0.67,0.06545967845697769,1.893881902090202,0.2578210752103002,0.12336453663659647
0.3340000000000001,0.0439,0.33,0.06536718197854106,1.8504716068513658,0.2574325434576217,0.11895452501954193
0.33499999999999996,0.054,1.33,0.06725225543592886,1.864371969385022,0.2653508005275763,0.12036664995251983
0.3360000000000001,0.0445,0.33,0.06711399654457523,1.8705058830019654,0.26477004361348655,0.12098978854579368
0.33699999999999997,0.0016,1.33,0.06709174512366589,1.876619747434556,0.2646765764489889,0.12161089036103079
0.3380000000000001,-0.006,-0.67,0.0671019995162877,1.85900049495114,0.2647196500579019,0.1198209668484589
0.33899999999999997,-0.0129,0.33,0.06681662229003232,1.8412126449695683,0.2635209221088425,0.1180139156724748
0.3400000000000001,-0.0067,0.33,0.066435322075142,1.8341878768989506,0.26191926934008813,0.11730027600179081
0.34099999999999997,-0.0241,-0.67,0.06617027086450862,1.8333945973648726,0.2608059208844762,0.117219687469932
0.3420000000000001,0.0237,-2.67,0.06614937119103934,1.8380495998558708,0.26071813173941166,0.11769258485406114
0.34299999999999997,0.0425,-2.67,0.06612436836517503,1.8380495998558708,0.2606131072896254,0.11769258485406114
0.3440000000000001,0.0015,-0.6699999999999445,0.06625766709764126,1.8380495998558708,0.2611730290404888,0.11769258485406114
0.345,-0.0036,0.33,0.06656800213323287,1.8380495998558708,0.26247659234726467,0.11769258485406114
0.3460000000000001,-0.0177,0.3299999999999445,0.06864239012743663,1.8840642444410427,0.2711900657329089,0.12236716990488339
0.347,-0.0131,-0.6699999999999445,0.07008250965411988,1.9334064251252736,0.2772392923978163,0.12737979626070672
0.3480000000000001,-0.0407,0.3299999999999445,0.06959471138155,1.9678012014639428,0.2751902941981172,0.13087392967733055
0.349,-0.0514,-0.6699999999998335,0.07118701206395997,1.9958740727144604,0.28187875829301673,0.13372582662153984
0.3500000000000001,-0.0482,2.3299999999999446,0.07449191662283414,1.9966027978168777,0.2957610204331319,0.1337998571285801
0.351,-0.0455,1.3299999999999446,0.0754072957584409,2.028583492636996,0.2996060734117311,0.13704874624352958
0.3520000000000001,-0.0431,0.33,0.07535284049919715,2.056622978861511,0.29937733392159976,0.139897251633922
0.353,-0.0065,1.33,0.07542367487298293,2.084285289436904,0.29967487393460396,0.14270744010006536
0.3540000000000001,0.0415,1.33,0.07485185307398862,2.078782275671674,0.2972729346441769,0.14214839403737548
0.355,-0.0292,0.33,0.07418786150020032,2.047585772390884,0.2944838359207642,0.1389791702133301
0.3560000000000001,0.018,2.33,0.07402939140674672,2.0349373019412824,0.29381818178779257,0.1376942238356604
0.357,0.0778,0.33,0.07407721949035499,2.0349373019412824,0.2940190838055306,0.1376942238356604
0.3580000000000001,0.0545,-0.67,0.07406475871232618,2.034222309561,0.2939667422676785,0.13762158842312056
0.359,-0.0518,1.33,0.07418512628592945,2.0320758229865725,0.29447234664449584,0.13740352884354393
0.3600000000000001,-0.128,1.33,0.07418308999282473,2.01942080922122,0.29446379318881494,0.13611791773649803
0.361,-0.1694,3.33,0.07404511450605815,2.006685989153464,0.29388422671659703,0.1348241991812356
0.3620000000000001,0.0193,2.33,0.07396378734018529,1.9795015361272956,0.2935426116969656,0.1320625558201597
0.363,-0.0076,-0.67,0.07307774313019999,1.9357568509188994,0.2898207801669993,0.127618573836346
0.3640000000000001,0.017,-0.67,0.07286687309657758,1.9209539307322874,0.2889350199182258,0.12611475890880117
0.365,0.0837,0.33,0.07277742866979403,1.9067991085136837,0.2885593083182501,0.12467678365251825
0.3660000000000001,0.104,1.33,0.07280132463326512,1.9067991085136837,0.2886596833890235,0.12467678365251825
0.367,0.1966,-0.67,0.07223924679269775,1.9000168430821411,0.28629867362704586,0.12398777959994288
0.3680000000000001,0.0122,-4.67,0.06948378507187292,1.8696301541786124,0.2747243478805335,0.12090082406713422
0.369,0.0368,-1.67,0.06875185392997088,1.8519444044520315,0.27164986878457464,0.1191041451613256
0.3700000000000001,0.0589,-1.67,0.06886530041575034,1.8332947997613638,0.2721264011099141,0.11720954912398421
0.371,0.0385,1.33,0.06938622182116616,1.8410138919537116,0.2743145331347745,0.11799372453799785
0.3720000000000001,-0.0169,1.33,0.06946377447172748,1.8702124151820416,0.2746402932908014,0.12095997542224833
0.373,-0.0003,-0.67,0.06881471790577724,1.8602698449465396,0.27191392911544576,0.11994991893678314
0.3740000000000001,-0.0155,-1.67,0.06834415951845287,1.8371583999751642,0.26993734710870476,0.11760204868503928
0.375,-0.0295,-1.67,0.06724460874130231,1.8294230399404103,0.2653186805624093,0.11681622063600898
0.3760000000000001,-0.0172,-0.67,0.0662114017721031,1.8356737393069578,0.2609786913930085,0.11745122338523074
0.377,-0.0513,0.33,0.06635709329412863,1.823948644854019,0.2615906690959409,0.11626008191834979
0.3780000000000001,0.0006,2.33,0.06514866823686553,1.8058155561496472,0.2565146757887924,0.11441795826083045
0.379,-0.0464,-0.67,0.06346303449632937,1.7689918457603337,0.24943416588556008,0.11067707168757714
0.3800000000000001,-0.1236,3.33,0.06390181837877044,1.7929821693995367,0.2512772789831981,0.11311422640775819
0.381,-0.0717,1.33,0.06440048471033083,1.819056410217098,0.2533719284993491,0.11576308434062135
0.3820000000000001,-0.0621,1.33,0.0644101568983449,1.7929821693995367,0.25341255655595035,0.11311422640775819
0.383,0.0665,-1.67,0.06471087846995484,1.7921706508221509,0.25467573847661035,0.11303178498841202
0.3840000000000001,0.1589,-2.67,0.06485790025437652,1.792170650822151,0.2552933039509805,0.11303178498841202
0.385,0.0751,-1.67,0.06478116083038356,1.7929821693995367,0.25497095975574763,0.11311422640775819
0.3860000000000001,-0.0011,-1.67,0.06467273128852115,1.7890231681052715,0.25451550111933263,0.11271203513945224
0.387,0.0128,-0.67,0.064520189523749,1.7898361137639947,0.25387474894989503,0.11279462153466743
0.3880000000000001,0.0004,-0.67,0.06452703476457464,1.785870138158582,0.25390350240581516,0.11239172175256283
0.389,-0.0109,0.33,0.06455991131346112,1.7850553863256389,0.25404160045426827,0.1123089518697844
0.3900000000000001,-0.021,0.33,0.06462116209349429,1.7850553863256389,0.2542988845511491,0.1123089518697844
0.391,-0.0116,1.33,0.0648639639591015,1.7898361137639947,0.2553187745620172,0.11279462153466743
0.3920000000000001,-0.0032,0.33,0.06484326108355538,1.7937933208430246,0.2552318120672566,0.11319663053031234
0.393,-0.0575,1.33,0.06507852437544,1.7817926534208937,0.25622003627515966,0.11197749386116897
0.39400000000000013,-0.0786,1.33,0.06513247981035625,1.7632260840720102,0.2564466762516092,0.11009133330715888
0.395,-0.1751,4.33,0.065152168634023,1.7632260840720104,0.25652937921821634,0.11009133330715888
0.39600000000000013,-0.1613,4.33,0.06515577377378387,1.7680658374154339,0.25654452261928,0.11058299935897331
0.397,0.0025,4.33,0.06542994523400608,1.7728923789444082,0.2576961807123777,0.11107332323481577
0.39800000000000013,0.1586,3.33,0.0654341448858951,1.772071660289952,0.2577138213635318,0.11098994718817588
0.399,0.2195,-0.67,0.06578518976314728,1.7720716602899522,0.25918838649004167,0.11098994718817588
0.40000000000000013,0.1271,-3.67,0.06767084066166579,1.7864796989760785,0.2671090691033075,0.11245364647045913
0.401,0.0103,-3.67,0.06926594589594197,1.823647684894456,0.2738093137272658,0.11622950767528976
0.40200000000000014,-0.0351,-3.67,0.06923898010873955,1.870016744382729,0.27369604385211815,0.12094009740729035
0.403,0.0065,-0.67,0.07160330537847752,1.8745808081156181,0.2836273996883612,0.12140375640735657
0.40400000000000014,-0.031,-0.67,0.07325923559218879,1.953053796742435,0.29058313983242995,0.12937575451437816
0.405,-0.0199,1.33,0.07401099393014003,2.002966710074908,0.2937409031286298,0.13444636107040822
0.40600000000000014,-0.0298,-0.67,0.07435573324605453,2.009401522319781,0.29518898172463,0.13510006767611837
0.40700000000000003,0.0364,0.3300000000000555,0.07447009167337558,1.9958740727144604,0.2956693446633234,0.13372582662153984
0.40800000000000014,0.04499999999999134,1.329999999999889,0.07735126895940236,1.9966027978168777,0.30777173904242006,0.1337998571285801
0.40900000000000003,0.006,-0.67,0.07801218274436643,2.0285834926369963,0.31054790950406036,0.1370487462435296
0.41000000000000014,0.026899999999992895,-0.67,0.0778574483449026,2.024366667556965,0.30989794716560726,0.13662036289603768
0.41100000000000003,-0.0051,-0.669999999999889,0.07680788080087295,2.020141040331607,0.3054892353494512,0.13619108534676874
0.41200000000000014,-0.010999999999994115,1.3300000000000556,0.07492731065329505,2.005960927074215,0.2975898944467158,0.1347505407973204
0.41300000000000003,0.0155,2.329999999999889,0.07491069883715994,1.996694433073028,0.297520116460059,0.13380916626923284
0.41400000000000015,0.0014999999999932498,0.33,0.0749802080046011,1.9959657414265517,0.2978120899395861,0.13373513916095056
0.41500000000000004,-0.0289,0.33,0.07501198294615753,1.9995150423829502,0.29794556068293593,0.13409570935205437
0.41600000000000015,-0.013599999999997335,0.3300000000000555,0.07468697569632873,2.0166280418224924,0.2965803666934616,0.1358342030876029
0.41700000000000004,-0.0016,1.33,0.07396152330587699,2.012386165024297,0.2935331016136328,0.1354032747593058
0.41800000000000015,-0.005100000000008061,-0.67,0.07132867763978919,2.012386165024297,0.2824738249961113,0.1354032747593058
0.41900000000000004,-0.0414,0.33,0.07225525837334755,1.972138978461346,0.28636593032263225,0.13131460041788856
0.42000000000000015,-0.08479999999999087,2.33,0.07329144983180536,1.9793166694344417,0.29071845584868244,0.13204377538435277
0.42100000000000004,-0.0437,3.33,0.07309806486832762,1.9771105744373332,0.289906141692818,0.13181966024042094
0.42200000000000015,-0.006699999999984013,1.33,0.07368044174889608,1.9771105744373332,0.2923524176370613,0.13181966024042094
0.42300000000000004,0.0653,-1.67,0.07413512448128323,1.9771105744373332,0.2942623139046051,0.13181966024042094
0.42400000000000015,0.03419999999999789,-1.67,0.07413913530096702,1.9806936631693375,0.2942791613654789,0.13218366290030012
0.42500000000000004,0.0247,-1.67,0.07412517665657774,1.9784891035762708,0.2942205280352024,0.13195970373664037
0.42600000000000016,0.049999999999994806,-1.67,0.07413275544080283,1.9726909831125752,0.29425236274251143,0.13137067805825464
0.42700000000000005,0.0266,-0.67,0.07413992402278889,1.9726909831125752,0.2942824743940071,0.13137067805825464
0.42800000000000016,-0.02290000000001572,0.33,0.07402462850448278,1.9734282690207,0.29379817520164225,0.13144557824960398
0.42900000000000005,-0.0937,3.33,0.07405502155484281,1.9662290826441213,0.2939258413066142,0.1307142195850435
0.43000000000000016,-0.0843999999999715,3.33,0.07396795340622525,1.972046202184908,0.2935601112706536,0.13130517536204345
0.43100000000000005,0.044,1.33,0.0729690538434477,1.9502598068292853,0.28936423047134596,0.12909191567137718
0.43200000000000016,0.06239999999999629,0.33,0.07263740778889122,1.945873256985197,0.28797115016143937,0.12864629014257606
0.43300000000000005,0.0457,-0.67,0.07237084500674518,1.941476796247268,0.28685145234486753,0.12819965777526507
0.43400000000000016,0.030499999999984633,-0.67,0.07212957846829363,1.9348160931038905,0.2858380114806135,0.1275230031227584
0.43500000000000005,-0.0387,-0.67,0.07040523612073954,1.9169728896843252,0.27859490595014635,0.12571032864236573
0.43600000000000017,-0.0014999999999975354,-0.67,0.07001371413200716,1.9102267466329537,0.2769503165877674,0.12502499422887745
0.43700000000000006,0.0096,-0.67,0.07001723610555731,1.9034566943640103,0.27696511064889767,0.12433723090015913
0.43800000000000017,-0.02140000000000211,0.33,0.07003591984587623,1.9168774433880835,0.2770435917596967,0.12570063234168602
0.43900000000000006,-0.0309,0.33,0.07023600776762803,1.9161183979216052,0.2778840617131696,0.1256235216169921
0.44000000000000017,-0.05639999999999141,1.33,0.0702966052155491,1.9161183979216052,0.27813860148642977,0.1256235216169921
0.44100000000000006,-0.0177,1.33,0.07045113459241562,1.9168774433880835,0.2787877026268089,0.12570063234168602
0.44200000000000017,0.060199999999997755,-1.67,0.07065412774196803,1.9124143251624142,0.27964037599892416,0.12524722830204058
0.44300000000000006,0.0501,-0.67,0.0707247997478385,1.9124143251624142,0.27993723398498227,0.12524722830204058
0.4440000000000002,-0.015999999999998158,-0.67,0.07050223746402837,1.9258676547343327,0.27900236040200427,0.12661393957119468
0.44500000000000006,-0.0077,1.33,0.07013118374478676,1.928132380803001,0.2774437480709022,0.1268440109912881
0.4460000000000002,0.062499999999989495,1.33,0.06814704716966204,1.878651684151843,0.26910937605894464,0.12181731292690035
0.44700000000000006,0.0152,0.33,0.06657162274243297,1.8348811021602505,0.2624918007277572,0.11737070011290889
0.4480000000000002,-0.07910000000001946,0.33,0.0666648188312079,1.7836299362947179,0.26288327119589305,0.11216414172368179
0.44900000000000007,-0.1667,2.33,0.06480138619660177,1.752159811203256,0.2550559164710534,0.10896712091375775
0.44999999999999996,-0.1554,4.33,0.0610134308434059,1.7513293767534002,0.23914459792876205,0.10888275784847756
0.45100000000000007,-0.0412,4.33,0.06023567981543136,1.7141838674804764,0.235877652255219,0.10510918002520465
0.45199999999999996,0.1876,1.33,0.06252031971908155,1.7082331236443362,0.24547428945706418,0.10450464948001692
0.45300000000000007,0.1551,-5.67,0.06303683009322479,1.6854091182906974,0.24764389293099567,0.1021859799523512
0.45399999999999996,-0.113,-4.67,0.0634038167857041,1.7395564967644892,0.24918542170321145,0.10768676189333282
0.45500000000000007,-0.0772,-1.67,0.06584482935843242,1.738720042824366,0.2594389028002496,0.1076017873136213
0.45599999999999996,-0.0449,0.33,0.06628244531518386,1.771353854513843,0.26127711002230336,0.11091702596536424
0.4570000000000001,0.2232,-0.67,0.06625577072603435,1.777808734374265,0.2611650633255057,0.11157277122151919
0.45799999999999996,0.1151,-3.67,0.06615955505432856,1.7850553863256395,0.26076090908963817,0.11230895186978444
0.4590000000000001,0.0168,0.33,0.06601182067961656,1.7874985277194808,0.26014035037748073,0.1125571483372277
0.45999999999999996,-0.013,0.33,0.06601191113298761,1.7874985277194808,0.26014073032715435,0.1125571483372277
0.4610000000000001,0.0138,2.33,0.06596058314043393,1.7866845184539253,0.25992512693072867,0.11247445389118121
0.46199999999999997,-0.0109,1.33,0.06598250705516036,1.7866845184539257,0.2600172184044605,0.11247445389118126
0.4630000000000001,-0.0331,0.33,0.06598605350572416,1.7818953354782967,0.26003211528136466,0.11198792523611169
0.46399999999999997,0.0277,1.33,0.06596897119297596,1.7739190114164807,0.25996036097218406,0.11117761787513959
0.4650000000000001,0.0462,-2.67,0.06597062236169056,1.774738875773335,0.25996729671163593,0.11126090713447875
0.46599999999999997,-0.0039,0.33,0.065966730195707,1.7795473185798751,0.2599509476560084,0.11174939237790121
0.4670000000000001,-0.0191,-0.67,0.0661349062726047,1.8105414672731728,0.260657371803393,0.11489805918714874
0.46799999999999997,-0.1159,2.33,0.06625542124915337,1.8105414672731728,0.26116359534675254,0.11489805918714874
0.4690000000000001,-0.1281,2.3299999999999446,0.06697542485647108,1.824645760241303,0.2641879727956487,0.11633090122375735
0.47,-0.025,1.33,0.06711006718971531,1.8394328783986138,0.2647535383458653,0.11783311083780665
0.4710000000000001,0.1002,1.33,0.06723822935662686,1.824645760241303,0.2652918839367339,0.11633090122375735
0.472,0.0838,1.33,0.06709582980466315,1.79865254749196,0.26469373416454545,0.11369027485716628
0.4730000000000001,0.0078,1.33,0.06828421605275536,1.7938953159857722,0.2696855543898605,0.11320699212223255
0.474,-0.0059,1.329999999999889,0.06840700780584084,1.7914608983638363,0.27020134154032444,0.1129596818946832
0.4750000000000001,0.0315,-0.67,0.06859918195313144,1.784240262446123,0.2710085696589331,0.11222614419113984
0.476,0.0202,-0.67,0.0686456984207272,1.7921706508221542,0.2712039622294273,0.11303178498841233
0.4770000000000001,0.0306,-0.6700000000000556,0.06846423663265537,1.7849528860548534,0.27044173140988276,0.11229853896237547
0.478,0.0213,-1.67,0.06842562394899447,1.7841377153457558,0.270279538709015,0.11221572652635717
0.4790000000000001,0.0296,-1.67,0.06852792281392106,1.7913587646119151,0.2707092454174081,0.11294930622158567
0.48,-0.0248,-1.67,0.0679709362920335,1.7970342652177123,0.2683696217557832,0.11352587506237471
0.4810000000000001,-0.0179,0.33,0.06758098267787964,1.7730987679620238,0.26673162035582343,0.11109429010362674
0.482,0.001,0.33,0.06743936911812268,1.7690952708040346,0.26613677214640624,0.1106875785418085
0.4830000000000001,0.0305,0.33,0.0671600045216671,1.7690952708040344,0.2649633002679974,0.1106875785418085
0.484,0.0255,0.33,0.06700668337388785,1.7682727897767425,0.2643192742977528,0.11060402345734734
0.4850000000000001,0.0115,0.33,0.06711075481150207,1.7674499260087813,0.2647564267033737,0.11052042949061672
0.486,0.0072,0.33,0.06735482644861192,1.7674499260087815,0.26578165039348844,0.11052042949061672
0.4870000000000001,-0.0205,2.33,0.06754204243293664,1.7714571416536427,0.2665680517327455,0.11092751881006624
0.488,-0.0529,0.33,0.06758505739166976,1.7754553130064807,0.2667487362040946,0.11133368932828049
0.4890000000000001,-0.0311,0.33,0.06799313650898417,1.7754553130064807,0.2684628738378892,0.11133368932828049
0.49,-0.0511,-0.67,0.06793163026745097,1.7754553130064805,0.2682045166741628,0.11133368932828044
0.4910000000000001,-0.0547,0.33,0.06777145653391023,1.7706357577433356,0.26753170639557156,0.11084407518070169
0.492,-0.0317,0.33,0.06797246954369587,1.781078765378707,0.26837606218428106,0.11190497063731163
0.4930000000000001,0.0132,-2.67,0.06830794812111207,1.7786268057503827,0.26978524101868323,0.11165587833360884
0.494,-0.0311,-1.67,0.06815384348953003,1.777808734374267,0.26913792402222614,0.11157277122151942
0.4950000000000001,0.0571,0.33,0.06828944586968325,1.7778087343742672,0.2697075222525459,0.11157277122151942
0.496,0.0695,-1.67,0.06970783473015958,1.77381586762837,0.275665469184744,0.11116713959340269
0.4970000000000001,0.0354,-0.67,0.0698570238380931,1.7698139926226542,0.27629213850843803,0.11076059282452887
0.498,0.0252,0.33,0.06984109670526381,1.7706357577433358,0.2762252365361911,0.11084407518070169
0.4990000000000001,-0.022,0.33,0.0694710531167302,1.7714571416536427,0.2746708672623496,0.11092751881006624
0.5,-0.0818,-0.67,0.06748238913348538,1.7569259116607119,0.266317477858144,0.10945130463722215
0.5010000000000001,-0.1677,3.33,0.06568604922994753,1.7024765289220085,0.25877194636414025,0.10391984236316902
0.502,-0.0878,2.33,0.0656737839877612,1.6471106283769203,0.2587204261752182,0.09829527189551444
0.5030000000000001,0.0685,4.33,0.06296651921905214,1.6471106283769203,0.24734855187978602,0.09829527189551444
0.504,0.1804,0.33,0.06137699712511632,1.5560641855806292,0.24067175925463416,0.08904594824512087
0.5050000000000001,0.0787,-3.67,0.060332498538315,1.4855263912380767,0.2362843396094825,0.08188007916313027
0.506,0.0233,-1.67,0.06075637645741971,1.4950421353926173,0.23806484016058543,0.08284677478304164
0.5070000000000001,0.0068,-1.67,0.0612585435514112,1.50365216151611,0.2401741946404935,0.08372145934850796
0.508,-0.008,-1.67,0.05756100894877926,1.5206056584410503,0.22464268874933116,0.0854437493715852
0.5090000000000001,0.0061,-0.67,0.05750961884258843,1.476686796858912,0.2244268244443745,0.08098207297156464
0.51,-0.0064,0.33,0.05811797269039698,1.477671585344257,0.22698221672236,0.08108211672009985
0.5110000000000001,-0.0177,-0.67,0.05811467525140051,1.4786557179581008,0.22696836581933857,0.08118209383925776
0.512,0.0131,0.33,0.0581945225250733,1.4602196987039107,0.22730376454706366,0.07930919574824263
0.5130000000000001,0.0036,-1.67,0.058248546465114376,1.4553557656860723,0.22753069227950853,0.07881507330573842
0.514,-0.0048,-0.67,0.05822192547615041,1.464199180763479,0.22741887073046121,0.0797134676384936
0.5150000000000001,-0.028,1.33,0.05819751128963833,1.4593485112135474,0.2273163188621513,0.07922069261938812
0.516,-0.049,3.33,0.05813412164393446,1.4366207714454229,0.22705005045319915,0.07691180262323917
0.5170000000000001,-0.0399,1.33,0.05821978643300893,1.436620771445423,0.2274098856729232,0.0769118026232392
0.518,-0.098,2.33,0.05845779449657803,1.4415479196737395,0.22840963930304103,0.07741234704032451
0.5190000000000001,-0.0593,2.33,0.05747202407642644,1.4226310979830437,0.22426890750920744,0.07549060467587534
0.52,-0.0944,0.33,0.05602844543722419,1.4095349087783577,0.21820515083113162,0.07416017496527202
0.5210000000000001,0.002,1.33,0.05644143180241664,1.404495459336756,0.21993990137528893,0.0736482219721226
0.522,0.1271,0.33,0.05558860385129305,1.3983979810532987,0.2163575948466102,0.07302878481057277
0.5230000000000001,0.0771,1.33,0.05571799997709295,1.3922737990533036,0.21690112368572484,0.0724066348432357
0.524,0.0617,0.33,0.055904881094637565,1.3861225593888498,0.21768611841600408,0.07178173611287049
0.5250000000000001,-0.0352,2.33,0.055948074815997756,1.3799439002231482,0.2178675537803383,0.07115405186081343
0.526,0.0021,0.33,0.055878904973410116,1.3799439002231473,0.2175770056359407,0.07115405186081335
0.5270000000000001,0.0133,0.33,0.05587628239552748,1.385072680955881,0.21756598948918032,0.07167507993694693
0.528,0.044,-1.67,0.05624633843099677,1.3850726809558807,0.2191204110464148,0.07167507993694688
0.5290000000000001,0.0346,-3.67,0.057079838849027925,1.3767777283984275,0.22262153221069608,0.07083240340272791
0.53,0.0431,-1.67,0.05704696881852118,1.3684324957035907,0.2224834615427178,0.06998461895600228
0.5310000000000001,0.0042,-0.67,0.05747211490378009,1.3589660257213219,0.22426928902979615,0.06902292905353519
0.532,0.0112,0.33,0.05745475011754372,1.4265871815628015,0.2241963481898275,0.07589249953627156
0.5330000000000001,0.004999999999988209,0.33,0.05785592785042961,1.4911449675111375,0.22588149653631903,0.08245086511377124
0.534,-0.0481,0.33,0.05783204833073767,1.5092032593063924,0.2257811905376924,0.08428539022269031
0.5350000000000001,-0.0690999999999958,-0.67,0.0577911793042029,1.545628100013683,0.22560952006138665,0.08798575599501991
0.536,-0.0502,1.33,0.058472340339639606,1.553957869372481,0.22847073916321328,0.08883196953578433
0.5370000000000001,0.026000000000011434,1.33,0.06058932519880045,1.6529493544821392,0.23736314081596693,0.09888842266334841
0.538,0.0775,0.33,0.06176364659007419,1.7007667374738835,0.24229588156535797,0.1037461462363059
0.5390000000000001,0.011199999999990452,0.33,0.06156478368412894,1.7390357005429948,0.24146055729468752,0.10763385468838818
0.54,-0.0318,0.33,0.06152685871505984,1.7464432438518631,0.241301253341156,0.10838638014038554
0.5410000000000001,-0.055100000000007844,2.33,0.061321915347542964,1.7529898522559093,0.2404403880722611,0.10905144401418114
0.542,-0.0904,1.33,0.06111381078837899,1.752989852255909,0.23956624420777034,0.1090514440141811
0.5430000000000001,-0.019899999999985367,0.33,0.061041367279474776,1.752989852255909,0.239261945017569,0.1090514440141811
0.544,0.046,-0.67,0.06102755296263714,1.7341149286824797,0.23920391793563356,0.1071339580405918
0.5450000000000002,0.14019999999998606,-0.67,0.0609561873876265,1.727496792403119,0.23890414661019013,0.10646162771630688
0.546,0.0774,-0.67,0.06071464661108538,1.727496792403119,0.23788955380796617,0.10646162771630688
0.5470000000000002,-0.002400000000006861,-0.67,0.060317431963337706,1.720007654497593,0.2362210524132375,0.10570081314493887
0.548,-0.0333,-0.67,0.06021452185181939,1.726654496315545,0.23578877816158636,0.10637605963825617
0.5490000000000002,-0.02399999999999818,-0.67,0.06016807236953059,1.7266544963155448,0.23559366696308764,0.10637605963825612
0.55,-0.0158,0.33,0.06014265494591019,1.7274967924031188,0.23548690099410458,0.10646162771630684
0.5510000000000002,-0.03919999999999536,-0.67,0.059766827262315025,1.7315964690222463,0.23390823561050947,0.10687811006034638
0.552,-0.0183,1.33,0.057676256015365746,1.6991629073986525,0.22512678442009326,0.10358321462700362
0.5530000000000002,0.06539999999998741,-1.67,0.0579416239787404,1.71588028946167,0.2262414633966052,0.10528151796032652
0.554,0.0087,0.33,0.05755785986609588,1.6678434208466106,0.22462946101747602,0.10040149704653616
0.5550000000000002,-0.10529999999999665,2.33,0.05513275664666616,1.6687154025110758,0.21444280720970946,0.10049008085480082
0.556,-0.0902,-1.67,0.05483267821811633,1.6340330486241146,0.21318232681352467,0.09696673270186171
0.5570000000000002,-0.07639999999995806,2.33,0.05490814986527299,1.659974973731211,0.21349934570811324,0.09960214880446183
0.558,0.1125,0.33,0.054946426071256015,1.668496101568244,0.21366012503342194,0.1004678022754869
0.5590000000000002,0.08559999999998356,-0.67,0.055146483363185894,1.6684961015682438,0.21450046632623015,0.10046780227548688
0.56,0.0116,-0.67,0.05546888589823168,1.6684961015682438,0.21585471920295105,0.10046780227548688
0.5610000000000002,0.0334999999999865,0.33,0.055852617161265154,1.6693677423098856,0.21746658359718424,0.10055635144971824
0.562,-0.0273,-0.67,0.05642886599239937,1.6736098179779095,0.2198871186502344,0.10098729998101673
0.5630000000000002,0.028199999999988897,-1.669999999999889,0.05646581284500874,1.6897192034771038,0.22004231402245725,0.10262383750752266
0.5640000000000001,-0.0218,-0.67,0.05723232365278789,1.68206187471405,0.2232620451152203,0.10184593658298663
0.5650000000000002,-0.037199999999984655,-0.669999999999889,0.05780230949949067,1.7015143215968822,0.22565627248219122,0.10382209261374954
0.5660000000000001,0.0319,0.33000000000011104,0.05815592949342788,1.7040772403117261,0.22714165439454959,0.10408245714810352
0.5670000000000002,-0.05599999999999754,1.329999999999889,0.058081042637239545,1.6719799381015117,0.22682709191628858,0.10082172199658304
0.5680000000000001,-0.0449,0.33000000000011104,0.05795376544751596,1.6677337166486406,0.22629246367492056,0.1003903522988484
0.5690000000000002,0.006800000000014632,1.329999999999778,0.057136925088334026,1.6514098782190452,0.2228613231409705,0.09873202869811339
0.5700000000000001,0.0727,-0.669999999999889,0.05683112231954234,1.6401414585321044,0.2215767976353428,0.09758728039700537
0.5710000000000002,-0.021599999999974778,0.33,0.05611776687146305,1.6479935801539312,0.21858034580053107,0.09838497014733451
0.5720000000000001,0.092,0.33,0.05616284332810674,1.6479935801539312,0.21876968960042842,0.09838497014733451
0.5730000000000002,0.046399999999984655,0.33,0.054732114473503166,1.6531707177760546,0.21275990848354207,0.09891091075499546
0.5740000000000001,-0.0227,0.329999999999889,0.05429265353660654,1.6531707177760546,0.21091395141650415,0.09891091075499546
0.5750000000000002,0.01469999999999245,-0.669999999999778,0.05401801190001051,1.6531707177760546,0.20976031834604864,0.09891091075499546
0.5760000000000001,-0.0193,1.329999999999778,0.05390466644251449,1.6367016399896923,0.20928421039033598,0.09723783242276018
0.577,-0.0712,-0.67,0.05393373803985602,1.6419143827339389,0.2094063257276892,0.09776739012174303
0.5780000000000001,-0.0994,-0.67,0.05392695072882038,1.6428001273267994,0.20937781560603672,0.09785737209313408
0.579,-0.0222,-0.67,0.05375169998373424,1.6401414585321044,0.20864167429236288,0.09758728039700537
0.5800000000000001,-0.074,0.33,0.05364170026919402,1.6048417097688903,0.20817962014060687,0.09400121167140935
0.581,0.0112,4.33,0.053471713473978326,1.5976881721091756,0.20746559006515253,0.09327449041764198
0.5820000000000001,0.0681,4.33,0.05347599216025916,1.6048417097688903,0.20748356270052148,0.09400121167140935
0.583,-0.0254,2.33,0.05357770048755076,1.6048417097688903,0.20791078885369538,0.09400121167140935
0.5840000000000001,-0.0131,3.33,0.053577571952714835,1.6057479041027305,0.2079102489427071,0.09409327111301317
0.585,0.0898,-1.67,0.05345152341066268,1.6057479041027303,0.20738078163980156,0.09409327111301315
0.5860000000000001,0.159,-5.67,0.05312326268334792,1.6128656948570417,0.2060019214077709,0.09481636087182674
0.587,0.1217,-4.67,0.05288763040978049,1.6084634238550288,0.20501214729113237,0.09436913824517824
0.5880000000000001,0.0189,-3.67,0.0528242779852472,1.6031419163616856,0.20474603522982593,0.09382853123624706
0.589,-0.0224,-1.67,0.052308568888431405,1.6040490709801227,0.20257979752386393,0.09392068823227213
0.5900000000000001,-0.01,-1.67,0.052300163466206195,1.6040490709801227,0.20254449052099893,0.09392068823227213
0.591,-0.0212,0.33,0.0522214738469287,1.6040490709801227,0.20221395452425348,0.09392068823227213
0.5920000000000001,-0.0111,0.33,0.05202715257853838,1.5870703381844637,0.20139770741661747,0.09219583452050253
0.593,-0.0018,-0.67,0.05126451323584509,1.5987128698514226,0.1981942384252951,0.09337858851055787
0.5940000000000001,-0.01,-0.67,0.05143277334304318,1.6040490709801227,0.19890101554222445,0.09392068823227213
0.595,-0.0176,0.33,0.05172284197156301,1.6084634238550288,0.20011944974145823,0.09436913824517824
0.5960000000000001,0.0035,0.33,0.049809736624470545,1.612865694857042,0.19208344462939506,0.09481636087182675
0.597,-0.0026,-1.67,0.04944515846038526,1.612865694857042,0.19055203288838007,0.09481636087182675
0.5980000000000001,-0.0084,0.33,0.049595593495922595,1.6172559826489854,0.19118393573494769,0.09526236613528238
0.599,-0.0134,-0.67,0.04949013744889683,1.6216343845581167,0.19074096727307757,0.09570716392293088
0.6000000000000001,-0.0468,1.33,0.04954573073297911,1.6260009966013023,0.19097448704017275,0.09615076398903666
0.601,-0.0599,0.33,0.049588596757177694,1.6469995431989526,0.19115454591153452,0.09828398685535
0.6020000000000001,-0.1038,3.33,0.0494697549159217,1.646116058235622,0.19065535037830808,0.0981942344376264
0.603,-0.0157,-1.67,0.04945237568590058,1.6409166631177703,0.19058234886717557,0.09766603271162502
0.6040000000000001,0.0721,-0.67,0.0494611102383121,1.6382549377152593,0.1906190383824379,0.09739563049754422
0.605,-0.0536,1.33,0.049806422835820326,1.6391426597660146,0.19206952504960093,0.0974858133570481
0.6060000000000001,-0.0369,3.33,0.04929790871214511,1.6391426597660146,0.18993350985126334,0.0974858133570481
0.607,-0.0215,2.33,0.04847499876173986,1.6364780489562563,0.18647687398002158,0.09721511801712214
0.6080000000000001,0.0477,-1.67,0.04885918888299389,1.6198392639235621,0.18809066580967368,0.09552479928318715
0.609,0.0601,-0.67,0.04758238222527418,1.6251060958694517,0.18272743537171288,0.09605985185398071
0.6100000000000001,-0.0656,-0.67,0.0470614448069148,1.6294634044983332,0.18053923608443198,0.09650250679485907
0.611,-0.0823,1.33,0.047092073287958336,1.6285704063634834,0.18066789111674092,0.09641178794286719
0.6120000000000001,0.0243,2.33,0.046989224981253866,1.6285704063634834,0.18023587647640749,0.09641178794286719
0.613,0.0935,0.33,0.04709863957251678,1.6329184707909234,0.180695472815971,0.09685350377389793
0.6140000000000001,0.0812,-2.67,0.047146045103465345,1.6258884691558013,0.18089459989991422,0.09613933243025166
0.615,0.07,-1.67,0.04727581012026407,1.6249935064539236,0.18143967826684596,0.09604841399971815
0.6160000000000001,0.0393,-0.67,0.047188551486494056,1.6249935064539243,0.18107314809739491,0.09604841399971822
0.617,0.0111,-0.67,0.04741207874971847,1.624993506453924,0.18201207507948028,0.0960484139997182
0.6180000000000001,-0.0147,0.33,0.04759503562902801,1.6206241798301588,0.18278058603453723,0.09560453816188995
0.619,-0.0063,1.33,0.04742412797752706,1.6258884691558022,0.18206268789931973,0.09613933243025174
0.6200000000000001,-0.0294,-1.67,0.0477503074155559,1.6258884691558042,0.18343280566906686,0.09613933243025195
0.621,-0.0225,1.33,0.04721780220576473,1.624993506453927,0.18119601583698275,0.09604841399971849
0.6220000000000001,-0.0163,1.33,0.04724534257525017,1.624993506453927,0.1813116992468428,0.09604841399971849
0.623,-0.0337,1.33,0.04636882417595539,1.624993506453927,0.17762988091506338,0.09604841399971849
0.6240000000000001,-0.0286,0.33,0.04616217053642565,1.6588778260222474,0.1767618316431237,0.09949069058664659
0.625,0.0047,0.33,0.046527340542611914,1.6597545179286832,0.17829572941877148,0.09957975290402286
0.6260000000000001,0.0179,1.33,0.04665274339541564,1.6588778260222488,0.17882248450192967,0.09949069058664671
0.627,-0.01,-0.67,0.046612725114106426,1.6537185551915068,0.17865438758365718,0.09896656504974533
0.6280000000000001,-0.0064,1.33,0.04607202587121805,1.6528386617175639,0.17638317868941447,0.09887717748809642
0.629,0.0033,1.33,0.045066308782219004,1.6519582995802078,0.17215866084946982,0.0987877423153662
0.6300000000000001,-0.0054,-0.67,0.045130708222083274,1.6519582995802078,0.17242917090201335,0.0987877423153662
0.631,0.008,-1.67,0.044667784962644466,1.659754517928686,0.17048466027430695,0.09957975290402314
0.6320000000000001,0.0349,0.33,0.0448890084347615,1.6029136440764886,0.1714139101744981,0.09380534126658592
0.633,-0.0047,-0.67,0.044417883962302875,1.543981619368719,0.16943495032534528,0.08781849155390986
0.6340000000000001,-0.0311,0.33,0.04438257775310202,1.5688644777821672,0.1692866464809925,0.0903463180537089
0.635,-0.0358,-1.67,0.044875409047988674,1.5413899053220101,0.1713567859069854,0.08755520172850816
0.6360000000000001,-0.0054,-0.67,0.04507716016363569,1.5385560067412123,0.1722042421117197,0.08726730860098822
0.637,-0.0014,0.33,0.04224506195805352,1.431676666423395,0.16030800456656202,0.0764095355812133
0.6380000000000001,0.024,-0.67,0.04046417403970587,1.3557508638078377,0.15282737918563177,0.0686963037377854
0.639,-0.0059,0.33,0.040457295037451525,1.3074142994347926,0.1527984839147227,0.06378583701000029
0.6400000000000001,0.014,0.33,0.040404775591675136,1.3074142994347926,0.15257787581523502,0.06378583701000029
0.641,0.032,0.33,0.0405014000161858,1.3074142994347884,0.15298374701856315,0.06378583700999986
0.6420000000000001,-0.0175,2.33,0.04044944936536167,1.3139340669341766,0.1527655281440865,0.06444817414119436
0.643,0.0462,1.33,0.04045173936962592,1.3343927068211314,0.15277514731430217,0.06652654838569592
0.6440000000000001,0.0715,1.33,0.04066239210063127,1.339695883320043,0.1536599947827397,0.06706529316591035
0.645,-0.0144,1.33,0.040677120298130746,1.3386095926999373,0.15372186062330992,0.06695493790967894
0.6460000000000001,-0.0485,-0.67,0.0410395549130134,1.3482190022029217,0.1552442683790627,0.06793114890543561
0.647,-0.0386,1.33,0.04112309236337448,1.349297556515026,0.15559516770573628,0.06804071823731496
0.6480000000000001,0.0084,1.33,0.041122649008295195,1.3492975565150285,0.1555933053913117,0.0680407182373152
0.649,0.0337,1.33,0.04135596039870957,1.3972263841206598,0.15657333063086368,0.07290976336519867
0.6500000000000001,0.0261,-2.67,0.04166328800944735,1.4022919568514038,0.1578642612399493,0.07342437019905476
0.651,0.0192,0.33,0.04139978142540486,1.4022919568514027,0.15675740099325874,0.07342437019905465
0.6520000000000001,-0.0128,0.33,0.041519012817583245,1.4022919568514023,0.1572582328363771,0.07342437019905461
0.653,-0.0659,1.33,0.04019887521409045,1.3714845324800464,0.15171299062249802,0.07029467254042955
0.6540000000000001,-0.0591,-0.67,0.04058703936035378,1.3620392749841168,0.1533434753568763,0.06933513759476863
0.655,-0.0778,2.33,0.04048093748434926,1.367235221301187,0.15289779408832113,0.06986298896029841
0.6560000000000001,0.0103,1.33,0.040209045635298715,1.3620392749841168,0.15175571150922057,0.06933513759476863
0.657,0.098,0.33,0.04101417216436349,1.3463311239429618,0.15513764806240377,0.06773936110458786
0.6579999999999999,0.0181,1.33,0.040967744040175884,1.3747959863178896,0.15494262657867724,0.07063108006343491
0.6590000000000003,0.04889999999998743,1.33,0.04069008564500393,1.3747959863178896,0.15377632160420204,0.07063108006343491
0.6600000000000001,0.0206,0.33,0.04052759803949828,1.3747959863178896,0.1530937918990424,0.07063108006343491
0.661,0.0123,0.33,0.04018429156566018,1.3799439002231306,0.15165173196075402,0.07115405186081165
0.6619999999999999,-0.0421,1.33,0.03945820419603558,1.3737374515821434,0.14860179964888443,0.07052354450174354
0.6630000000000003,-0.035100000000002705,-0.67,0.0395722972248287,1.3601705790068312,0.14908104778021483,0.06914529850422037
0.6640000000000001,-0.0412,0.33,0.03845939047942005,1.3799439002231306,0.14440627944665413,0.07115405186081165
0.665,-0.0237,-0.67,0.037878422656852026,1.3611052476930352,0.14196592225503565,0.06924025062886219
0.6659999999999999,0.056,0.33,0.037312818611372284,1.3611052476930352,0.13959010065807728,0.06924025062886219
0.6670000000000003,-0.06979999999997784,-0.67,0.03715483212748553,1.3600360573091959,0.13892647792863358,0.0691316325697674
0.6680000000000001,-0.0199,1.33,0.0372028740178051,1.3589660257213074,0.1391282780421443,0.06902292905353372
0.669,0.0562,1.33,0.037360962850048425,1.3589660257213074,0.1397923306861862,0.06902292905353372
0.6699999999999999,0.0148,0.33,0.03740574937325117,1.3589660257213074,0.13998045661974015,0.06902292905353372
0.6710000000000003,0.027099999999994937,0.33,0.037664469055674554,1.350510733370301,0.14106720947091245,0.06816396374845163
0.6720000000000002,0.0157,0.33,0.03784206886173862,1.345250191295709,0.14181321802271607,0.06762955015984742
0.673,-0.0152,3.33,0.037808806390886955,1.339968997183851,0.14167349890781733,0.06709303854993841
0.6739999999999999,-0.0624,-0.67,0.037855137598788224,1.333576518813327,0.141868113294374,0.06644363260324583
0.6750000000000003,-0.03709999999998281,0.33,0.03774634962787354,1.33466690587826,0.14141114907558175,0.06655440401350655
0.6760000000000002,0.0016,0.33,0.038060530139513486,1.3410541866495447,0.14273086531676332,0.06720328194091475
0.677,0.0084,0.33,0.038417725848361235,1.3357564028530895,0.14423126703100764,0.06666508500033949
0.6779999999999999,0.0271,0.33,0.038543286954512104,1.3443044989433763,0.14475868685785523,0.06753347815119137
0.6790000000000003,0.032899999999969225,-0.67,0.03879827888557453,1.3379327352284116,0.14582978127754662,0.06688617658713791
0.6800000000000002,-0.0364,-1.67,0.0389402654787638,1.3315304811051663,0.14642619641508597,0.06623577753079636
0.681,-0.0458,-0.67,0.039176201994720834,1.3304375235221604,0.1474172485028524,0.06612474498398954
0.6819999999999999,-0.0204,-0.67,0.03919606575458291,1.3271532502490617,0.14750068628950594,0.06579109870933834
0.6830000000000003,0.018400000000021892,-3.67,0.03914295337850577,1.3271532502490617,0.14727758758439888,0.06579109870933834
0.6840000000000002,0.0677,-1.67,0.0394776714164301,1.332485239473179,0.14868357177023978,0.06633277054757385
0.685,0.0994,1.33,0.0397310195493248,1.338882928152241,0.14974776141048496,0.06698270580467666
0.6859999999999999,0.023,0.33,0.039763164948408876,1.3292060258156992,0.14988278826186122,0.06599963827457904
0.6870000000000003,-0.007800000000004174,-0.67,0.03975995571018785,1.3281111553437042,0.14986930784647834,0.06588841139915459
0.6880000000000002,-0.0172,-0.6700000000001111,0.039785824796537354,1.3377959774125283,0.14997797102619553,0.06687228348750682
0.6890000000000001,-0.0089,-1.67,0.04034741648195534,1.3377959774125283,0.15233693869191758,0.06687228348750682
0.69,0.0298,-1.6699999999996669,0.042174070753757294,1.3377959774125283,0.16000980578649848,0.06687228348750682
0.6910000000000003,-0.005600000000002798,1.330000000000111,0.04231953494479974,1.3377959774125283,0.16062082858491142,0.06687228348750682
0.6920000000000002,-0.0119,2.329999999999889,0.042242991587292514,1.338882928152241,0.16029930796757724,0.06698270580467666
0.6930000000000001,-0.0413,1.329999999999889,0.042309221704534654,1.3282489103187796,0.1605775077862852,0.06590240579926285
0.694,-0.0148,0.32999999999977797,0.04223549325358519,1.3228998465476436,0.16026781119292466,0.06535899937363754
0.6950000000000003,0.05729999999998632,-1.669999999999889,0.04189374521732389,1.3228998465476436,0.15883229747664804,0.06535899937363754
0.6960000000000002,0.0265,-0.6700000000001111,0.04193675644495519,1.316424484014239,0.15901296627549205,0.0647011733017382
0.6970000000000001,-0.0018,-1.670000000000222,0.041689029857621074,1.3357564028530895,0.1579723899553033,0.06666508500033949
0.698,-0.0446,-3.669999999999445,0.04157387664348709,1.3293436673333958,0.15748868851206727,0.06601362114865744
0.6990000000000003,-0.05219999999997811,1.33,0.04160270475994375,1.3228998465476436,0.15760978110718699,0.06535899937363754
0.7000000000000002,-0.0029,1.329999999999889,0.04147579881610755,1.3175290661797683,0.157076712285353,0.06481338677909823
0.7010000000000001,0.0678,0.32999999999977797,0.04139595037307704,1.3175290661797683,0.1567413086457371,0.06481338677909823
0.702,0.0018,-1.6699999999997779,0.04138678201390659,1.3272911046418134,0.15670279692380032,0.06580510320919608
0.7030000000000003,-0.05810000000000337,0.33000000000011104,0.04136767175728399,1.3337137092888072,0.15662252422990738,0.06645756965636393
0.7040000000000002,-0.0657,1.33,0.040934536536223635,1.347546971436815,0.1548031383524148,0.06786287792341986
0.7050000000000001,0.0263,-0.67,0.040504827025050344,1.3464670148622861,0.15299814218022864,0.06775316613700184
0.706,0.089,-2.67,0.039772073024336864,1.3261946532635807,0.14992020666320788,0.06569371573097373
0.7069999999999999,0.0093,-3.67,0.039900483710497155,1.3208372702864128,0.1504595961599734,0.06514946416492624
0.7080000000000002,-0.0006,-1.67,0.03877704842886761,1.3272911046418134,0.14574060267643743,0.06580510320919608
0.7090000000000001,-0.0477,-0.67,0.03887699043334867,1.3219381652309001,0.14616040938501218,0.06526130306092164
0.71,-0.0392,1.33,0.03873614162817562,1.315458068814972,0.14556877352966377,0.06460299607828884
0.7109999999999999,-0.0316,0.33,0.03877119425231801,1.3252353628858418,0.14571601218916969,0.06559626231153298
0.7120000000000002,-0.0385,1.33,0.038898004185379566,1.3349410486144782,0.14624867771743857,0.06658225391972813
0.7130000000000001,-0.0065,2.33,0.03867164937856408,1.3285243774174034,0.14529787362948085,0.06593039024623247
0.714,0.0464,1.33,0.03871663672582955,1.3371187080841684,0.14548684312515076,0.06680348032481215
0.7149999999999999,0.0253,-1.67,0.03876887638346665,1.3467387555652466,0.145706275973667,0.0677807720228934
0.7160000000000002,0.0191,0.33,0.03873113474521493,1.3467387555652466,0.14554774210181862,0.0677807720228934
0.7170000000000001,-0.0218,0.33,0.03884419576542669,1.3478184944041263,0.14602265527781158,0.06789046168974884
0.718,-0.0373,0.33,0.038563752659303306,1.3467387555652466,0.1448446531161034,0.0677807720228934
0.7189999999999999,-0.0193,1.33,0.039890948174022035,1.360439582497162,0.1504195421085973,0.06917262631922047
0.7200000000000002,0.0531,-0.67,0.03949420396643497,1.394624329843811,0.14875301679926367,0.07264542308541076
0.7210000000000001,0.0431,-0.67,0.03968144118749738,1.4007382351017348,0.14953950734350513,0.07326652904805561
0.722,-0.004,-0.67,0.04093310528472167,1.4099242672954728,0.15479712637591597,0.07419972953577725
0.7229999999999999,0.0387,0.33,0.041496607206973214,1.4190508362075789,0.15716411799754987,0.07512688920388816
0.7240000000000002,-0.0001,-0.67,0.041507607650805176,1.380341605620484,0.1572103253969505,0.071194454383136
0.7250000000000001,0.0491,1.33,0.04104332302505209,1.388615269368486,0.15526009634569912,0.07203496820695467
0.726,0.0553,-0.67,0.04119748123538312,1.3978809686650955,0.1559076383998622,0.07297626200174154
0.7269999999999999,-0.0326,-1.67,0.0414323413768686,1.4171282109686874,0.15689416917322793,0.07493157148968915
0.7280000000000002,-0.0448,0.33,0.04217580025709419,1.4558585480650867,0.16001707057078116,0.07886615050113885
0.7290000000000001,-0.0333,0.33,0.04322134208755441,1.4935849013782418,0.1644088723642493,0.08269873573154923
0.73,-0.0432,0.33,0.04407971136907451,1.554428759076198,0.16801445526893194,0.08887980678389146
0.7309999999999999,-0.0147,1.33,0.04406282941669261,1.5816768558910146,0.16794354257410896,0.09164791565840712
0.7320000000000002,0.0283,0.33,0.043825458537117376,1.5861534731004223,0.16694646543738959,0.09210269104728613
0.7330000000000001,0.0516,1.33,0.04410475067116284,1.5861534731004223,0.16811963293721358,0.09210269104728613
0.734,-0.0545,1.33,0.045460843062149654,1.6120770013696335,0.1738159033506344,0.09473623823219415
0.7349999999999999,-0.0392,0.33,0.045319082369200986,1.6695869287623328,0.17322043710777618,0.10057861839806022
0.7360000000000002,0.0022,0.33,0.04450274880163697,1.757238299010318,0.16979142535363353,0.10948303977823433
0.7370000000000001,0.0145,-1.67,0.0460619337920462,1.776686436560432,0.17634078687866575,0.11145875802788466
0.738,0.0713,-0.67,0.046381506178526606,1.7831220126436056,0.17768315170731136,0.11211254223121904
0.7389999999999999,0.123,0.33,0.04636515567664578,1.7895344450695991,0.17761447137201314,0.11276397529189333
0.7400000000000002,0.0378,0.33,0.04649082880740182,1.7823060045507912,0.178142361758572,0.11202964472616586
0.7410000000000001,-0.0192,-0.67,0.046483054160489125,1.7758674713337814,0.17810970432941903,0.11137556011034867
0.742,-0.0294,-1.67,0.04679082478579486,1.7783232355481853,0.17940249582261025,0.11162503891842136
0.7429999999999999,-0.0387,-0.67,0.04700386985148744,1.7638485718563546,0.18029739230053152,0.11015457126362359
0.7440000000000002,-0.0471,1.33,0.046890110894215624,1.7638485718563555,0.17981954743769182,0.11015457126362367
0.7450000000000001,-0.0238,0.33,0.04687103461493674,1.7646731149298112,0.17973941746573954,0.11023833582944143
0.746,-0.0169,2.33,0.04658138963877799,1.7944052047374472,0.17852276281959964,0.11325879124743823
0.7469999999999999,-0.0231,0.33,0.04742560790432439,1.7935943300179287,0.18206890433655193,0.1131764152370154
0.7480000000000002,-0.0175,0.33,0.04750158290705689,1.7863823175456313,0.1823880375778422,0.11244375358129093
0.7490000000000001,0.0088,-0.67,0.04729123997947162,1.7565144315396295,0.1815044914396588,0.10940950275349444
0.75,0.004,-2.67,0.0475019573300061,1.75164276218736,0.18238961034263454,0.10891459438395316
0.7509999999999999,0.0171,-1.67,0.04848088776080874,1.7998678040273506,0.18650161073939264,0.11381373164107635
0.7520000000000002,-0.0027,1.33,0.04881958890875164,1.8774922160670482,0.18792432599157013,0.12169952363992552
0.7530000000000001,-0.028,2.33,0.04894018596461705,1.8850303310363088,0.18843089430936144,0.12246531374575717
0.754,0.0017,0.33,0.0486827354293693,1.885801889659471,0.1873494725149482,0.12254369567042882
0.7549999999999999,0.0136,0.33,0.04828295000908118,1.8881146737929777,0.18567017258196422,0.1227786492647407
0.7560000000000002,-0.0335,-0.67,0.04829896517881391,1.9219014739943077,0.18573744435350487,0.12621101894965508
0.7570000000000001,-0.0273,1.33,0.04751623432582644,1.9594703651686711,0.1824495809091125,0.13002760774747968
0.758,-0.0331,-0.67,0.04757001268898614,1.9263426116932354,0.18267547709508394,0.12666219000798248
0.7589999999999999,0.036,0.33,0.047874588610711075,1.9374481349810353,0.1839548492256949,0.12779038981503774
0.7600000000000002,0.0264,-1.67,0.048140207631392665,1.9433514077124263,0.18507058276922533,0.12839009781473792
0.7610000000000001,-0.0336,-1.67,0.04870637311949294,1.9726027943911446,0.1874487627077019,0.13136171904786642
0.762,0.0049,0.33,0.04867885242604895,1.9791363320076023,0.18733316194711672,0.132025455072478
0.7629999999999999,0.0399,-1.67,0.04853979057698854,1.992139124945347,0.18674903220661876,0.13334639674297621
0.7640000000000002,0.046,-1.67,0.048644551097131825,1.9784936515871778,0.1871890791056007,0.13196016576484876
0.7650000000000001,0.0166,-0.67,0.04857694309620196,1.9806982061182081,0.18690509148206788,0.13218412441426095
0.766,-0.0632,-0.67,0.0485201087742048,1.9741698375487189,0.1866663587312531,0.13152091350833497
0.7669999999999999,-0.052,0.33,0.04861318368556154,1.9784936515871747,0.18705732019325746,0.13196016576484842
0.7680000000000002,-0.1039,2.33,0.04866199593935699,1.9792287759344864,0.18726235622100557,0.1320348463652403
0.7690000000000001,0.0,3.33,0.048647041930974896,1.9835415622998045,0.18719954186110271,0.13247297833067118
0.77,0.0413,1.33,0.04870960531190772,1.9835415622998045,0.18746233954224883,0.13247297833067118
0.7709999999999999,0.1041,-1.67,0.04851166128463991,1.9871130549462948,0.18663087502439363,0.13283580295498187
0.7720000000000002,0.07,-1.67,0.048322420454360894,1.990678139957647,0.18583596831324753,0.13319797663358393
0.7730000000000001,0.0181,-0.67,0.04847559273462837,1.9906781399576465,0.18647936896503417,0.13319797663358388
0.774,0.0085,-1.67,0.04852616272154696,1.990678139957646,0.18669178835637212,0.13319797663358382
0.7749999999999999,-0.0514,-1.67,0.04868682818939741,1.9964240218504719,0.1873666641664996,0.13378169544402205
0.7760000000000002,-0.044,2.33,0.04845788518274868,2.0093149448225183,0.18640498833688762,0.1350912723484984
0.7770000000000001,-0.0792,3.33,0.04814671209516405,2.025627158121615,0.18509790479004218,0.13674841496301193
0.778,-0.0982,3.33,0.04810267820986207,2.0234715538822674,0.18491294031439084,0.1365294291283155
0.7789999999999999,-0.0925,4.33,0.04793286737549466,2.023471553882268,0.18419964936304092,0.13652942912831553
0.7800000000000002,-0.0343,3.33,0.047818160988976295,2.0507825031001152,0.18371782482062937,0.13930392312014037
0.7810000000000001,0.0044,1.33,0.047702856613267036,2.054945122601865,0.1832334884227143,0.13972679977322686
0.782,0.0537,-0.67,0.048279960358282074,2.0507825031001143,0.18565761454424748,0.13930392312014028
0.7829999999999999,0.1118,-4.67,0.04829815347594436,2.050782503100115,0.18573403479301248,0.13930392312014034
0.7840000000000003,0.05739999999999689,-4.67,0.04807257845874069,2.04661141723043,0.18478650621380624,0.1388801863765905
0.7850000000000001,0.0504,-5.67,0.04778599072751084,2.043143932612361,0.18358269353474085,0.138527927831388
0.786,0.1211,-2.67,0.04785683222439198,2.043855803985956,0.18388026346832986,0.1386002461837542
0.7869999999999999,0.055,-1.67,0.047948563901702684,2.04456742750232,0.18426558267143975,0.13867253935653426
0.7880000000000003,0.012200000000010303,-1.67,0.04799058663290791,2.042431813122368,0.18444209928789335,0.13845558427310717
0.7890000000000001,0.0354,0.33,0.047467097594869834,2.048032502029863,0.18224318191401404,0.1390245530628763
0.79,-0.0284,-0.67,0.04590007135333958,2.0480325020298635,0.17566088318863934,0.13902455306287634
0.7909999999999999,-0.0538,-1.67,0.0457801295424066,2.0480325020298635,0.17515706722927651,0.13902455306287634
0.7920000000000003,-0.046199999999990714,-0.67,0.04574537605797526,2.051491723877518,0.17501108510708094,0.13937597220089862
0.7930000000000001,-0.0253,1.33,0.04565892772454827,2.051491723877518,0.17464795860680513,0.13937597220089862
0.794,0.0066,-0.67,0.04559289606043335,2.050782503100115,0.17437059239109096,0.13930392312014034
0.7949999999999999,0.0239,-3.67,0.04541711229386883,2.04661141723043,0.17363221211899718,0.1388801863765905
0.7960000000000003,0.09299999999997069,0.33,0.04536696395184575,2.04661141723043,0.17342156384838764,0.1388801863765905
0.7970000000000002,0.027,0.33,0.04533585784994385,2.0340468400425493,0.1732909025681398,0.1376037626375425
0.798,0.0016,-1.67,0.04528120050956905,2.034046840042549,0.17306131423557297,0.13760376263754245
0.7989999999999999,-0.0687,0.33,0.04524912834241743,2.034046840042549,0.17292659499516255,0.13760376263754245
0.8000000000000003,-0.09689999999999636,4.33,0.04555856134657151,2.0375298062247644,0.1742263693160082,0.1379575939404827
0.8010000000000002,-0.0887,5.33,0.04555892316479535,2.021313650827494,0.17422788913461143,0.13631020975909278
0.802,-0.0343,2.33,0.04561117856063113,2.0191534415869543,0.17444738809148141,0.13609075610659782
0.8029999999999999,0.0296,-0.67,0.04596610172997123,2.028317332804723,0.17593824399627592,0.1370217073131132
0.8040000000000003,0.021300000000003462,-1.67,0.04606827910161,2.015638721821248,0.17636744037172603,0.13573369898657187
0.8050000000000002,0.0291,-3.67,0.04614987562093476,2.0163603038697153,0.1767101868113912,0.1358070038373887
0.806,-0.0201,-4.67,0.04613105364837846,2.022752508651102,0.17663112505563822,0.13645638199041463
0.8069999999999999,0.0245,-0.67,0.04603963100750322,2.0227525086511013,0.1762471039610611,0.1364563819904146
0.8080000000000003,0.054000000000006924,-2.67,0.04611105914915143,2.022752508651102,0.1765471380978652,0.13645638199041463
0.8090000000000002,0.0696,-1.67,0.046022132311304496,2.022752508651102,0.17617360063186857,0.13645638199041463
0.81,0.0839,-3.67,0.04617298058220353,2.022752508651102,0.17680723927489095,0.13645638199041463
0.8109999999999999,0.0272,-1.67,0.04620759618701926,2.0297512258374963,0.17695264223332138,0.13716737517594052
0.8120000000000003,-0.01160000000000928,-2.67,0.046130362071316405,2.0367258937626613,0.17662822008398335,0.1378759252193311
0.8130000000000002,-0.0325,0.32999999999977797,0.04623444931942998,2.049983787762859,0.1770654389016572,0.13922278237008004
0.8140000000000001,-0.0385,-1.6699999999997779,0.04696110275044024,2.0478538218685016,0.18011774895618266,0.1390064011110638
0.815,-0.0091,0.33000000000011104,0.04674209501896937,2.0415402125622397,0.1791978062816425,0.13836500739943455
0.8160000000000003,-0.03549999999999791,1.329999999999778,0.046767628849986226,2.0408275334756483,0.17930506122026565,0.13829260699225446
0.8170000000000002,-0.0308,-0.669999999999778,0.046774993100756286,2.0464326129899013,0.1793359947791126,0.1388620218196905
0.8180000000000001,-0.0353,1.33,0.04654597382390737,2.047143340761719,0.17837399857628147,0.1389342239946132
0.819,-0.0313,1.33,0.0455066745373272,2.0338669312071045,0.17400841860829125,0.13758548586586986
0.8200000000000003,-0.029699999999988676,1.33,0.045536653347079674,2.006325733326205,0.17413434469427003,0.13478760112599125
0.8210000000000002,-0.0042,1.329999999999778,0.045364733929505345,2.002062028590351,0.17341219663243437,0.13435445531775944
0.8220000000000001,0.0388,-0.669999999999889,0.04441747078784963,1.9963323741819483,0.1694332147847367,0.13377238504240785
0.823,0.0446,0.32999999999977797,0.04386802999429763,1.9905862277456252,0.16712528697905138,0.13318863935724118
0.8240000000000003,0.03959999999997651,-1.670000000000111,0.04383107611073573,1.9905862277456252,0.16697006207329,0.13318863935724118
0.8250000000000002,-0.0133,-2.67,0.04382628706819774,1.9883926362118294,0.16694994568483512,0.13296579442854653
0.8260000000000001,-0.0065,-2.669999999999556,0.04358194502044809,1.9883926362118294,0.1659235861339655,0.13296579442854653
0.827,-0.0253,1.329999999999889,0.04363647660150479,1.9790438837625115,0.16615264621411555,0.1320160633410331
0.8280000000000003,-0.01949999999999307,0.3300000000003331,0.04291375863281745,1.9790438837625113,0.16311686708162917,0.13201606334103308
0.8290000000000002,-0.0039,3.329999999999778,0.04183529471218031,1.9645671563920082,0.15858677594337214,0.13054538603903365
0.8300000000000001,-0.0277,1.329999999999889,0.0408043936909105,1.9645671563920082,0.15425647291560324,0.13054538603903365
0.831,-0.0758,0.33,0.04071495235638421,1.9404491614589998,0.15388077430466404,0.12809526131056886
0.8320000000000003,-0.031099999999976417,0.33,0.04072107629276055,1.9360403834433082,0.15390649791894434,0.127647377642438
0.8330000000000002,0.022,0.33,0.0406939562173204,1.9690049823889328,0.15379257995556206,0.13099622066462718
0.8340000000000001,0.0153,-0.67,0.039367200387866515,1.9478375708862545,0.14821953786242542,0.1288458429692856
0.835,0.0472,-0.67,0.039110203965217014,1.9264375890331065,0.14714002356942946,0.1266718386678196
0.8359999999999999,0.0298,-0.67,0.03878516136853423,1.8491955310280688,0.14577468110538222,0.11882488966060181
0.8370000000000002,0.0248,1.33,0.03699194614798948,1.8375567185417172,0.13824227485225674,0.11764251349865369
0.8380000000000001,-0.0086,-1.67,0.036613213013313724,1.831312446236695,0.13665140511213103,0.11700816366864922
0.839,-0.0218,0.33,0.03672187328549832,1.8250468097079184,0.13710783293200027,0.11637164346697537
0.8399999999999999,-0.0179,0.33,0.03678508488555799,1.8297230499473616,0.1373733534596561,0.11684669837426455
0.8410000000000002,0.0074,1.33,0.0390797293872657,1.8436806082289698,0.14701201500755023,0.11826463377021049
0.8420000000000001,-0.0088,-1.67,0.03991757004944044,1.8413120134323826,0.15053136738119932,0.11802401042241764
0.843,0.0301,0.33,0.039856527071255046,1.8451588263826129,0.1502749561566429,0.11841480458094189
0.8439999999999999,0.0251,0.33,0.04141087526693499,1.8413120134323826,0.1568040007099884,0.11802401042241764
0.8450000000000002,0.0108,0.33,0.042439964126995945,1.859098912657196,0.16112669174881986,0.11983096501190475
0.8460000000000001,-0.0024,-0.67,0.042381146466283375,1.8241492572413143,0.1608796279774054,0.1162804619446461
0.847,-0.0064,0.33,0.04136282982018555,1.8249465556038662,0.15660218565768266,0.1163614587455609
0.8479999999999999,0.0044,0.33,0.04192057269585839,1.8397312560745553,0.15894498638579496,0.11786342274906945
0.8490000000000002,0.0538,1.33,0.042010918766347626,1.8373575700523104,0.1593244853430321,0.11762228218838568
0.8500000000000001,0.0044,-0.67,0.04146711927124485,1.8373575700523104,0.15704025382947492,0.11762228218838568
0.851,-0.0276,1.33,0.04031740195488427,1.7861774634146559,0.15221086257522812,0.11242294264018968
0.8519999999999999,-0.057,2.33,0.0397578818605541,1.7052526028447148,0.1498605966344775,0.10420186113732344
0.8530000000000002,-0.0415,-0.67,0.03970445897930378,1.6901522694295341,0.14963619365140018,0.1026678322758296
0.8540000000000001,-0.0274,-0.67,0.03963554886468741,1.6892913531245664,0.14934673649517424,0.10258037258716977
0.855,0.0031,-1.67,0.03979754792807674,1.6867059676755454,0.15002721407761613,0.10231772567813549
0.8559999999999999,-0.0168,-0.67,0.040218347690744186,1.6806579350295112,0.15179478482278697,0.1017033116530156
0.8570000000000002,0.0376,1.33,0.040197123113109336,1.649647159136355,0.15170563091673875,0.09855295570196125
0.8580000000000001,-0.0167,-0.67,0.04018032270185617,1.6539398155355878,0.15163506073568708,0.09898904268281422
0.859,-0.0517,0.33,0.040372026297305234,1.63303051381925,0.15244031229978464,0.09686488612119162
0.8599999999999999,0.0319,2.33,0.04013821775598456,1.6651148594909353,0.15145819877626512,0.10012430502998407
0.8610000000000002,0.0206,2.33,0.03930528994891356,1.6260009966012898,0.1479594828661482,0.0961507639890354
0.8620000000000001,-0.0313,2.33,0.03922466927070106,1.6260009966012898,0.14762083545018745,0.0961507639890354
0.863,0.0915,1.33,0.03939605766037918,1.6056339572628733,0.1483407529276514,0.09408169535927244
0.8639999999999999,0.0076,0.33,0.03926345046991153,1.613654002860709,0.14778373600115863,0.09489644435052373
0.8650000000000002,0.0227,0.33,0.03907495590881584,1.6056339572628757,0.1469919639960972,0.09408169535927269
0.8660000000000001,0.0639,-1.67,0.039065722478884186,1.6056339572628755,0.14695317894422047,0.09408169535927267
0.867,-0.0239,-0.67,0.03891515887946027,1.600303040936942,0.14632073606463725,0.09354013251576822
0.8679999999999999,-0.0352,0.33,0.03882253136135638,1.6047276985829322,0.14593165387941842,0.09398962938080793
0.8690000000000002,0.0166,0.33,0.03878411183623489,1.6003030409369432,0.1457702725416115,0.09354013251576833
0.8700000000000001,-0.0116,0.33,0.039044563807259784,1.5949543068528342,0.14686430187657934,0.09299675958274221
0.871,0.0482,-0.67,0.039154372985746894,1.5949543068528342,0.14732555568103659,0.09299675958274221
0.8719999999999999,-0.0061,-0.67,0.03915507466417825,1.6065397047169527,0.1473285030835254,0.09417370940277599
0.8730000000000002,0.0009,-0.67,0.03915805278524685,1.613654002860716,0.1473410126905724,0.09489644435052445
0.8740000000000001,-0.0053,1.33,0.03896417048848075,1.6136540028607165,0.14652660948464394,0.0948964443505245
0.875,-0.0226,-1.67,0.03893637096924844,1.60563395726288,0.14640983751544567,0.09408169535927312
0.8759999999999999,-0.0491,1.33,0.0396386403332692,1.6010975342351172,0.14935972221881189,0.09362084435279552
0.8770000000000002,-0.0054,3.33,0.04000585698985926,1.5794888602914128,0.15090221695600833,0.09142563921547531
0.8780000000000001,-0.0227,2.33,0.03992682843735471,1.5794888602914137,0.15057025726916165,0.0914256392154754
0.879,-0.0071,4.33,0.040102729606192634,1.5848897884926543,0.1513091306898793,0.091974314500435
0.8799999999999999,-0.0212,1.33,0.04040048662340446,1.5576978950522429,0.15255985999033495,0.08921191527457942
0.8810000000000002,-0.0082,0.33,0.04041876070005683,1.5741856322288355,0.15263662030759603,0.09088688919695591
0.8820000000000001,0.0516,-3.67,0.03986320490290185,1.5751094637618286,0.1503030064097734,0.09098074038525782
0.883,0.0432,-3.67,0.03979351671814417,1.5832841371860038,0.15001028096743735,0.09181119787392257
0.8839999999999999,0.0357,-3.67,0.03973828083975146,1.5914168201001213,0.14977826248408108,0.09263738958562955
0.8850000000000002,0.0006,-1.67,0.03971456924013896,1.5914168201001213,0.14967866183428372,0.09263738958562955
0.8860000000000001,0.0326,-1.67,0.03943776108543551,1.5905024606020592,0.14851592829760818,0.0925445006525681
0.887,0.0152,-0.67,0.03935905017357081,1.5976881721091827,0.14818530286128226,0.0932744904176427
0.8879999999999999,0.0308,-0.67,0.03928658608358022,1.5932439648498078,0.14788091722016197,0.09282300752551743
0.8890000000000002,-0.0413,1.33,0.03936983537055188,1.5851206563847373,0.14823060611559924,0.09199776815539149
0.8900000000000001,-0.1349,2.33,0.03933278760036842,1.586038118524885,0.14807498683878456,0.09209097228298378
0.891,-0.0975,1.33,0.03929977582093649,1.5869550502551522,0.14793632075399393,0.0921841225267284
0.8919999999999999,-0.0406,1.33,0.03939778376734677,1.5815611748037788,0.14834800344547394,0.09163616372408424
0.8930000000000002,0.1153,-0.67,0.03941549426652054,1.5733775495455489,0.1484223964537387,0.09080479682690343
0.8940000000000001,0.0932,-2.67,0.03943333523183484,1.5733775495455484,0.1484973374854429,0.09080479682690337
0.895,-0.0082,-0.67,0.03953004764401911,1.5743018552775487,0.1489035782812746,0.09089869618864245
0.8959999999999999,0.0104,-0.67,0.039986297337672956,1.57522561864855,0.15082005657461678,0.09099254045243084
0.8970000000000002,-0.0732,2.33,0.04004425442419011,1.5743018552775476,0.15106350550137868,0.09089869618864234
0.8980000000000001,-0.0275,1.33,0.04012412742542094,1.5824807005973496,0.15139901229779335,0.09172957749631312
0.899,0.0139,0.33,0.040372488779386616,1.5833996923959077,0.1524422549572425,0.0918229370204841
0.8999999999999999,0.0015,-0.67,0.040205239228979124,1.5789152675530778,0.1517397226873351,0.09136736846136967
0.9010000000000002,0.0584,-0.67,0.04020358717362679,1.5779936641177716,0.1517327832235586,0.09127374362344456
0.9020000000000001,0.0276,-0.67,0.040125780444752394,1.57256905161974,0.15140595581076724,0.09072266227274835
0.903,0.0181,0.33,0.039750669564996774,1.5607315080527406,0.14983030136398626,0.08952009720470078
0.9039999999999999,-0.0416,1.33,0.039632207858404635,1.5597991608255868,0.14933270258762774,0.08942538091492999
0.9050000000000002,-0.0648,3.33,0.03972949318461029,1.5588662559680446,0.1497413499106335,0.08933060797600542
0.9060000000000001,-0.0153,3.33,0.0397293877526636,1.5560641855806259,0.1497409070434052,0.08904594824512052
0.907,-0.0214,1.33,0.03970094349544921,1.5551290401540054,0.1496214268502569,0.08895094768886211
0.9079999999999999,0.0668,0.33,0.039828554172179585,1.5579327924783664,0.15015745590486052,0.08923577828616046
0.9090000000000003,0.054399999999984856,-3.67,0.040010266814176895,1.5569987693518144,0.15092074043711912,0.08914089174332472
0.9100000000000001,0.0203,-0.67,0.03967916369639617,1.5624774397240702,0.14952994073487075,0.08969746478330823
0.911,0.0102,-1.67,0.03963270382460984,1.54504193660866,0.1493347858952545,0.08792620819854857
0.9119999999999999,0.0386,-0.67,0.039581583897501695,1.5274074185076463,0.14912005647839638,0.0861347338660484
0.9130000000000003,-0.004199999999996581,-1.67,0.03947399268090446,1.5152170934320166,0.14866811922993148,0.08489633005185128
0.9140000000000001,0.0035,0.33,0.03853237432572119,1.5095669108538863,0.14471284832581457,0.08432233324600275
0.915,-0.0034,0.33,0.038525794341010174,1.5274074185076463,0.14468520907904994,0.0861347338660484
0.9159999999999999,-0.0095,0.33,0.03923002470052921,1.54504193660866,0.14764333095026103,0.08792620819854857
0.9170000000000003,-0.015200000000006928,1.33,0.038791453378556065,1.5450419366086598,0.1458011107135465,0.08792620819854856
0.9180000000000001,-0.0308,-0.67,0.038916427584049285,1.54504193660866,0.1463260652623098,0.08792620819854857
0.919,-0.0548,0.33,0.038826640762563425,1.5505628551474662,0.14594891543229502,0.08848707319057389
0.9199999999999999,-0.0417,1.33,0.038806013134573006,1.551500752780816,0.1458622690151321,0.08858235334096044
0.9210000000000003,-0.004799999999980504,2.33,0.03878845751489038,1.5734938322817058,0.14578852657866387,0.09081660988218199
0.9220000000000002,0.0391,-1.67,0.038589642687736556,1.5807568625012973,0.14495340426311012,0.09155445438351957
0.923,0.0217,0.33,0.038633832813793616,1.5798363333676588,0.1451390250285515,0.09146093868290413
0.9239999999999999,-0.0366,0.33,0.03865200389308092,1.5870703381844629,0.14521535270505212,0.09219583452050244
0.9250000000000003,-0.07539999999999067,2.33,0.03871916190379159,1.58259631447116,0.14549745014323406,0.09174132260248645
0.9260000000000002,-0.0544,0.33,0.03866198470512688,1.5753417649708021,0.14525727713788367,0.09100433964954738
0.927,0.0036,1.33,0.0384049501685947,1.569907989207552,0.14417760274740196,0.09045232741123935
0.9279999999999999,0.0424,1.33,0.038433618638678814,1.539620060537811,0.14429802474742462,0.08737540483895098
0.9290000000000003,0.04919999999999165,-1.67,0.03837435154397333,1.52192272045699,0.14404907312708956,0.08557754847980871
0.9300000000000002,0.0304,-2.67,0.03879790286830381,1.4587276783240635,0.14582820181580172,0.07915762278215688
0.931,0.0361,-0.67,0.038753789754134634,1.4587276783240635,0.14564290453904102,0.07915762278215688
0.9319999999999999,0.0205,-1.67,0.03887917363220659,1.4597245827981007,0.14616957991877788,0.07925889738274206
0.9330000000000003,0.0064999999999942265,-1.67,0.03874105966530774,1.4199467479603611,0.1455894317603227,0.07521790404762253
0.9340000000000002,-0.0065,-0.67,0.03851210192670312,1.3790219999917774,0.144627694049083,0.07106039687165148
0.935,0.0055,0.33,0.03837881702830918,1.3401055332430234,0.14406783040828436,0.06710690912151097
0.9359999999999999,0.0163,-1.67,0.038379148931121404,1.3315304811051798,0.14406922456710566,0.06623577753079773
0.9370000000000003,0.006500000000009148,-0.67,0.038242557591373336,1.3315304811051798,0.14349547220885356,0.06623577753079773
0.9380000000000002,0.0271,0.329999999999889,0.03862547490542218,1.3315304811051798,0.14510391760778082,0.06623577753079773
0.9390000000000001,-0.0136,-0.67,0.038664780398743714,1.3315304811051798,0.14526902045783768,0.06623577753079773
0.94,-0.0079,-0.669999999999889,0.038478207552073526,1.3250972946272919,0.14448532062034966,0.06558223608524721
0.9410000000000003,0.02879999999998068,0.33,0.03605568152396653,1.3044928809546343,0.13430949231295378,0.06348905281710567
0.9420000000000002,-0.0147,0.33,0.034711311264856985,1.2990460009922955,0.12866246075186963,0.06293570933537034
0.9430000000000001,-0.0322,0.329999999999889,0.03447263585029783,1.29357618597701,0.1276599039117896,0.06238003590288541
0.944,-0.0372,-0.67,0.03250908502572612,1.2935761859770103,0.11941200241068559,0.06238003590288544
0.9450000000000003,-0.06109999999998246,-0.669999999999889,0.031159206019534244,1.2678803227016637,0.11374183133991266,0.05976961699347556
0.9460000000000002,-0.0216,0.32999999999977797,0.03133516784609497,1.2678803227016637,0.11448095955358839,0.05976961699347556
0.9470000000000001,0.0262,-1.669999999999889,0.03183406417037278,1.2734605123290323,0.11657657515488244,0.06033650328039598
0.948,0.045,-0.67,0.031354661495736645,1.2734605123290323,0.11456284269108072,0.06033650328039598
0.9490000000000003,0.03929999999998361,-0.669999999999889,0.03142839623865185,1.2667324479059097,0.11487256571386345,0.05965300545797809
0.9500000000000002,0.0024,0.33,0.031398410264825524,1.2667324479059097,0.11474660953516959,0.05965300545797809
0.9510000000000001,-0.0118,0.33000000000011104,0.031405496886767956,1.2655835319967312,0.11477637691324062,0.05953628815673378
0.952,-0.0161,1.329999999999889,0.03086780990310278,1.264433572136135,0.11251782102347219,0.05941946480143352
0.9530000000000003,-0.028000000000004886,0.33,0.03114592994824949,1.2700289060144234,0.11368606516013874,0.05998788957875397
0.9540000000000002,-0.039,0.33000000000011104,0.03138179087133292,1.2700289060144228,0.11467679971979851,0.05998788957875391
0.9550000000000001,-0.0028,1.329999999999889,0.031113119421743978,1.2644335721361344,0.11354824443890742,0.05941946480143345
0.956,-0.0076,0.32999999999977797,0.03052427448319104,1.2208316553933425,0.11107479939647127,0.05498998653357931
0.9570000000000003,0.049299999999996624,-1.6699999999997779,0.03063255787477341,1.1743756575983593,0.11152964412816885,0.050270564819661745
0.9580000000000002,0.0417,0.33000000000011104,0.030590973886999114,1.1780859219550652,0.11135497045489619,0.05064748713326026
0.9590000000000001,0.0066,1.329999999999889,0.02991502554505111,1.2069029347291547,0.10851564728869406,0.053574980724431474
0.96,-0.0253,0.33,0.029439313967386794,1.1805529533830519,0.10651741928949475,0.050898110567107045
0.9610000000000003,0.004099999999993073,0.33,0.029647998771679618,1.1805529533830519,0.10739400047549987,0.050898110567107045
0.9620000000000002,-0.0115,1.33,0.03000620355928655,1.1708099152403302,0.10889864082829047,0.04990832436182068
0.9630000000000001,0.0319,0.33,0.02977671463014206,1.1708099152403302,0.10793467184949387,0.04990832436182068
0.964,0.0025,2.33,0.02982847866257823,1.1828601714317426,0.10815210683283667,0.05113249870802669
0.9649999999999999,-0.0773,2.33,0.029930930719057298,1.1840893561196757,0.10858245702283455,0.051257370440030973
0.9660000000000002,0.0256,-1.67,0.029987765655245986,1.1840893561196764,0.10882119235356277,0.051257370440031036
0.9670000000000001,0.0394,-0.67,0.030000551016264577,1.1912842587558743,0.10887489730329862,0.05198829392338074
0.968,-0.0233,1.33,0.030058556285532965,1.1840893561196764,0.10911854862186077,0.051257370440031036
0.9689999999999999,0.0107,-0.67,0.029963183571473172,1.1828601714317433,0.1087179352322737,0.05113249870802676
0.9700000000000002,0.0005,-2.67,0.029524005907172995,1.1828601714317424,0.10687316805268064,0.05113249870802667
0.9710000000000001,-0.0278,-1.67,0.02923395910168165,1.17685046687856,0.10565482552114759,0.05052197839829863
0.972,-0.0194,0.33,0.029230394048053956,1.1647380365806626,0.10563985050201419,0.04929148784230021
0.9729999999999999,-0.0118,-1.67,0.028969665059731267,1.153601255904753,0.10454465755500346,0.04816011262618763
0.9740000000000002,0.0235,-0.67,0.028929246425926737,1.1536012559047546,0.10437487895479754,0.04816011262618779
0.9750000000000001,-0.0084,-0.67,0.0289093958884931,1.1768504668785553,0.10429149670899683,0.05052197839829816
0.976,0.021,0.33,0.027923107690641144,1.1609851159720568,0.10014858998828145,0.04891023211964785
0.9769999999999999,0.0159,1.33,0.027394991950262956,1.1609851159720568,0.09793023813646624,0.04891023211964785
0.9780000000000002,-0.0079,0.33,0.027874879047547096,1.1647380365806639,0.0999460054191459,0.04929148784230035
0.9790000000000001,0.0577,0.33,0.02844242369311475,1.2129145824993877,0.10232997851296285,0.05418569844377676
0.98,0.0106,1.33,0.02807103632172735,1.2129145824993877,0.10076996467495823,0.05418569844377676
0.9809999999999999,-0.0322,-0.67,0.02790872571432762,1.1950951285664615,0.10008817845090705,0.052375436651696874
0.9820000000000002,-0.0397,1.33,0.027692919615894616,1.1938772751865705,0.09918168424615367,0.05225171605676336
0.9830000000000001,0.0096,1.33,0.02762083859926751,1.1830148401326828,0.09887890770591845,0.05114821135785292
0.984,0.0157,-1.67,0.027685556507752257,1.172051737655554,0.09915075548691801,0.05003447994881508
0.9849999999999999,-0.0016,-0.67,0.027680659136908592,1.170809915240312,0.09913018406506967,0.049908324361818836
0.9860000000000002,0.0034,-1.67,0.027675376325188857,1.172051737655554,0.09910799359759208,0.05003447994881508
0.9870000000000001,0.0564,-0.67,0.027864976388828004,1.172051737655554,0.09990440926961311,0.05003447994881508
0.988,0.0354,-0.67,0.027885067952738166,1.1780859219550373,0.09998880394789718,0.05064748713325742
0.9889999999999999,0.0166,0.33,0.027962286348941243,1.2244011536908648,0.10031316006742627,0.05535260855382872
0.9900000000000002,-0.0127,0.33,0.027946069954227562,1.2301785841603516,0.10024504304971137,0.05593953235489902
0.9910000000000001,0.0029,-0.67,0.028393201949557714,1.2508441527934802,0.10212322242216515,0.05803892829873499
0.992,-0.0018,-0.67,0.02828135711382551,1.2611224884246544,0.10165341783295744,0.05908309487922192
0.9929999999999999,0.0112,-0.67,0.028400326045097977,1.2622754647567103,0.1021531472082034,0.059200224675059074
0.9940000000000002,-0.0087,-0.67,0.028244764998523172,1.2690271592091293,0.10149971253592416,0.05988612305022915
0.9950000000000001,-0.0341,-0.67,0.02810224323175701,1.2690271592091293,0.10090104940006821,0.05988612305022915
0.996,-0.057,1.33,0.02848911558912237,1.2690271592091298,0.1025261079710606,0.05988612305022919
0.9969999999999999,-0.0483,2.33,0.028540481931985585,1.2791593986064242,0.10274187245808382,0.060915447849864995
0.9980000000000002,-0.0349,0.33,0.028423918509999372,1.2701729602407603,0.10225224743226682,0.06000252391395341
0.9990000000000001,0.0017,0.33,0.028268055081030332,1.2701729602407603,0.10159754260177618,0.06000252391395341
1.0,0.0069,0.33,0.028426799564936774,1.3121363025468318,0.10226434931272012,0.06426554092505754
1.001,-0.0072,0.33000000000022206,0.029355190134868186,1.3538734882226409,0.10616405686269828,0.0685055828939224
1.0020000000000002,0.0499,1.33,0.03245288675172256,1.4217368777824655,0.11917594138149652,0.07539976167535996
1.0030000000000001,0.0425,0.32999999999977797,0.03564737782253709,1.4544816648599883,0.13259441131286775,0.07872627421381106
1.004,0.0077,-0.67,0.035590512990245717,1.454481664859988,0.13235555040346483,0.07872627421381104
1.005,-0.024,-0.669999999999778,0.037043746873059905,1.4603449918760654,0.13845986396312673,0.07932192416535427
1.0060000000000002,-0.0299,0.33,0.03819761558428156,1.4633303624426846,0.14330669316472783,0.07962520519137746
1.0070000000000001,-0.0143,-1.670000000000222,0.038484420428124895,1.4643241334359745,0.14451141782601862,0.07972616146456077
1.008,0.0191,-2.67,0.03831702763772811,1.500021334513539,0.14380828387607933,0.08335260700201369
1.009,-0.0112,-2.669999999999556,0.03836731492587015,1.5000213345135385,0.14401951579030475,0.08335260700201363
1.0100000000000002,0.0406,-0.67,0.038787660233050296,1.4943136960197334,0.14578517759375176,0.08277277330299955
1.0110000000000001,0.0474,-0.67,0.038874198503248504,1.5000213345135394,0.14614868187372193,0.08335260700201373
1.012,-0.0105,-0.67,0.03894539374063511,1.505707337393095,0.14644773769543235,0.08393024275904983
1.013,-0.018,2.329999999999334,0.039067976935943924,1.5086029431989496,0.1469626487982902,0.08422440466631106
1.0140000000000002,-0.0249,-0.67,0.03900498740703931,1.5171360111938832,0.14669806108122946,0.08509127112689914
1.0150000000000001,-0.0187,0.33000000000022206,0.039079727876043954,1.4991732764073804,0.1470120086596585,0.083266453565841
1.016,-0.0129,1.33,0.03844429662645942,1.4991732764073804,0.14434287766915313,0.083266453565841
1.017,0.0242,0.33,0.039016120965989366,1.5086029431989496,0.1467448276311082,0.08422440466631106
1.0180000000000002,0.0196,0.33,0.03887327393964141,1.5132957424098503,0.14614479824134158,0.08470114178414716
1.0190000000000001,-0.0199,0.32999999999977797,0.03969160132582962,1.5161768558927782,0.14958218503697415,0.08499383142976831
1.02,0.0065,-0.67,0.039766593196612514,1.5377292006649492,0.14989718862937454,0.08718331413881489
1.021,0.0018,-1.6699999999995558,0.03980046046368224,1.5377292006649492,0.15003944819271617,0.08718331413881489
1.0220000000000002,-0.0022,0.33,0.039720465402326315,1.5293110404181716,0.14970342868235675,0.08632812104975006
1.0230000000000001,-0.0152,0.3300000000004441,0.04066044448383014,1.5469238578909297,0.15365181381215487,0.08811739083555968
1.024,-0.035,2.33,0.040677297476918894,1.5469238578909295,0.15372260486337463,0.08811739083555965
1.025,-0.0095,1.33,0.041109151917273615,1.5459831836070468,0.15553661081742834,0.08802182860782166
1.0260000000000002,0.0069,0.33,0.04147449449135083,1.5450419366086483,0.15707123346505242,0.08792620819854738
1.0270000000000001,0.0517,-1.67,0.04145566502275964,1.5450419366086483,0.15699214022218097,0.08792620819854738
1.028,0.0707,-3.67,0.041437242555913696,1.5395012192251682,0.15691475659143853,0.08736333186026109
1.029,0.0178,-1.67,0.04232541074452737,1.5450419366086485,0.16064550990040746,0.0879262081985474
1.0300000000000002,-0.0032,-1.67,0.04972769601622093,1.567125661913726,0.19173883279278467,0.09016967336291479
1.0310000000000001,-0.0098,0.33,0.050612716287528885,1.6032560403162113,0.19545636326507107,0.09384012498290263
1.032,-0.0042,0.33,0.05053754108284406,1.6032560403162113,0.1951405895780309,0.09384012498290263
1.033,-0.0199,0.33,0.050517005972973004,1.6059757735282145,0.19505433178352347,0.09411642015652986
1.0340000000000003,0.004099999999998046,0.33,0.05054256078634834,1.6015545639759827,0.19516167485861033,0.09366727358013589
1.0350000000000001,-0.0003,-0.67,0.05064214682578989,1.6015545639759827,0.19557998633490128,0.09366727358013589
1.036,-0.0362,-1.67,0.05068205566745049,1.6015545639759827,0.1957476235515807,0.09366727358013589
1.037,-0.0123,1.33,0.05079474582878752,1.5934736223607677,0.19622097893368756,0.09284633821897863
1.0380000000000003,-0.033999999999980504,3.33,0.050693225587131505,1.5979171908853078,0.19579454283482584,0.09329775622262464
1.0390000000000001,0.0099,1.33,0.05069085420795179,1.6023484367309253,0.19578458184901823,0.09374792237675195
1.04,0.0509,2.33,0.05072399629161657,1.6076725706989168,0.19592379527715453,0.09428879620680578
1.041,0.0139,-1.67,0.05132764029292874,1.6129791308201378,0.1984594038299105,0.09482788472607129
1.0420000000000003,-0.02979999999999236,-0.67,0.05174845751074075,1.6200651513373354,0.2002270478954718,0.09554774697597306
1.0430000000000001,-0.0126,1.33,0.051749182006136374,1.6200651513373354,0.2002300911406918,0.09554774697597306
1.044,0.0243,-0.67,0.051743383324907424,1.619166969914248,0.20020573376169543,0.09545650155853819
1.045,0.0771,-0.67,0.05176786426633563,1.6262260281331324,0.2003085660342434,0.09617362473357005
1.0460000000000003,0.027699999999985833,-1.67,0.051729015070382495,1.6332545768171107,0.20014537986273778,0.09688764847325768
1.0470000000000002,-0.0042,-0.67,0.05144927281291052,1.6280141064531402,0.19897032161802514,0.09635527395111287
1.048,-0.0336,-0.67,0.051234393974035765,1.6112879218324605,0.19806772237000353,0.09465607637412414
1.049,-0.0493,3.33,0.05114788066472149,1.6112879218324605,0.19770432293830595,0.09465607637412414
1.0500000000000003,-0.07320000000002913,3.33,0.051147650332981784,1.6165826143215796,0.1977033554290987,0.09519395927165526
1.0510000000000002,-0.1388,4.33,0.05114582635563892,1.6165826143215796,0.19769569380645266,0.09519395927165526
1.052,-0.1483,3.33,0.051183658532306366,1.6218600219533175,0.19785460798520507,0.09573008621656198
1.053,-0.0195,0.33,0.05106262494132778,1.6218600219533175,0.1973462060002786,0.09573008621656198
1.0540000000000003,0.10999999999999259,1.33,0.05090422527258193,1.621860021953318,0.19668084768651645,0.09573008621656202
1.0550000000000002,0.0933,-1.67,0.05092886773449951,1.6218600219533181,0.19678435842639522,0.09573008621656205
1.056,0.0476,-0.67,0.05087195141375806,1.628907409562249,0.19654528123959353,0.09644602378515678
1.057,0.0338,-3.67,0.050794232007688025,1.6298002230467308,0.19621882062652038,0.09653672387868908
1.0580000000000003,0.04610000000000502,0.33,0.05077959475422395,1.6227567127967117,0.19615733679666092,0.09582118020738878
1.0590000000000002,0.0574,0.33,0.0507542505426123,1.601440318768595,0.1960508783549541,0.09365566751551457
1.06,-0.0362,1.33,0.0507420283132673,1.5798363333676537,0.19599953884160923,0.09146093868290361
1.061,-0.0238,1.33,0.05059858282200373,1.5789152675530678,0.19539699559805582,0.09136736846136866
1.0620000000000003,0.033099999999995466,-1.67,0.05037826731089945,1.5779936641177614,0.19447155959099452,0.09127374362344352
1.0630000000000002,0.0229,-1.67,0.05042325925956213,1.5824807005973391,0.1946605484148481,0.09172957749631205
1.064,-0.0242,0.33,0.05046734886212723,1.5824807005973491,0.1948457469310409,0.09172957749631307
1.065,-0.0325,2.33,0.05068419479020638,1.5815611748037761,0.1957566089435393,0.09163616372408398
1.0660000000000003,-0.0711999999999591,2.33,0.050650879146173104,1.5824807005973487,0.1956166664745216,0.09172957749631303
1.0670000000000002,0.0209,1.33,0.05072979574743599,1.577993664117771,0.1959481559098206,0.0912737436234445
1.068,0.0836,-1.67,0.050733662518187936,1.5789152675530773,0.1959643982926967,0.09136736846136963
1.069,0.0267,-2.67,0.05078908953278032,1.5870703381844673,0.1961972196442693,0.0921958345205029
1.0700000000000003,0.016499999999987434,-2.67,0.05081542332523015,1.6085771702638612,0.19630783482344302,0.0943806936373171
1.0710000000000002,-0.0118,0.33,0.05096873313022906,1.6085771702638612,0.19695181314830268,0.0943806936373171
1.072,-0.089,2.33,0.05104001842452384,1.6085771702638656,0.1972512472543431,0.09438069363731756
1.073,-0.0166,-1.67,0.05113369304068593,1.60948126140396,0.19764472777829498,0.09447253941742009
1.0740000000000003,-0.0637999999999963,0.33,0.05111200559955173,1.610384844975528,0.1975536296126415,0.09456433363410696
1.0750000000000002,-0.0555,0.33,0.050997119174508956,1.5943862779376854,0.197071048817834,0.09293905405227192
1.076,-0.0167,0.33,0.05099017810989832,1.5899328411944762,0.19704189285379936,0.09248663354544708
1.077,-0.0098,0.33,0.05100316638578054,1.5899328411944766,0.1970964501480671,0.09248663354544712
1.0780000000000003,0.08670000000008024,1.33,0.05088096680366161,1.587185617739655,0.1965831504136368,0.09220754566355754
1.0790000000000002,0.2674,-2.67,0.05067785432857255,1.5506808487170187,0.19572997581422433,0.0884990600478298
1.08,0.0949,-3.67,0.05065554500372062,1.5597991608255937,0.19563626542403106,0.08942538091493069
1.081,-0.0167,-0.67,0.05067782413087761,1.5597991608255914,0.1957298489687104,0.08942538091493046
1.0820000000000003,-0.036999999999991824,-1.67,0.05073293078128601,1.560731508052745,0.1959613246295064,0.08952009720470123
1.0830000000000002,-0.0186,-0.67,0.05082345541900653,1.5616632986482615,0.196341573658968,0.08961475694678042
1.084,-0.0353,-1.67,0.05084977141424839,1.5616632986482615,0.1964521140809129,0.08961475694678042
