time_sec,bts_raw,diy_raw,bts_rms,diy_rms,bts_norm_rms,diy_norm_rms
0.0,-0.0026,-0.68,0.005860119481584364,0.8237682831854344,0.019049668342851676,0.0504456889580828
0.001,-0.0037,-0.68,0.0058799491704293804,0.8237682831854344,0.0191983913386281,0.0504456889580828
0.002,-0.0145,1.319999999999556,0.005934458802266438,0.8323504921310518,0.019607214482997036,0.05231863931769258
0.003,-0.0187,0.32,0.005935432460497246,0.834086783893943,0.01961451693590388,0.052697561376372486
0.004,-0.0097,0.32,0.005939790971931185,0.8323504921310518,0.01964720584406817,0.05231863931769258
0.005,0.0015,-0.68,0.005940953130394482,0.834086783893943,0.01965592205185032,0.052697561376372486
0.006,-0.0,-0.679999999999556,0.005944235200991698,0.834086783893943,0.01968053763585583,0.052697561376372486
0.007,0.0035,0.32,0.005978322851024506,0.834086783893943,0.019936195577414086,0.052697561376372486
0.008,0.0146,0.32,0.005983038734470521,0.8358194687743749,0.019971564781606114,0.05307569628201965
0.009000000000000001,0.024799999999999996,0.32,0.005988794234749367,0.8358194687743747,0.020014731129315958,0.05307569628201963
0.01,0.0235,-2.679999999998224,0.005989759060554442,0.8220101964492541,0.020021967338883073,0.05006201044295698
0.011,0.0096,1.32,0.006025738607824854,0.8323504921310519,0.02029181454115422,0.0523186393176926
0.012,0.0004,1.32,0.006028207069076318,0.8306105708664363,0.02031032804154977,0.051938925169633006
0.013000000000000001,-0.0010999999999999927,0.32,0.006034362788702079,0.8323504921310519,0.020356496041010485,0.0523186393176926
0.014,0.0032,0.3199999999995559,0.006037594081489509,0.834086783893943,0.02038073079059901,0.052697561376372486
0.015,-0.0005,-0.68,0.006038940278734998,0.8237682831854344,0.020390827292305107,0.0504456889580828
0.016,0.0005,0.32,0.006044642551724674,0.8323504921310519,0.02043359443446189,0.0523186393176926
0.017,0.0148,0.32,0.00614257682065165,0.8306105708664364,0.021168103078436626,0.051938925169633034
0.018000000000000002,0.0010000000000000063,-1.68,0.006166486144158882,0.8202483415105477,0.021347423401956323,0.04967750956888825
0.019,0.0028,-0.68,0.0061729535130383185,0.8202483415105477,0.02139592877599716,0.04967750956888825
0.02,-0.0052,-0.68,0.006172994501997621,0.8202483415105478,0.021396236193872892,0.04967750956888827
0.021,-0.0009,-0.68,0.006173177285574067,0.8526549707351347,0.0213976070737329,0.05674981557361746
0.022,-0.002,-0.68,0.006284475685729778,0.8609492763733876,0.02223234692394697,0.05855993495270948
0.023,-0.0057,-0.68,0.006323064697659968,0.8458408915726325,0.02252176515451857,0.055262735487512676
0.024,-0.0046,0.32,0.006332333719801125,0.8609492763733876,0.022591282974567337,0.05855993495270948
0.025,-0.0021,1.32,0.006332357913638419,0.8306105708664634,0.022591464428748983,0.05193892516963892
0.026000000000000002,-0.004699999999999992,0.32,0.006344203376566831,0.8459909946722755,0.02268030559750564,0.05529549344717507
0.027,-0.0025,1.32,0.006355129375664401,0.8442791847196336,0.022762250772255542,0.054921914210558906
0.028,-0.0076,0.32,0.0063558773201484444,0.8840178763453033,0.022767860368311778,0.06359434309714847
0.029,-0.0126,1.32,0.006376505951320043,0.8840178763453032,0.022922575444810727,0.06359434309714844
0.03,-0.0036,-0.68,0.006382984175463916,0.8856528817848427,0.02297116223351519,0.06395116079354271
0.031,-0.0072,-0.68,0.006383341119008253,0.8952584016350027,0.022973839316027762,0.06604743483809195
0.032,-0.001,0.32,0.00639764049774387,0.8952584016350027,0.02308108489410637,0.06604743483809195
0.033,0.0043,-0.68,0.006417738289692043,0.8952584016350029,0.023231818667610576,0.06604743483809199
0.034,0.0017,0.32,0.006434743601081418,0.8952584016350029,0.02335935878554714,0.06604743483809199
0.035,0.0024,0.32,0.006436321168139059,0.8968729157543989,0.023371190564688223,0.06639978058260591
0.036000000000000004,0.006299999999999922,-0.68,0.006458311051498951,0.8984845287090557,0.02353611505521442,0.06675149318737975
0.037,-0.0049,0.32,0.006460614238270552,0.8984845287090588,0.023553388994265213,0.06675149318738041
0.038,-0.0002,1.32,0.006531916558330838,0.9079543088800244,0.024088157579292217,0.06881814389339623
0.039,-0.0016,0.32,0.006641681214472801,0.9095462870736924,0.024911394323922458,0.06916557147867358
0.04,0.0049,-0.68,0.006839369189855088,0.9000932560825442,0.026394057423561504,0.0671025760533158
0.041,0.0038,0.32,0.006947766991261246,0.9000932560825442,0.027207042734965086,0.0671025760533158
0.042,0.0027,1.32,0.0069519975714046394,0.8984845287090588,0.02723877215632491,0.06675149318738041
0.043000000000000003,0.00920000000000003,1.32,0.007007786279698064,0.9000932560825442,0.027657188395366423,0.0671025760533158
0.044,0.0135,-0.68,0.00701270079426729,0.9095462870736923,0.027694047336282474,0.06916557147867355
0.045,0.0142,0.32,0.007012936560196009,0.9016991133194251,0.027695815584664746,0.06745303255097936
0.046,0.003,0.32,0.007033504836415966,0.9000932560825575,0.027850077998023682,0.0671025760533187
0.047,-0.0017,1.32,0.007048368651722446,0.9000932560825575,0.027961556859760976,0.0671025760533187
0.048,-0.0002,0.32,0.0070486032246112745,0.9000932560825575,0.027963316160324245,0.0671025760533187
0.049,-0.0038,0.32,0.007062479004309822,0.9079543088800438,0.0280673847385874,0.06881814389340046
0.05,-0.0048,0.32,0.0070659828710688015,0.9000932560825575,0.028093663797490932,0.0671025760533187
0.051000000000000004,-0.007999999999999938,1.32,0.007151346454046496,0.9079543088800375,0.028733892088004063,0.06881814389339909
0.052000000000000005,0.0011000000000000083,-0.68,0.007182228247313313,0.9204751209726221,0.02896550605055716,0.07155064081348259
0.053,0.0023,0.32,0.007121257308642437,0.9251782056862268,0.028508222997590232,0.07257702507672281
0.054,0.0012,-0.68,0.00689244712939738,0.9540271849613461,0.026792142851934403,0.07887292237427135
0.055,0.002,0.32,0.006831349729679975,0.9540271849613461,0.026333911339017555,0.07887292237427135
0.056,0.0064,-0.68,0.006981464805243892,0.9540271849613461,0.027459776899670617,0.07887292237427135
0.057,0.0024,-0.68,0.0073881778946167775,0.9525095528809878,0.030510131826859604,0.07854171981690249
0.058,-0.0026,0.32,0.007468679923591871,0.9525095528809896,0.031113898381586225,0.07854171981690287
0.059000000000000004,0.0011000000000000382,-0.68,0.007325105244544666,0.9614473605007222,0.03003708590346681,0.08049227474997167
0.06,0.0066,1.32,0.006895447487858417,0.9614473605007222,0.02681464559023837,0.08049227474997167
0.061,-0.0017,0.32,0.006483804859180612,0.9388757136587157,0.02372731903636602,0.07556631986614082
0.062,-0.0027,-0.68,0.006425649422659466,0.9297209403976531,0.023291152296297163,0.07356841513320966
0.063,0.002,-0.68,0.006467725782813011,0.9220454813323312,0.023606725696480684,0.07189335060056323
0.064,0.0013,0.32,0.006500087209436382,0.9220454813323312,0.023849436933789697,0.07189335060056323
0.065,-0.0026,1.32,0.006495970507203555,0.9220454813323329,0.023818561598651023,0.07189335060056361
0.066,-0.0109,0.32,0.00659118300143099,0.9297209403976419,0.024532656887161233,0.07356841513320722
0.067,-0.0054,0.32,0.0066109067698282235,0.9312757101576377,0.024680585477819584,0.0739077224839775
0.068,-0.0028,0.32,0.006450319557397602,0.9328278885439422,0.023476178716688313,0.07424646430268983
0.069,-0.0002,-0.68,0.006455987461434855,0.9328278885439422,0.023518688091130932,0.07424646430268983
0.07,0.0005,2.32,0.006524420492616305,0.9404153481381914,0.02403193696189799,0.07590232414782103
0.07100000000000001,0.011799999999999934,1.32,0.006506025347618906,0.9479420786010091,0.02389397306881137,0.07754493068610849
0.07200000000000001,0.006999999999999856,0.32,0.006505506611615249,0.9479420786010091,0.023890082540165964,0.07754493068610849
0.073,-0.0034,-1.68,0.006502704722135538,0.9464146887420255,0.02386906832251918,0.07721159862628856
0.074,0.0002,-0.68,0.006479886222144188,0.9448848298871815,0.023697929193490907,0.07687772774170755
0.075,0.0039,-1.68,0.006469314655402251,0.9448848298871815,0.02361864226729658,0.07687772774170755
0.076,-0.0037,0.32,0.0065320090606604915,0.9373335502276666,0.0240888513483014,0.07522976367518076
0.077,0.001,-2.68,0.006522150671913908,0.9464146887420255,0.024014913268920548,0.07721159862628856
0.078,-0.0051,0.32,0.006517917675673658,0.9373335502276667,0.02398316572679416,0.07522976367518078
0.079,0.0029,-0.68,0.0065557811909504535,0.9373335502276667,0.024267142720412326,0.07522976367518078
0.08,0.0007,1.32,0.006433733562365958,0.9281635662414996,0.023351783478401004,0.07322853940840526
0.081,0.0043,-0.68,0.006479835888538843,0.9404153481381913,0.023697551690614604,0.075902324147821
0.082,0.0051,-0.68,0.006450487039008479,0.9404153481381883,0.02347743483155233,0.07590232414782035
0.083,0.0047,-0.68,0.006543223520728603,0.9404153481381883,0.024172959985122693,0.07590232414782035
0.084,-0.0014,-0.68,0.006655941598700473,0.9479420786010061,0.025018347442543647,0.07754493068610782
0.085,-0.0053,-0.68,0.006653871568917854,0.9614473605007555,0.02500282218478375,0.08049227474997893
0.08600000000000001,-0.0017000000000001096,-0.68,0.0066506695734992955,0.9614473605007555,0.024978807165948486,0.08049227474997893
0.08700000000000001,-0.009600000000000032,1.32,0.006653074045745534,0.9599414595162211,0.024996840747741764,0.08016363234469694
0.088,-0.012,-0.68,0.006641264642958668,0.9614473605007555,0.024908270030645788,0.08049227474997893
0.089,-0.0163,0.32,0.00664373348487888,0.9540271849613845,0.024926786386063268,0.07887292237427973
0.09,-0.0122,-0.68,0.006661489433207167,0.9555424066785737,0.025059956293512313,0.07920359890267481
0.091,-0.0024,0.32,0.006669994883856685,0.9555424066785738,0.02512374731468826,0.07920359890267484
0.092,-0.0088,-0.68,0.006679769730484279,0.9570552294809416,0.025197058826788778,0.07953375190054231
0.093,-0.0026,1.32,0.006675535195248085,0.9480760167795378,0.02516529974216724,0.0775741608716272
0.094,0.0006,-0.68,0.006612761350184172,0.9405503581542153,0.0246944948613001,0.07593178824729299
0.095,0.0054,0.32,0.006501527199500076,0.9390109450417953,0.023860236883190552,0.07559583227596146
0.096,0.0046,0.32,0.006352566090788581,0.9480760167795347,0.022743026093101984,0.07757416087162652
0.097,0.0006,0.32,0.006345813012409583,0.9480760167795348,0.022692377893067824,0.07757416087162654
0.098,-0.0044,1.32,0.006343508030908201,0.9674475243013503,0.022675090493513846,0.08180172887994162
0.099,-0.0022,-0.6799999999991119,0.006360305824328629,0.9674475243013503,0.02280107422323573,0.08180172887994162
0.1,-0.0113,1.32,0.0064579782424864516,0.9674475243013502,0.023533618982091577,0.0818017288799416
0.101,-0.0076,-1.68,0.006507090665669123,0.9689417596494376,0.023901962971886563,0.08212782541875532
0.10200000000000001,-0.01109999999999977,-1.68,0.006458230038484111,0.9689417596494376,0.023535507456257217,0.08212782541875532
0.10300000000000001,0.005499999999999969,2.3199999999991117,0.006514681611692481,0.9674475243013503,0.023958895193173263,0.08180172887994162
0.10400000000000001,0.0033000000000001552,0.32,0.00655876263662284,0.9689417596494377,0.024289503612487207,0.08212782541875535
0.105,0.0145,-0.68,0.00658397460146331,1.0023148089417928,0.024478593767647508,0.08941103945717728
0.106,0.0242,0.32,0.006765115215593039,1.010812324276018,0.025837151382984227,0.09126550658817788
0.107,0.0115,0.3200000000004441,0.006811437975902341,1.0358867172432875,0.02618457285488312,0.0967376517692884
0.108,0.0002,1.32,0.006863620987380699,1.03448918295231,0.026575946307908705,0.09643265892077589
0.109,0.0017,0.32,0.0068725395129568415,1.03448918295231,0.026642835397896917,0.09643265892077589
0.11,0.0006,-1.68,0.006957219859641451,1.0454957154197595,0.02727793940486102,0.09883468491123995
0.111,0.0041,0.3199999999995559,0.0069418409997443285,1.0386761447114055,0.02716259770013726,0.09734640636995387
0.112,0.0074,-0.68,0.0069462871590487306,1.0386761447114055,0.027195943968786156,0.09734640636995387
0.113,0.0066,0.32,0.006950928311826072,1.0372823686329637,0.027230752691721604,0.09704223370020479
0.114,0.0022,0.32,0.0069547034370305875,1.0358867172432875,0.02725906619347318,0.0967376517692884
0.115,0.0112,1.3199999999991119,0.006973137317464416,1.0358867172432875,0.027397320602976553,0.0967376517692884
0.116,-0.0051,-0.68,0.00696997473650077,1.0290034662684808,0.02737360119320795,0.09523547587608414
0.117,-0.0029,-0.68,0.006887580105166361,1.0304084408176621,0.026755640089343877,0.09554209245974067
0.11800000000000001,0.0028999999999998237,-1.68,0.00687219886016039,1.042846296219994,0.02664028049626413,0.09825648521062655
0.11900000000000001,-0.009799999999999889,1.32,0.0068698341808729226,1.0442326459441384,0.02662254536232273,0.09855903717957006
0.12,-0.0018,1.32,0.006871489685863167,1.075271436190402,0.02663496167725315,0.10533283093383171
0.121,-0.0004,-0.68,0.006871336839584556,1.0497597363770645,0.02663381532762427,0.09976524948220002
0.122,0.0007,0.32,0.006780490832221464,1.0415800139375664,0.025952468763138878,0.09798013632757453
0.123,0.0018,0.32,0.00675152593244973,1.0672872541179843,0.025735231533645042,0.10359039180440907
0.124,0.0028,0.32,0.0067500705690005346,1.0551375456172685,0.025724316283597524,0.10093888319517275
0.125,0.0093,-0.68,0.00675388070490657,1.0551375456172685,0.025752892366192152,0.10093888319517275
0.126,0.0031,1.32,0.0067585980001505465,1.042846296219994,0.025788272158892345,0.09825648521062655
0.127,-0.0009,0.32,0.006769301698692924,1.042846296219994,0.025868550075785136,0.09825648521062655
0.128,0.0104,0.32,0.006853042022345441,1.0358867172432875,0.026496603894391558,0.0967376517692884
0.129,-0.0009,0.32,0.006845114026794333,1.0617318156340616,0.026437143796047186,0.10237799292526428
0.13,-0.0085,-1.68,0.006869186827528437,1.068404233283511,0.026617690201484336,0.10383415731315007
0.131,0.0038,-0.679999999999556,0.006869019398103793,1.0603683449697394,0.026616434478017932,0.10208043399990582
0.132,-0.011,0.32,0.006973713869954551,1.0603683449697394,0.027401644756231077,0.10208043399990582
0.133,-0.0129,1.32,0.007188772282360804,1.0590031188330502,0.029014586422132102,0.10178249196658275
0.134,-0.0002,-1.68,0.007364812131037654,1.0656926212875144,0.030334888211831106,0.10324238488076043
0.135,0.0012,0.32,0.007389280382020407,1.096123900705631,0.030518400500702904,0.10988359766067678
0.136,-0.0065,0.32,0.007370140369301784,1.0948032628661601,0.030374850087332306,0.10959538641669231
0.137,-0.0029,-0.68,0.007378568091683356,1.0934810300442588,0.03043805814520732,0.10930682708948872
0.138,-0.0018,-0.68,0.007317009434981627,1.0856307771901044,0.029976367197244995,0.10759361619012878
0.139,-0.0051,-0.68,0.007217938666219504,1.084297359153223,0.02923333478562552,0.10730261584190695
0.14,-0.0059,-0.68,0.007065416445979206,1.084297359153223,0.028089415599908716,0.10730261584190695
0.14100000000000001,-0.005199999999999889,-0.68,0.006979965306066333,1.084297359153223,0.027448530630927125,0.10730261584190695
0.14200000000000002,-0.0011999999999999416,0.32,0.006984652080389377,1.0856307771901046,0.027483681516213266,0.10759361619012882
0.14300000000000002,0.0009000000000001416,-0.679999999999556,0.006977325076559045,1.0856307771901046,0.027428728865759245,0.10759361619012882
0.14400000000000002,0.0059999999999999195,0.32,0.006994638847181745,1.0790648854512246,0.027558582433070307,0.10616069963316548
0.145,0.0031,1.32,0.007003279154313487,1.0790648854512246,0.027623384880103356,0.10616069963316548
0.146,-0.0005,0.32,0.006996947055924019,1.0804047613416008,0.027575894036984586,0.10645310932006713
0.147,-0.0002,2.32,0.00698199571356182,1.0817429776270047,0.027463758720875277,0.10674515682075898
0.148,-0.0046,0.32,0.006982371573789638,1.0817429776270044,0.02746657767882823,0.10674515682075894
0.149,-0.0118,0.32,0.007003656934411728,1.0751533436104879,0.027626218237116383,0.1053070588346648
0.15,-0.0093,-0.68,0.007010025613733763,1.0751533436104932,0.027673983437837144,0.10530705883466596
0.151,-0.001,1.32,0.006993097317713051,1.0751533436104932,0.02754702093644504,0.10530705883466596
0.152,-0.0086,0.32,0.006975766030672297,1.064453517520181,0.027417035995707557,0.10297196733892162
0.153,-0.0079,-0.68,0.006886560929283787,1.060368344969745,0.026747996253292584,0.10208043399990704
0.154,0.0059,-2.68,0.006902677741646607,1.0427245313742526,0.02686887261376899,0.09822991168939624
0.155,0.0157,1.32,0.006895665750005386,1.0427245313742526,0.026816282559966723,0.09822991168939624
0.156,0.0102,2.32,0.006774990709750166,1.0413361738717797,0.025911217753228338,0.0979269215501441
0.157,0.0088,0.32,0.006342750280501382,1.0427245313742526,0.022669407352873885,0.09822991168939624
0.158,0.0044,0.32,0.006322142045305236,1.055017199367444,0.02251484524652968,0.10091261926320433
0.159,0.0109,-1.68,0.006323403437296905,1.046878556603803,0.022524305707423222,0.09913647118903271
0.16,0.0047,-0.68,0.006365228687940011,1.048259573575457,0.02283799578210666,0.09943785935728597
0.161,-0.003,0.32,0.006378647151953668,1.037282368632988,0.022938634485135563,0.09704223370021006
0.162,-0.0037,0.32,0.0063678204536213616,1.0386761447114312,0.02285743406777486,0.09734640636995949
0.163,-0.003,0.32,0.006329425947940175,1.0372823686329895,0.022569474637302196,0.09704223370021041
0.164,-0.0052,0.32,0.0063117850906711254,1.0386761447114312,0.022437167914709486,0.09734640636995949
0.165,0.0016,-0.68,0.0063125059374849165,1.0386761447114312,0.022442574277788646,0.09734640636995949
0.166,0.0023,-0.68,0.006257609598037271,1.0318115022735985,0.02203085081991577,0.09584829153682006
0.167,0.0029,-1.68,0.006238451820828651,1.0304084408176997,0.02188716717257506,0.09554209245974886
0.168,0.0022,-0.68,0.006251418897288726,1.0304084408176997,0.021984420461453016,0.09554209245974886
0.169,-0.0015,-2.68,0.006246317865722857,1.0178186047999365,0.021946162639963455,0.0927945320069194
0.17,-0.0001,0.32,0.006231371259961053,1.010812324276056,0.0218340628484358,0.09126550658818616
0.171,-0.0038,0.32,0.006249746779675356,1.0108123242760503,0.021971879551573162,0.0912655065881849
0.17200000000000001,0.0030999999999998277,2.32,0.006280527811506472,1.0093800739030934,0.022202737801684514,0.09095293742701915
0.17300000000000001,-0.00309999999999985,0.32,0.006301862762879566,1.0108123242760503,0.022362750291429066,0.0912655065881849
0.17400000000000002,0.0022999999999998083,-0.68,0.006377069370351373,1.012242548119811,0.022926801096906015,0.09157763348692022
0.17500000000000002,-0.004600000000000019,0.32,0.006459017084408833,1.0122425481198094,0.02354141031376815,0.09157763348691988
0.176,-0.0053,0.32,0.006393894898935139,1.0122425481198094,0.023052992840813708,0.09157763348691988
0.177,-0.0107,2.32,0.006407833839147399,1.0165211459538337,0.023157535123979025,0.09251137926293639
0.178,-0.0039,2.32,0.006462319843637595,1.0165211459538337,0.023566181062853964,0.09251137926293639
0.179,-0.0064,1.32,0.006378751362393417,1.0179433488593688,0.02293941606516497,0.09282175570101184
0.18,0.0005,0.32,0.006385249960151426,1.0179433488593688,0.02298815565631393,0.09282175570101184
0.181,0.0128,-0.68,0.00633101279357624,1.0066356044623543,0.022581376005935606,0.09035399430427042
0.182,0.0182,0.32,0.006383159693403433,1.005197402929175,0.022972478620977517,0.09004012638333905
0.183,0.0167,1.32,0.006331508060340828,1.0066356044623543,0.02258509051489809,0.09035399430427042
0.184,0.0062,-2.68,0.0061989480418583424,0.9981025305483534,0.02159088817400517,0.08849176699693294
0.185,-0.0003,0.32,0.006204462480029296,0.9981025305483533,0.02163224655190096,0.08849176699693291
0.186,-0.0039,0.32,0.00622326747660804,0.9981025305483533,0.021773284338656704,0.08849176699693291
0.187,0.0015,0.32,0.006202697819898651,0.9995509405742006,0.021619011571604094,0.08880786278252414
0.188,0.0008,0.32,0.006199271307506686,1.0109379328715022,0.021593312671738293,0.09129291895550345
0.189,0.007,0.32,0.006204209792809541,1.0179433488593717,0.0216303513935548,0.09282175570101246
0.19,-0.0054,-0.68,0.006212291714283527,1.016521145953834,0.021690965938877992,0.09251137926293644
0.191,-0.0035,-0.68,0.006188341585813432,1.0277201279954593,0.02151133957745891,0.09495540475509563
0.192,-0.0082,-0.68,0.006167667719000923,1.026311473272742,0.021356285232901617,0.09464798502362586
0.193,0.0056,-0.68,0.006167769235433192,1.0346119170276018,0.02135704660783017,0.09645944396317126
0.194,-0.0035,-0.68,0.006211089533277264,1.0346119170276047,0.021681949561358688,0.09645944396317188
0.195,0.0045,-0.68,0.006185436895733901,1.0346119170276047,0.021489554353605615,0.09645944396317188
0.196,0.0002,-0.68,0.006183577381352822,1.0263114732727447,0.02147560796485464,0.09464798502362644
0.197,-0.0009,0.32,0.006188107749669536,1.0523917509842986,0.021509585802494874,0.10033965086724607
0.198,-0.007,-0.68,0.006294475145201048,1.0346119170276047,0.022307343036106642,0.09645944396317188
0.199,-0.0037,-0.68,0.006403156265076894,1.0360092857553258,0.023122453240739766,0.09676440067975582
0.2,-0.0102,1.32,0.0063574061278551,1.0442326459441515,0.022779326451510408,0.09855903717957291
0.201,-0.0058,-0.68,0.006314650894059124,1.0442326459441515,0.022458661487730253,0.09855903717957291
0.202,-0.0003,1.32,0.006368466011933755,1.0360092857553258,0.022862275765842738,0.09676440067975582
0.203,-0.0072,1.32,0.006309795335317124,1.036009285755329,0.022422244716497848,0.09676440067975649
0.20400000000000001,-0.0009999999999997862,0.32,0.006427269048323755,1.0604880839613693,0.02330329951568684,0.10210656540603373
0.20500000000000002,0.006699999999999931,0.32,0.006526610424125129,1.029003466268497,0.024048361484596405,0.09523547587608767
0.20600000000000002,0.004200000000000169,-0.68,0.006699335722084765,1.0206574130962451,0.02534380408885031,0.09341406330161593
0.20700000000000002,0.01029999999999975,-1.68,0.006705527531606222,1.0023148089417975,0.025390242763128325,0.0894110394571783
0.20800000000000002,0.0013000000000001721,0.32,0.006676480894722678,1.0037571407167019,0.025172392503937983,0.08972580874718297
0.209,0.0075,-0.68,0.006662210061867064,1.0037571407167019,0.025065361020433646,0.08972580874718297
0.21,0.0042,-0.68,0.00657439592971524,0.990828721277444,0.02440675357040256,0.08690435706832247
0.211,0.0017,-0.68,0.006562611931384642,0.9893675422170208,0.024318373387150642,0.0865854746146307
0.212,0.0024,0.32,0.006555640941311091,1.023488347534919,0.024266090845787083,0.09403187623399083
0.213,0.0046,-0.68,0.006559655893409079,1.023488347534919,0.024296203053224042,0.09403187623399083
0.214,0.0024,0.32,0.006560608604388197,1.023488347534919,0.024303348401395215,0.09403187623399083
0.215,0.0075,-0.68,0.006541432663321293,1.0234883475349177,0.024159528524815607,0.09403187623399054
0.216,-0.0015,0.32,0.006545634982914839,1.0234883475349177,0.024191045991582075,0.09403187623399054
0.217,0.005,-0.68,0.006591330863225935,1.022073860454331,0.024533765853079804,0.09372318366975259
0.218,0.0014,0.32,0.006595304638026266,1.0093800739030594,0.02456356923010025,0.09095293742701173
0.219,-0.0088,-0.68,0.00661400305637505,1.0093800739030536,0.024703807678360667,0.09095293742701048
0.22,-0.0051,1.319999999999556,0.006620350500454993,0.9835011176046452,0.024751413614412947,0.0853052072432585
0.221,-0.0062,0.32,0.006652908895939348,0.9835011176046452,0.024995602121451663,0.0853052072432585
0.222,-0.0052,-0.68,0.0066419048620847505,0.9835011176046452,0.02491307168472763,0.0853052072432585
0.223,-0.0099,-0.68,0.006711593575251752,0.9689417596494075,0.025435738191247483,0.08212782541874876
0.224,-0.0106,0.3199999999995559,0.006705258393156872,0.9777293655591782,0.02538822422028689,0.08404560087179443
0.225,-0.0015,-0.68,0.006701398216000494,0.9762485805167741,0.025359272827483344,0.08372243967923317
0.226,-0.0052,-1.68,0.006693436722491136,0.9762485805167741,0.02529956149389558,0.08372243967923317
0.227,-0.0084,0.32,0.006673743227551612,0.976248580516774,0.025151859954672996,0.08372243967923315
0.228,0.0006,-0.679999999999556,0.006587401434973533,0.9480760167795038,0.024504295075905583,0.07757416087161978
0.229,-0.003,0.32,0.006577352242697632,0.9190402473362981,0.024428925966884944,0.0712374991607709
0.23,-0.0019,-0.68,0.0065986218875505745,0.9096858784985621,0.024588448656643398,0.06919603540830577
0.231,0.009,0.32,0.006600705177119898,0.9096858784985621,0.024604073363023872,0.06919603540830577
0.232,0.0075,-0.679999999999556,0.006495367027232625,0.9080941450224002,0.023814035488843185,0.06884866122929527
0.233,0.001,0.32,0.0062659094274362045,0.9080941450224002,0.02209309967829626,0.06884866122929527
0.234,-0.0026,-1.68,0.006046557153152791,0.8986258384554168,0.02044795397698083,0.0667823321173033
0.23500000000000001,0.004999999999999748,0.32,0.006017865031480603,0.869456561466272,0.020232762587765366,0.060416534200640575
0.23600000000000002,-0.004099999999999829,-0.6800000000004441,0.006034393412452753,0.8792390408535192,0.020356725719649305,0.06255142725699947
0.23700000000000002,0.0021000000000000276,-1.68,0.006021802704793752,0.880882916326996,0.020262295203032174,0.06291018071764251
0.23800000000000002,0.0030999999999997475,1.32,0.006021142544859349,0.880882916326996,0.02025734399255664,0.06291018071764251
0.23900000000000002,-0.005999999999999898,0.32,0.006076565596382131,0.8808829163269959,0.02067301779974353,0.0629101807176425
0.24,-0.0023,-1.6799999999991118,0.00603658791026062,0.8808829163269959,0.020373184489666404,0.0629101807176425
0.241,-0.0013,0.32,0.006018795223118724,0.8792390408535191,0.020239739040504936,0.06255142725699944
0.242,0.0013,1.32,0.0060554019138746385,0.8792390408535192,0.020514289829336348,0.06255142725699947
0.243,0.0074,-0.68,0.005999920876721538,0.8775920861341443,0.020098181128958732,0.06219200179282576
0.244,0.002,0.32,0.005977227391321735,0.8775920861341444,0.019927979611443977,0.06219200179282578
0.245,0.0027,0.32,0.00597281783302078,0.8856528817848479,0.019894907850929,0.06395116079354385
0.246,-0.0024,2.32,0.005956055657666817,0.8840178763453083,0.019769191257297345,0.06359434309714955
0.247,-0.0115,1.32,0.00598206518321667,0.882379841328173,0.019964263131028222,0.06323686423665602
0.248,-0.0126,-0.6799999999991119,0.006008685341829518,0.882379841328173,0.02016391476287626,0.06323686423665602
0.249,-0.009,1.32,0.005968358646733382,0.882379841328173,0.019861463879691215,0.06323686423665602
0.25,-0.0057,-0.68,0.0059662770070421116,0.8807387598298345,0.01984585154742355,0.06287872052308077
0.251,-0.0083,0.32,0.005882407888994934,0.8726325719901068,0.019216831768717458,0.06110965529457273
0.252,0.0001,0.3200000000008882,0.00585499586863219,0.8709731249483716,0.01901124116058967,0.06074750355097549
0.253,0.0146,2.32,0.0058934006195788,0.8610967458410632,0.019299277430723218,0.05859211815802
0.254,0.0128,-0.68,0.005848989413701483,0.8661223179466508,0.018966192648821663,0.059688880907802715
0.255,0.0218,0.32,0.005848284236536566,0.8661223179466508,0.01896090380836938,0.059688880907802715
0.256,0.0106,1.3199999999991119,0.005840708679727834,0.8677910410698052,0.01890408700644804,0.06005305702998826
0.257,0.0062,-0.68,0.005850052934218433,0.8661223179466508,0.01897416907036749,0.059688880907802715
0.258,-0.0003,0.32,0.0057900229243010425,0.852803874480846,0.018523942998683738,0.05678231179059894
0.259,-0.0014,0.32,0.005807065537342711,0.8544986071640372,0.018651762879632217,0.057152164145457575
0.26,-0.0025,0.31999999999866774,0.005776115256427392,0.852803874480846,0.018419635258577538,0.05678231179059894
0.261,0.0001,-2.68,0.005763588478248171,0.8528038744808462,0.018325684214120844,0.05678231179059897
0.262,0.0044,0.32,0.00578216622104405,0.852803874480846,0.018465017593729646,0.05678231179059894
0.263,-0.0032,0.32,0.005779432972872581,0.852803874480846,0.018444518187035047,0.05678231179059894
0.264,0.0015,0.3199999999995559,0.005768217994255986,0.852803874480846,0.018360405661091515,0.05678231179059894
0.265,-0.0028,-0.68,0.005763665164615172,0.8544986071640372,0.01832625936314737,0.057152164145457575
0.266,0.0081,0.32,0.005722725057226519,0.8544986071640372,0.018019207877577586,0.057152164145457575
0.267,0.0037,0.32,0.005731542574296051,0.8561899853192728,0.018085339402088122,0.05752128442022113
0.268,-0.0054,-0.6799999999991119,0.005724432676792537,0.8544986071640372,0.018032015052692103,0.057152164145457575
0.269,0.0033,1.32,0.005732724594010272,0.8856528817848478,0.018094204569582162,0.06395116079354382
0.27,0.0066,0.32,0.00569477782693274,0.8840178763453083,0.017809603186075374,0.06359434309714955
0.271,0.0,0.32,0.005671869139632629,0.8742888693182691,0.017637787650733067,0.06147111965602789
0.272,-0.0101,-1.6799999999986677,0.0056434836276482,0.8742888693182692,0.017424895839269632,0.06147111965602791
0.273,-0.0011,1.32,0.005680576965950834,0.8726325719901136,0.017703096492786313,0.06110965529457421
0.274,0.0,0.32,0.00559367168722258,0.8726325719901136,0.01705130545853116,0.06110965529457421
0.275,0.0033,0.32,0.005491905202429653,0.8742888693182711,0.01628805513189561,0.06147111965602832
0.276,-0.0014,0.32,0.005504160035962262,0.8726325719901153,0.016379966586984786,0.0611096552945746
0.277,-0.0007,0.32,0.005486841986974509,0.857730005926463,0.01625008093186475,0.05785737296902257
0.278,0.0015,0.32,0.005433548176639902,0.8594150245267691,0.01585037646896314,0.05822510535743105
0.279,-0.0083,0.32,0.005439581133547204,0.8594150245267724,0.015895623745995905,0.05822510535743177
0.28,-0.0017,0.32,0.005453902282494891,0.8610967458410755,0.016003032601026715,0.058592118158022684
0.281,-0.005,0.32,0.005467243883885847,0.8594150245267724,0.016103094833108414,0.05822510535743177
0.28200000000000003,-0.006099999999999817,0.32,0.0053930879371214486,0.8594150245267724,0.015546924000392084,0.05822510535743177
0.28300000000000003,-0.002799999999999739,0.32,0.005346090971849294,0.8594150245267757,0.015194445980070952,0.05822510535743248
0.28400000000000003,0.0019000000000001444,1.32,0.005346722262212105,0.8610967458410788,0.015199180668279924,0.058592118158023385
0.28500000000000003,0.004499999999999778,1.32,0.0053410757791786286,0.8476993478718493,0.015156831951721496,0.05566831829445594
0.28600000000000003,0.0005000000000000388,-0.68,0.0053315928727269025,0.8790946147889229,0.015085709995790113,0.06251990823301197
0.28700000000000003,0.0011999999999994782,0.32,0.00532069395663652,0.8871417581871598,0.015003967944044053,0.06427608781533917
0.28800000000000003,-0.008199999999999518,0.32,0.005327990750736757,0.8741436253863939,0.015058694021020483,0.061439422143632114
0.289,0.0005,0.32,0.005330124725661326,0.8659757042984185,0.015074698868407354,0.05965688447344409
0.29,-0.0028,0.32,0.005352006919036276,0.8659757042984185,0.015238815682257389,0.05965688447344409
0.291,-0.0075,-0.68,0.005355789663573464,0.8509565663438395,0.015267186329130595,0.05637916191841094
0.292,0.0009,0.32,0.00537366152910458,0.8659757042984354,0.015401225617526637,0.059656884473447774
0.293,0.002,-0.68,0.005373033403900683,0.8709731249484003,0.01539651466806211,0.06074750355098174
0.294,0.0027,1.32,0.005322192331246804,0.8693105101554017,0.015015205778514302,0.0603846604887618
0.295,0.0002,0.32,0.005413112644248638,0.8693105101554017,0.015697109636524726,0.0603846604887618
0.296,0.0056,0.32,0.005407378012459496,0.8693105101553982,0.01565409980283436,0.060384660488761024
0.297,-0.0057,0.32,0.005456893090448463,0.8528038744808716,0.016025463710366027,0.056782311790604514
0.298,-0.001,-0.68,0.0053384399002808424,0.8444295654233456,0.015137062816197156,0.05495473275353316
0.299,0.0034,0.32,0.00526154387877043,0.8427145837383703,0.014560341377363735,0.05458046132947992
0.3,0.0023,-0.68,0.005183739164606847,0.8342390018914261,0.013976804728535045,0.05273078088371979
0.301,-0.0013,0.32,0.00515428515954667,0.8325030275987384,0.01375589920125218,0.05235192810859328
0.302,-0.0067,0.32,0.005087544975157406,0.8342390018914261,0.01325534670955048,0.05273078088371979
0.303,-0.0002,-1.68,0.005100085001607277,0.8359713712756757,0.013349397116257147,0.05310884693661683
0.304,0.0005,0.32,0.004889320519867257,0.8134749872665012,0.011768660001689711,0.048199317142260195
0.305,0.006,-0.68,0.004732995549084184,0.8274267195492125,0.01059622012372543,0.05124409292920108
0.306,-0.0053,0.32,0.004224036117364536,0.8595627572158401,0.006779015930275058,0.05825734600723052
0.307,0.006,-0.68,0.004116724104619293,0.8512549419674432,0.005974174051866994,0.0564442783394942
0.308,-0.0046,-0.68,0.004113047102299108,0.8595627572158471,0.005946596473378053,0.05825734600723205
0.309,0.0045,0.32,0.004221770740742177,0.8595627572158471,0.006762025567971731,0.05825734600723205
0.31,-0.0017,-0.68,0.004239480600011358,0.8595627572158471,0.006894849806711783,0.05825734600723205
0.311,-0.0049,-0.68,0.004259371278520643,0.8612441900577651,0.007044030225983469,0.05862429585264897
0.312,0.0016,0.32,0.004261583609182463,0.8359713712756406,0.007060622742701484,0.05310884693660917
0.313,-0.0028,-0.68,0.004247815729210763,0.8461410711440133,0.006957363414182263,0.05532824559565939
0.314,-0.0006,-0.68,0.004305424998782374,0.8478491219506423,0.007389433893055908,0.05570100444979347
0.315,0.003,-0.68,0.004359865453390724,0.8495537386817947,0.007797738207060267,0.0560730138636681
0.316,-0.0035,-0.68,0.004355649340889149,0.8495537386817947,0.007766117293254436,0.0560730138636681
0.317,0.0041,0.32,0.004365195485966018,0.8512549419674181,0.007837713539924998,0.05644427833948872
0.318,0.0034,2.32,0.004413460665964322,0.851254941967418,0.008199703191761627,0.056444278339488695
0.319,0.0059,0.32,0.0043998458709694115,0.8512549419674248,0.008097592003111592,0.05644427833949017
0.32,0.0005,0.32,0.0045180084591484385,0.8411470724788266,0.00898381337753812,0.05423837331975441
0.321,0.0026,0.32,0.0045440512625463305,0.8411470724788266,0.009179134835682147,0.05423837331975441
0.322,-0.0083,0.32,0.004660988225127508,0.8428652435920212,0.010056163997762983,0.0546133407931311
0.323,-0.0007,-0.68,0.004554417878563814,0.8274267195492343,0.009256884628038146,0.05124409292920583
0.324,0.0003,-0.68,0.004554072254829055,0.8187929035204696,0.009254292444285458,0.049359880025704204
0.325,0.004,0.32,0.004660967195120068,0.8205578834983052,0.0100560062723578,0.049745062897053334
0.326,0.0029,0.32,0.004649936865641655,0.8361232461800663,0.00997327861801829,0.05314199156856375
0.327,0.0036,-0.68,0.004685366453679283,0.8361232461800663,0.010239001116906864,0.05314199156856375
0.328,-0.0026,-0.68,0.004684838269898035,0.8361232461800663,0.010235039729772565,0.05314199156856375
0.329,0.005,-0.68,0.0047167799815494215,0.8361232461800663,0.010474603097818799,0.05314199156856375
0.33,0.0043,0.32,0.00464365373956905,0.8361232461800663,0.009926155068089589,0.05314199156856375
0.331,-0.0001,0.32,0.0046530708702231865,0.8378517196487865,0.009996783704446286,0.05351920739089218
0.332,-0.0023,-0.68,0.0046593323621965345,0.8778814088848177,0.010043744998271147,0.06225514254753713
0.333,0.0013,-0.68,0.004644554656738615,0.8795278218347214,0.009932911961828635,0.06261444977789339
0.334,-0.0009,-0.68,0.004651300237379287,0.8811711585708343,0.009983503928700786,0.06297308566643514
0.335,-0.0038,2.32,0.0047696627302684785,0.8811711585708343,0.010871224591774649,0.06297308566643514
0.336,-0.0023,1.32,0.0047751360202848495,0.8811711585708343,0.010912274357827456,0.06297308566643514
0.337,0.0035,-0.68,0.004785777960048679,0.8891995097083627,0.010992089082855115,0.06472516409349162
0.338,-0.0034,-0.68,0.00484952703823016,0.8908250049147304,0.011470208228305955,0.0650799063108627
0.339,-0.0077,0.32,0.004792250694994955,0.9051828721384443,0.011040634702486401,0.06821331552407194
0.34,0.0031,0.32,0.0048461747590306066,0.9067797159886928,0.011445066078616508,0.06856180497271101
0.341,0.0046,-1.68,0.0048514955503647875,0.9067797159886928,0.011484972102019366,0.06856180497271101
0.342,0.001,-1.68,0.004810074792882305,0.9067797159886928,0.011174315732760617,0.06856180497271101
0.343,-0.0001,0.32,0.004815388514306569,0.9083737527275165,0.011214168731721642,0.06890968180746644
0.34400000000000003,0.010099999999999495,0.32,0.004814427610254567,0.9083737527275134,0.01120696193536773,0.06890968180746576
0.34500000000000003,0.0009999999999995171,0.31999999999911183,0.004808082766035477,0.8989083913058118,0.011159375498315043,0.06684399543336908
0.34600000000000003,-0.007699999999999695,-1.68,0.004846906664686369,0.9083737527275133,0.011450555383194177,0.06890968180746573
0.34700000000000003,-0.0022000000000003666,-0.68,0.004825862839596154,0.9083737527275133,0.011292726345407818,0.06890968180746573
0.34800000000000003,-0.008799999999999534,0.32,0.004884564036212403,0.9099649971070297,0.01173298629525688,0.06925694924778647
0.34900000000000003,-0.00040000000000006106,-0.679999999999556,0.005045297627632496,0.9083737527275101,0.012938490901241046,0.06890968180746504
0.35000000000000003,-0.0014999999999998613,0.32,0.005046674977780726,0.9099649971070298,0.012948821050235258,0.0692569492477865
0.35100000000000003,0.0010000000000001444,-0.68,0.005144187699103488,0.9083737527275102,0.013680168080175043,0.06890968180746505
0.352,0.0036,-0.68,0.0052094299865597,0.9177414959172996,0.014169486319993667,0.07095406433033613
0.353,0.0014,1.3199999999986678,0.005165942948166929,0.9177414959172996,0.013843332809579778,0.07095406433033613
0.354,0.0036,-1.68,0.005167230186808371,0.9177414959172996,0.013852987120776017,0.07095406433033613
0.355,0.0043,2.32,0.005189958743831383,0.919316525819187,0.014023451676047504,0.07129779318147796
0.356,-0.0047,-0.68,0.00540025285064081,0.919316525819187,0.015600660970820957,0.07129779318147796
0.357,-0.0059,1.319999999999556,0.005440353230110218,0.9208888618937666,0.01590141448304567,0.07164093414145367
0.358,-0.0095,0.32,0.005420953278726384,0.9208888618937667,0.015755914525367516,0.0716409341414537
0.359,-0.0041,0.32,0.0054066289339789525,0.919316525819187,0.01564848170178553,0.07129779318147796
0.36,-0.0048,-0.68,0.005448251065166739,0.919316525819187,0.015960648377179563,0.07129779318147796
0.361,0.0014,-1.6799999999986677,0.005490008879548808,0.919316525819187,0.01627383267878488,0.07129779318147796
0.362,-0.0027,1.32,0.005470594152096176,0.9177414959172996,0.01612822190034527,0.07095406433033613
0.363,-0.0077,-0.68,0.005548953998631497,0.919316525819187,0.016715922051184627,0.07129779318147796
0.364,-0.007,-0.68,0.005608474414666807,0.919316525819187,0.017162326160286685,0.07129779318147796
0.365,0.0021,-0.68,0.005608220353188541,0.919316525819187,0.01716042069497886,0.07129779318147796
0.366,0.0086,-0.68,0.005612043263474181,0.9177414959172997,0.01718909258563275,0.07095406433033616
0.367,0.0075,0.32,0.005602194553945811,0.9177414959172997,0.017115227100549295,0.07095406433033616
0.368,0.0042,-0.68,0.0055891706783072845,0.9177414959172997,0.017017547816889328,0.07095406433033616
0.369,0.0108,0.32,0.0056514969444813,0.8877140845790364,0.01748499584864642,0.06440099026507816
0.37,0.0082,0.32,0.005680735430031834,0.8893422947750398,0.017704284976026444,0.06475632499200555
0.371,0.0104,-0.68,0.005730161239219947,0.8893422947750398,0.018074979366068653,0.06475632499200555
0.372,0.0021,0.32,0.005724377309184693,0.8989083913058087,0.01803159979471343,0.0668439954333684
0.373,0.001,-0.68,0.005669144626560941,0.9005163614703143,0.01761735375743195,0.06719491304874417
0.374,-0.0099,-0.68,0.005680581374830656,0.9005163614703143,0.017703129559458224,0.06719491304874417
0.375,0.0007,-1.68,0.005822393494416484,0.8989083913058087,0.018766722812335185,0.0668439954333684
0.376,-0.0059,0.32,0.0059699057632478375,0.9083737527275103,0.019873067279252518,0.06890968180746508
0.377,0.0002,0.32,0.006021505606662669,0.9083737527275102,0.020260066962113236,0.06890968180746505
0.378,0.0057,0.32,0.006013807299986914,0.9083737527275102,0.020202329534149934,0.06890968180746505
0.379,-0.0009,0.32,0.0060607745197679384,0.9067797159886865,0.020554584462793415,0.06856180497270963
0.38,-0.0034,-0.68,0.006041190477095394,0.9067797159886865,0.02040770381739155,0.06856180497270963
0.381,0.0056,-2.679999999999112,0.006026049999900756,0.9083737527275103,0.020294149986896774,0.06890968180746508
0.382,0.0049,-0.68,0.006026908643032999,0.9177414959172997,0.02030058982465359,0.07095406433033616
0.383,0.0038,-0.68,0.00602489239168285,0.9452878870382886,0.02028546790603065,0.07696568948219802
0.384,-0.0107,1.32,0.0060244150140716405,0.9527761262488887,0.020281887566015712,0.07859989582828093
0.385,-0.005,1.32,0.0060578726722143655,0.9527761262488887,0.020532820557932027,0.07859989582828093
0.386,-0.0032,1.32,0.006061235093844455,0.9377398530577582,0.020558038776018993,0.07531843374095899
0.387,-0.0079,-0.68,0.006057270313622606,0.930130568600054,0.0205283028584866,0.07365781091625978
0.388,-0.0035,-1.68,0.006055887022022411,0.9301305686000542,0.020517928148503943,0.07365781091625981
0.389,-0.0072,-0.679999999999556,0.006052790113938487,0.9301305686000542,0.020494701286424298,0.07365781091625981
0.39,-0.0036,0.32,0.006100107816584013,0.9438907337588042,0.020849584842374258,0.07666077978426103
0.391,0.0041,-0.68,0.006206049626504033,0.9438907337588042,0.021644150176829403,0.07666077978426103
0.392,-0.0024,-0.68,0.006190278580746,0.9316846547840083,0.021525867071633273,0.07399696908585761
0.393,-0.0017,-0.679999999999556,0.006189733237992787,0.9316846547840083,0.021521776991924167,0.07399696908585761
0.394,-0.001,0.32,0.006354452030262184,0.9316846547840083,0.0227571706704859,0.07399696908585761
0.395,-0.0061,1.32,0.006290731726587385,0.9408203200634326,0.02227926733431321,0.07599070376171982
0.396,0.0033,0.32,0.006370154146035669,0.940820320063436,0.022874936799652763,0.07599070376172055
0.397,0.0095,-0.679999999999556,0.006382372490015297,0.9270145802590121,0.022966574582488363,0.07297778884724751
0.398,0.0127,0.32,0.006393479845914608,0.9542933343923039,0.02304987993626428,0.07893100586717872
0.399,0.0036,-0.68,0.006419153605454718,0.9542933343923038,0.023242433559343863,0.07893100586717869
0.4,-0.0102,0.32,0.007024276313292302,0.952776126248895,0.027780863921278938,0.07859989582828229
0.401,-0.0083,1.32,0.007665339617442547,0.952776126248895,0.03258884935265492,0.07859989582828229
0.402,-0.0003,0.32,0.008035425244830006,0.9512564982348942,0.03536449770644607,0.07826825768554642
0.403,0.0012,-1.68,0.008030022031492763,0.9497344387345213,0.03532397351665094,0.07793608890398504
0.404,0.0049,-0.68,0.008057379144938344,0.9406853487931814,0.035529152321987806,0.0759612481179857
0.405,0.0161,-0.68,0.00818392135612701,0.9268775986087244,0.036478221008200765,0.07294789446541738
0.406,0.0085,-0.68,0.008757887487195571,0.8971560206754171,0.0407829765267511,0.06646156438057546
0.40700000000000003,-0.0037999999999999224,-0.68,0.00909752274264889,0.9098254485064079,0.04333024658515161,0.06922649466396384
0.40800000000000003,-0.002399999999999417,0.32,0.009207485499265288,0.9019807034418045,0.04415496908663124,0.0675144857647516
0.40900000000000003,0.008099999999999939,0.32,0.009161992152200578,0.9161637582947965,0.04381376822784616,0.07060974455600273
0.41000000000000003,0.006999999999999517,-0.68,0.009162219036100986,0.9177414959173325,0.043815469860868546,0.0709540643303433
0.41100000000000003,-0.0017000000000004273,0.32,0.009166475168985059,0.9161637582947965,0.04384739092820798,0.07060974455600273
0.41200000000000003,-0.009399999999999955,-0.68,0.009171840747880628,0.9035832062943363,0.04388763285906532,0.06786421021366026
0.41300000000000003,-0.008599999999999539,-0.68,0.009167808642961609,0.8956837909265898,0.04385739200518566,0.0661402702644607
0.41400000000000003,-0.00030000000000018315,-0.68,0.009135577240805303,0.8940671294779213,0.043615655953539785,0.0657874558945429
0.41500000000000004,-0.0035999999999997336,0.32,0.009116766495351203,0.8940671294779213,0.04347457505012336,0.0657874558945429
0.41600000000000004,0.0011999999999998555,-0.68,0.009119933241014446,0.8940671294779213,0.04349832569520814,0.0657874558945429
0.417,-0.0014,0.32,0.009082902995830025,0.8940671294779213,0.043220598241126236,0.0657874558945429
0.418,-0.009,0.32,0.009094042679390364,0.8956837909265899,0.04330414605289693,0.06614027026446072
0.419,-0.0082,-0.68,0.009088102707103468,0.8956837909265899,0.043259596162062014,0.06614027026446072
0.42,-0.0075,0.32,0.00902464138271472,0.8972975396402043,0.04278363517483723,0.06649244896957456
0.421,0.0001,1.32,0.00899016944710648,0.8989083913058666,0.04252509508507894,0.06684399543338106
0.422,-0.0025,-0.68,0.008938723836222951,0.8989083913058666,0.04213925214876532,0.06684399543338106
0.423,0.0037,-0.68,0.008965474078482074,0.9285738814594275,0.04233987941012156,0.07331808512324875
0.424,0.0128,0.32,0.008987937404836869,0.9285738814594275,0.04250835473097502,0.07331808512324875
0.425,0.0138,1.32,0.008935498072959448,0.927014580259063,0.04211505887069811,0.07297778884725863
0.426,0.0084,0.32,0.008945226179518536,0.9145832989384565,0.04218801983150832,0.07026483080028285
0.427,0.0019,-0.68,0.008934879988054908,0.9238880827142502,0.04211042322364557,0.0722954732874788
0.428,0.008,0.32,0.008941813410690804,0.9254526517856817,0.042162424008602595,0.07263691920467108
0.429,-0.001,-0.68,0.00894118431650013,0.9254526517856799,0.04215770579172114,0.07263691920467069
0.43,0.0001,-0.68,0.008940924295148343,0.9270145802590614,0.04215575562726289,0.07297778884725827
0.431,-0.001,1.32,0.008934488276385617,0.9346492333391229,0.04210748537961821,0.0746439480287006
0.432,-0.0017,2.32,0.008927080818645907,0.8987671259842469,0.04205192932350724,0.06681316619855297
0.433,-0.001,1.32,0.008927912019863173,0.8971560206754675,0.04205816334644582,0.06646156438058647
0.434,-0.0064,-0.68,0.008921065427142274,0.9098254485064576,0.042006813787293804,0.0692264946639747
0.435,-0.0043,-1.68,0.008856701908909633,0.9019807034418478,0.04152408633125132,0.06751448576476105
0.436,0.0008,-0.68,0.008843665786997707,0.9019807034418478,0.041426315200337405,0.06751448576476105
0.437,-0.0032,-0.68,0.008845214762355166,0.8940671294779372,0.04143793254125211,0.06578745589454638
0.438,-0.0028,-0.68,0.008809720861678425,0.8924475394650274,0.041171727696501736,0.06543400240531982
0.439,-0.0108,-1.68,0.00882191756882289,0.8778814088848834,0.041263203202714156,0.06225514254755148
0.44,-0.0118,0.32,0.008792385097906155,0.8762319023808576,0.04104170918020352,0.061895160191089336
0.441,0.0012,-0.68,0.008862808720791617,0.8778814088848801,0.04156988752182118,0.062255142547550754
0.442,-0.0005,-1.68,0.008881262209468738,0.8859395721121324,0.041708288993475014,0.06401372705765913
0.443,0.0144,0.32,0.008882131960480632,0.8939250991010121,0.04171481214051375,0.06575645969680487
0.444,0.0046,1.32,0.008902952545319972,0.8939250991010155,0.04187096687270976,0.06575645969680559
0.445,0.0101,0.32,0.008915700720255116,0.8955420169475563,0.041966578396514034,0.06610933002207128
0.446,0.0087,0.32,0.00891240538704718,0.8875710375795118,0.04194186334270779,0.0643697722032833
0.447,0.0044,2.32,0.0089086876145716,0.8891995097084276,0.04191397998737605,0.06472516409350579
0.448,-0.0105,0.32,0.00887663795233065,0.887571037579515,0.04167360698811466,0.06436977220328399
0.449,-0.0285,0.32,0.008787678397546218,0.8875710375795149,0.04100640884930964,0.06436977220328396
0.45,-0.0307,0.32,0.008781061403335611,0.8859395721121389,0.04095678128279923,0.06401372705766056
0.451,-0.0241,0.32,0.008728651200882464,0.8955420169475594,0.04056370389368831,0.06610933002207195
0.452,-0.002,0.32,0.008698646766360332,0.8859395721121389,0.04033867013629627,0.06401372705766056
0.453,0.0068,0.32,0.00886555358953599,0.8859395721121389,0.04159047408300561,0.06401372705766056
0.454,0.0148,0.32,0.008941978463475294,0.8712646456747605,0.04216366190722836,0.060811123983987955
0.455,0.0315,0.32,0.008988179190692152,0.8712646456747606,0.04251016812890653,0.06081112398398798
0.456,0.0251,-1.68,0.008849700771002203,0.8696025882476599,0.0414715776806328,0.06044840255929347
0.457,0.0154,-0.68,0.00882421388945615,0.8679373480679864,0.04128042564561333,0.06008498654214455
0.458,0.0027,-1.68,0.008968540518569205,0.8679373480679865,0.04236287776171908,0.06008498654214457
0.459,0.0042,-0.68,0.009141722337697878,0.8679373480679864,0.04366174428232513,0.06008498654214455
0.46,0.0056,0.32,0.009215657479988423,0.8679373480679864,0.04421625907781923,0.06008498654214455
0.461,-0.0034,-0.68,0.009189300128391411,0.8662689067810019,0.04401857850295609,0.059720871926869284
0.462,0.0002,-0.68,0.009229015687001196,0.8662689067810019,0.04431644585234044,0.059720871926869284
0.463,-0.0008,0.32,0.009189582983462435,0.8645972458548633,0.04402069992068795,0.059356054669145016
0.464,0.0039,-0.68,0.009165685364411357,0.8629223465782295,0.043841467380783865,0.058990530685476064
0.465,0.0032,-0.68,0.009166146375066818,0.8612441900578129,0.04384492496835878,0.058624295852659415
0.466,0.0025,-0.68,0.00915900335345166,0.8629223465782279,0.04379135218757513,0.058990530685475696
0.467,-0.0087,-0.68,0.009305256911863598,0.8612441900578129,0.04488825630543537,0.058624295852659415
0.468,0.0026,-0.68,0.009413037252819082,0.8612441900578129,0.04569661065320078,0.058624295852659415
0.46900000000000003,0.0011000000000000612,-0.68,0.009447160383372486,0.8629223465782279,0.04595253469925295,0.058990530685475696
0.47000000000000003,0.0021999999999996614,-0.68,0.00943152438721181,0.8629223465782279,0.04583526446828062,0.058990530685475696
0.47100000000000003,-0.003900000000000183,-0.68,0.009411631791269222,0.9018399193711076,0.045686069668227317,0.06748376155639103
0.47200000000000003,-0.007199999999999956,2.32,0.009418607096863919,0.9066396771146168,0.04573838457607117,0.06853124339337613
0.47300000000000003,-0.006399999999999762,-0.68,0.009417619657058965,0.9050425861818656,0.04573097876112927,0.06818270002234188
0.47400000000000003,-0.0021000000000001165,0.3199999999995559,0.009415970677326111,0.9034426719427319,0.045718611385737684,0.06783354050309473
0.47500000000000003,-0.004199999999999539,-0.68,0.00937539513355263,0.903442671942732,0.045414294133338334,0.06783354050309476
0.47600000000000003,0.004099999999999579,1.32,0.0092784171167385,0.895542016947556,0.04468695739609655,0.0661093300220712
0.47700000000000004,-0.003499999999999495,-0.68,0.009241718886842845,0.9050425861818591,0.044411720062196305,0.06818270002234045
0.47800000000000004,0.005599999999999656,0.3199999999995559,0.009285258453705744,0.9034426719427253,0.04473826753700884,0.0678335405030933
0.47900000000000004,-0.0005999999999999389,-0.68,0.009254813330536052,0.9050425861818591,0.044509928607438756,0.06818270002234045
0.48,0.0005,1.32,0.009254813330536052,0.9050425861818591,0.044509928607438756,0.06818270002234045
0.481,-0.0042,-0.68,0.009265623224709493,0.9176031299633216,0.04459100299332879,0.07092386784305611
0.482,-0.005,0.31999999999911183,0.009323522150130154,0.9082339596349729,0.045025245895882485,0.06887917386660766
0.483,-0.0014,-1.68,0.00932233702584817,0.8875710375795046,0.04501635744407865,0.06436977220328172
0.484,0.0008,-0.68,0.009322232442579499,0.8795278218347798,0.04501557306782613,0.06261444977790613
0.485,0.0015,1.32,0.009310825823820361,0.8778814088848762,0.04493002323762973,0.06225514254754991
0.486,-0.0036,-0.679999999999556,0.009307079473785434,0.8778814088848762,0.04490192555012812,0.06225514254754991
0.487,0.0004,0.32,0.009333610448279078,0.8859395721121285,0.04510090829960047,0.06401372705765829
0.488,-0.0058,0.32,0.00934715423423454,0.8859395721121285,0.04520248691927494,0.06401372705765829
0.489,-0.0004,0.32,0.009345902682867656,0.9223208596067288,0.04519310026323078,0.07195344816301248
0.49,-0.0117,-0.6799999999991119,0.00928401895384953,0.9176031299633216,0.04472897126749491,0.07092386784305611
0.491,-0.007,1.32,0.009222654930345792,0.919178396957969,0.04426874007175104,0.07126764843646766
0.492,-0.0027,1.32,0.009232516391820777,0.9176031299633216,0.04434270119664595,0.07092386784305611
0.493,-0.0063,-0.68,0.009269824804528027,0.9406853487932197,0.044622514911770376,0.07596124811799405
0.494,0.0049,-0.68,0.009157687423647662,0.94222202624963,0.043781482692183064,0.07629660706961426
0.495,-0.0056,-0.68,0.009147006936142907,0.9346492333391347,0.04370137885845806,0.0746439480287032
0.496,-0.002,-0.68,0.009106932635779068,0.9346492333391347,0.04340082093995838,0.0746439480287032
0.497,-0.0057,0.32,0.009065942588281795,0.9346492333391347,0.04309339490274427,0.0746439480287032
0.498,0.0019,0.32,0.00906849300953205,0.9051828721385011,0.04311252310449237,0.06821331552408434
0.499,0.0011,0.32,0.009013718536356342,0.905182872138501,0.04270171364568365,0.06821331552408431
0.5,0.0036,1.32,0.00855335580447352,0.9067797159887526,0.03924898550836649,0.06856180497272407
0.501,-0.0041,0.32,0.007982548058253327,0.9083737527275763,0.03496791792865046,0.06890968180747947
0.502,-0.0171,0.32,0.00770923837650356,0.9083737527275763,0.032918090774920715,0.06890968180747947
0.503,-0.0117,0.32,0.007707474244211223,0.9083737527275763,0.032904859753419925,0.06890968180747947
0.504,-0.0103,-0.68,0.00772762324552766,0.9083737527275763,0.03305597759803688,0.06890968180747947
0.505,0.0034,0.32,0.0075884715046621205,0.9377398530578223,0.03201233722976005,0.07531843374097298
0.506,0.0052,0.3199999999995559,0.006915520082641777,0.9377398530578223,0.02696519038458787,0.07531843374097298
0.507,0.0165,-0.68,0.006483080990485819,0.9238880827142604,0.02372189000912914,0.07229547328748104
0.508,0.0179,0.32,0.006344116836356165,0.9223208596067288,0.022679656544487916,0.07195344816301248
0.509,0.0142,0.32,0.006340076083461113,0.9098254485064475,0.02264935083064433,0.06922649466397249
0.51,0.0004,0.32,0.006388959458036429,0.9082339596349728,0.023015976952078864,0.06887917386660763
0.511,-0.0087,0.32,0.006369206838992815,0.9098254485064476,0.022867831981093354,0.06922649466397252
0.512,-0.004,0.32,0.006360015644416685,0.9176031299633217,0.022798897869075272,0.07092386784305614
0.513,-0.0055,0.32,0.006373680459240573,0.9176031299633218,0.02290138420727364,0.07092386784305615
0.514,0.001,0.3199999999995559,0.006382613607741835,0.9466829783443933,0.02296838296944318,0.07727014918249366
0.515,-0.0002,-0.68,0.006378016953330631,0.9466829783443932,0.022933907984993035,0.07727014918249364
0.516,0.0165,0.32,0.006374915656469417,0.9451535537526555,0.02291064820701081,0.07693637306992837
0.517,0.0143,0.32,0.0063755152762750645,0.9526428488892361,0.022915145365514897,0.07857080985749287
0.518,0.0121,-0.68,0.006318168345871689,0.9511230079353895,0.022485042434761366,0.07823912524353223
0.519,0.0062,-0.68,0.0064067533977206215,0.949600734471244,0.023149431795328374,0.07790690976728802
0.52,0.0044,-2.68,0.0067115512449061965,0.9480760167795562,0.02543542071295257,0.07757416087163121
0.521,-0.0036,-1.68,0.006969874541682839,0.9465488430487105,0.02737284973040889,0.07724087597883741
0.522,-0.0021,0.32,0.006972868898587476,0.9465488430487105,0.027395307456940153,0.07724087597883741
0.523,-0.0032,0.32,0.006940302934026773,0.917464743141842,0.027151062181703076,0.07089366680172772
0.524,-0.0093,0.32,0.006940768431790468,0.9174647431418421,0.027154553422664294,0.07089366680172775
0.525,0.003,-0.68,0.006955330532222125,0.9190402473363538,0.027263769417827904,0.07123749916078308
0.526,0.0015,1.319999999999556,0.0069428147909604745,0.9314120449832088,0.02716990115043635,0.07393747570511194
0.527,0.0092,0.32,0.006967885619829142,0.9221831807485648,0.027357932783463382,0.07192340162504737
0.528,0.0027,-0.68,0.007043425513798687,0.9221831807485648,0.02792448324321039,0.07192340162504737
0.529,-0.001,-0.68,0.007028960869064804,0.9237506374402564,0.027815998167399162,0.07226547772608145
0.53,0.0045,-1.68,0.00705236815953992,0.9221831807485665,0.027991553234837502,0.07192340162504775
0.531,-0.0104,0.32,0.007059808721005731,0.9268775986087667,0.0280473575694442,0.07294789446542661
0.532,0.0009,1.32,0.007047528100444772,0.9253154389109787,0.027955252711213997,0.07260697436125761
0.533,-0.0009,-0.68,0.007030935790163848,0.9268775986087701,0.02783081010845217,0.07294789446542735
0.534,0.0045,0.32,0.007135861574676279,0.9221831807485699,0.02861775523547075,0.07192340162504848
0.535,-0.0034,-1.68,0.007210473566362598,0.9206130552733938,0.029177346412677937,0.07158074309832206
0.536,0.0071,1.32,0.007214303862534473,0.9128610190884955,0.02920607369760129,0.06988896665099756
0.537,0.006,-0.68,0.007206912300010595,0.9482099360388321,0.029150636855873126,0.07760338692828037
0.538,0.0024,-2.68,0.007209658989194697,0.9482099360388321,0.029171237070385776,0.07760338692828037
0.539,0.0014,1.32,0.007187050092994773,0.9482099360388321,0.029001669973275423,0.07760338692828037
0.54,-0.0051,-0.68,0.007187081455573896,0.9497344387345881,0.029001905193139887,0.0779360889039996
0.541,-0.0044,0.32,0.007183845768738232,0.9571878924678481,0.028977637488116607,0.07956270379283575
0.542,-0.0083,-2.68,0.007149489216567323,0.9571878924678481,0.028719962776055215,0.07956270379283575
0.543,0.0,-0.68,0.007159901832998297,0.9497344387345942,0.02879805757227661,0.07793608890400093
0.544,0.0012,-0.68,0.007221266492733265,0.9571878924678481,0.029258293539765282,0.07956270379283575
0.545,-0.0053,0.32,0.00722194848008861,0.9571878924678482,0.029263408456260506,0.07956270379283578
0.546,0.0009,0.32,0.007201624368037834,0.9556752796694601,0.029110977278226827,0.07923259662548023
0.547,0.0049,0.32,0.007210873672253631,0.9556752796694601,0.029180347213507807,0.07923259662548023
0.548,-0.0034,0.32,0.007204963555567549,0.964583754194297,0.029136021240174993,0.08117675000960263
0.549,-0.0022,-0.68,0.007209084610187387,0.9645837541942969,0.02916692921828855,0.0811767500096026
0.55,0.0004,-0.68,0.007209691301802772,0.9660824189329297,0.02917147941548316,0.08150381320265038
0.551,0.0124,0.32,0.0072416090999551114,0.9586981187020106,0.029410863431889256,0.07989229012501324
0.552,0.0012,0.32,0.007230726454237692,0.9865674027512265,0.029329243408210727,0.0859743822661864
0.553,0.0088,0.32,0.007025021021531067,0.9951993864827107,0.02778644924544182,0.08785819529573108
0.554,0.0023,2.32,0.006987644281337129,0.9966520155858257,0.02750612307303208,0.0881752118375444
0.555,-0.0038,0.32,0.00702893451050395,1.003757140716725,0.027815800477754844,0.08972580874718801
0.556,-0.007,0.32,0.0070402423690169285,1.0122425481198063,0.027900609604464305,0.0915776334869192
0.557,-0.0076,0.32,0.007120077058400456,1.0122425481198079,0.028499371101167393,0.09157763348691954
0.558,-0.0014,-0.68,0.006926852283722521,1.0122425481198052,0.027050182080959984,0.09157763348691896
0.559,-0.0089,0.32,0.006709256350212699,1.012242548119805,0.025418208964625308,0.09157763348691891
0.56,-0.0024,-0.68,0.0066216777536942445,1.0136707540122742,0.024761368035757538,0.09188931999523482
0.561,0.0002,1.32,0.00662657666169896,1.0220738604543587,0.024798109927180484,0.09372318366975865
0.562,0.0042,-0.68,0.006664948330615478,1.0234883475349423,0.025085898081538736,0.0940318762339959
0.5630000000000001,0.0034999999999992784,2.32,0.0066748659155091645,1.0234883475349423,0.025160280133006314,0.0940318762339959
0.5640000000000001,-0.0029999999999993894,-0.68,0.006659773799432837,1.0234883475349423,0.025047089011702307,0.0940318762339959
0.5650000000000001,0.0024999999999994337,0.32,0.006706645462401627,1.0234883475349439,0.02539862726266651,0.09403187623399625
0.5660000000000001,-0.002599999999999911,1.32,0.006777470203295083,1.0346119170275963,0.025929813996008067,0.09645944396317005
0.5670000000000001,-0.0018000000000010102,0.32,0.0066223745520834435,1.0346119170275963,0.02476659403525273,0.09645944396317005
0.5680000000000001,-0.01090000000000101,0.32,0.006499025903124722,1.0428462962200042,0.023841477118820325,0.09825648521062877
0.5690000000000001,-0.01999999999999988,0.32,0.00640521516428323,1.0428462962200045,0.02313789501899263,0.09825648521062882
0.5700000000000001,-0.01889999999999839,0.32,0.006376654835542352,1.042846296219996,0.02292369207895152,0.09825648521062698
0.5710000000000001,-0.004399999999999801,-0.68,0.006380663642860304,1.0358867172432897,0.02295375820043613,0.09673765176928889
0.5720000000000001,-0.0025999999999989894,0.32,0.006398786319588368,1.0316884350490068,0.023089678576976115,0.0958214337891218
0.5730000000000001,0.006499999999999833,-0.68,0.006451826144968804,1.0316884350490068,0.023487478148501887,0.0958214337891218
0.5740000000000001,0.004999999999999523,-0.68,0.006471866661590528,1.0316884350490052,0.023637782356106186,0.09582143378912145
0.5750000000000001,0.0007000000000007216,-1.68,0.006661347460313612,1.0330897581186267,0.025058891494451997,0.09612725348703469
0.5760000000000001,0.007200000000000411,0.32,0.006779054925274469,1.044111042775307,0.0259416994371811,0.09853249894212611
0.577,0.0109,-0.68,0.006827175620388983,1.035886717243294,0.026302605449988917,0.0967376517692898
0.578,0.0033,-0.68,0.0067985853414144265,1.035886717243294,0.026088177882697645,0.0967376517692898
0.579,0.0058,0.32,0.006816568431108781,1.0344891829523164,0.02622305135416579,0.09643265892077729
0.58,0.0033,-1.68,0.006898888729634885,1.0454957154197657,0.026840454960732653,0.09883468491124131
0.581,-0.0007,0.32,0.007095366595997537,1.0344891829523164,0.0283140422226204,0.09643265892077729
0.582,0.0014,-0.68,0.007184799951770029,1.035886717243294,0.028984793876707316,0.0967376517692898
0.583,0.0123,1.32,0.0074786174025265745,1.0290034662684873,0.031188429638691936,0.09523547587608554
0.584,0.0104,0.32,0.007539096610435742,1.0290034662684875,0.03164202470277673,0.09523547587608559
0.585,0.0028,-0.68,0.007526371824621443,1.0304084408176686,0.031546588597767364,0.09554209245974207
0.586,0.0016,-2.68,0.007523332262459084,1.0192389972879552,0.031523791831052174,0.0931045133459988
0.587,-0.002,0.32,0.007538349573624532,1.0108123242760216,0.03163642191428182,0.09126550658817865
0.588,0.0012,0.32,0.007517227593660115,1.0093800739030645,0.031478006713640524,0.09095293742701285
0.589,0.0005,-0.68,0.007515231672783274,0.9762485805168079,0.03146303727390516,0.08372243967924053
0.59,-0.0115,1.32,0.0075278888126106775,0.9674475243013508,0.03155796603288897,0.08180172887994175
0.591,-0.0003,1.32,0.007516512613217054,0.9792079113204456,0.0314726443484393,0.08436827337170826
0.592,-0.0047,-0.68,0.0075441672042222754,0.9806842279287898,0.03168005424041559,0.08469045938931952
0.593,-0.0113,1.32,0.0075688477990789906,0.9450192013716313,0.03186515911186986,0.07690705249034935
0.594,0.005,-0.68,0.0075714238294565805,0.9525095528810271,0.03188447938249844,0.07854171981691106
0.595,-0.0015,0.3199999999995559,0.007651092582989786,0.9790782320031446,0.03248199635756735,0.08433997262471969
0.596,0.0042,-0.68,0.007692365118791479,0.9805547438558136,0.03279154106175771,0.08466220125174896
0.597,-0.0049,1.32,0.007735188277571923,0.9820290357285152,0.03311271546404985,0.08498394539834844
0.598,0.0031,0.32,0.0077521635476227,0.9835011176046566,0.03324003027144784,0.085305207243261
0.599,-0.0014,-0.68,0.007745207784707802,0.9835011176046565,0.033187861934027146,0.08530520724326099
0.6,0.0077,-0.68,0.007789355130327203,1.0163962273449672,0.033518967759610725,0.0924841174758043
0.601,-0.0011,2.32,0.00781291933116738,1.0482595735754365,0.033695699657393836,0.09943785935728151
0.602,-0.0001,1.32,0.007725311879031056,1.0496387735351087,0.033038642310912664,0.09973885098738636
0.603,-0.0092,-0.6799999999991119,0.0077414009041924785,1.0496387735351087,0.033159310266916944,0.09973885098738636
0.604,-0.0128,1.32,0.00786492627326965,1.0510161636359472,0.03408575258717365,0.10003944764042005
0.605,-0.0052,1.32,0.008002052849554457,1.0332126584298902,0.035114204187450086,0.09615407480816958
0.606,-0.0118,0.32,0.008014103069428452,1.0414581010410415,0.03520458103670032,0.09795353049627467
0.607,0.0001,-0.679999999999556,0.008114313973391235,1.0414581010410415,0.03595616448126629,0.09795353049627467
0.608,0.0048,0.32,0.008090518780535422,1.0428462962199891,0.035777700139528336,0.09825648521062548
0.609,0.0092,-0.68,0.008107434275954152,1.0428462962199891,0.03590456663619291,0.09825648521062548
0.61,0.0026,1.32,0.008108541203504746,1.0428462962199891,0.03591286861121221,0.09825648521062548
0.611,0.0113,-0.679999999999556,0.008105627279754748,1.0428462962199891,0.035891014134677005,0.09825648521062548
0.612,-0.0054,0.32,0.008109540133003242,1.0672872541179796,0.03592036059904656,0.10359039180440806
0.613,-0.0032,0.32,0.00809986951868856,1.0976743257606834,0.03584783083102454,0.11022195683869368
0.614,0.008,0.32,0.008094583669347549,1.0740433833795455,0.03580818687315095,0.10506482511291912
0.615,0.0098,-1.6799999999991118,0.008133206325183107,1.0740433833795455,0.03609785743357175,0.10506482511291912
0.616,0.008,0.32,0.008429090279765381,1.07538951580212,0.03831699200858102,0.10535860020286619
0.617,0.0065,1.32,0.008584575128158523,1.067406216963746,0.03948313095466351,0.10361635382725906
0.618,0.005,-0.68,0.008590714663014936,1.067406216963746,0.03952917756808524,0.10361635382725906
0.619,0.0013,-0.6799999999986678,0.008531681668850764,1.0687607091059215,0.039086429131114465,0.10391195331229278
0.62,-0.0049,2.32,0.008329246854691644,1.0687607091059215,0.03756816466178798,0.10391195331229278
0.621,-0.006,1.32,0.008112180297749051,1.0687607091059215,0.03594016187850227,0.10391195331229278
0.622,-0.0085,0.32,0.008100473681350497,1.0674062169637457,0.035852362061026266,0.103616353827259
0.623,-0.006,0.3199999999995559,0.0080968682403732,1.07538951580212,0.03582532119379787,0.10535860020286619
0.624,-0.0183,-0.68,0.008101887177803468,1.0740433833795455,0.03586296330790655,0.10506482511291912
0.625,-0.0129,-1.68,0.008106486691022832,1.072695561688238,0.03589745973346539,0.10477068136305001
0.626,-0.0082,0.32,0.008106625384338434,1.0619709726493975,0.03589849993563657,0.1024301856906368
0.627,-0.0067,0.32,0.008074857206987746,1.0619709726493975,0.03566023807772858,0.1024301856906368
0.628,-0.0056,0.32,0.008017686980427794,1.0606078094348403,0.03523146042873638,0.10213269386200736
0.629,0.0107,-1.68,0.008012175285555308,1.0606078094348403,0.035190122625624674,0.10213269386200736
0.63,0.0172,-0.68,0.007994028989009805,1.0619709726493975,0.03505402510006149,0.1024301856906368
0.631,0.0154,-0.68,0.007987317854431675,1.0511369679704785,0.03500369147923067,0.10006581154314446
0.632,0.0208,-0.68,0.008065481204467135,1.0511369679704785,0.0355899179030566,0.10006581154314446
0.633,0.0096,-0.68,0.008162534806181971,1.0511369679704785,0.03631782152830939,0.10006581154314446
0.634,-0.0009,-0.68,0.008319296557881621,1.04435423495366,0.03749353727040443,0.09858557232693727
0.635,0.0027,-0.679999999999556,0.008272156973898914,1.0457385855850312,0.037139989607384766,0.09888768802107643
0.636,-0.0085,0.32,0.008279068935607222,1.04435423495366,0.03719182943502835,0.09858557232693727
0.637,0.002,0.32,0.008300571461032587,1.0109379328714665,0.037353098732948904,0.09129291895549566
0.638,-0.0016,-0.68,0.008302908277215438,1.0109379328714665,0.03737062489314278,0.09129291895549566
0.639,0.0046,0.31999999999911183,0.00831333452417514,1.0123679792615778,0.037448821918556086,0.09160500712738588
0.64,-0.003,-1.68,0.008404801700141453,1.0123679792615778,0.03813482725788537,0.09160500712738588
0.641,-0.0078,-0.68,0.008387357220531123,1.037527161426205,0.038003993370995554,0.09709565639744232
0.642,-0.0103,0.32,0.008538075064782559,1.030654866251837,0.03913437970681905,0.09559587145865338
0.643,0.002,1.3200000000004442,0.008531669420482954,1.037527161426205,0.0390863372681524,0.09709565639744232
0.644,0.0111,2.32,0.00845720947467924,1.0292502280849178,0.03852788643759075,0.09528932828584977
0.645,0.0096,-0.68,0.008442567008291147,1.0278436703590281,0.038418067696418715,0.0949823661954124
0.646,0.0082,-0.68,0.008441696407084191,1.0292502280849194,0.03841153817290289,0.09528932828585011
0.647,0.0071,-0.679999999999556,0.008431383909542844,1.0361318397681758,0.03833419427001701,0.09679114642597261
0.648,0.001,0.32,0.008479472171507026,1.0361318397681758,0.038694857033658506,0.09679114642597261
0.649,0.0086,-2.68,0.008532988135449353,1.0375271614262067,0.03909622765230875,0.0970956563974427
0.65,0.0061,-2.68,0.00853282699986947,1.0375271614262067,0.03909501913278262,0.0970956563974427
0.651,-0.0041,-0.679999999999556,0.008506842908022396,1.0361318397681758,0.03890013801224512,0.09679114642597261
0.652,-0.0051,0.32,0.00854529312721905,1.018068077633869,0.039188515295009385,0.0928489760593758
0.653,-0.0164,-0.68,0.008546925543712967,1.0096316318404739,0.03920075844583377,0.09100783652493964
0.654,-0.0149,1.32,0.008504098875100622,1.0096316318404797,0.038879557719744065,0.09100783652494089
0.655,-0.0058,1.319999999999556,0.008423370107280715,1.013921247415242,0.03827409061991444,0.09194398677300045
0.656,-0.0145,0.32,0.008407346143890267,1.0068878480702577,0.03815391062827337,0.09040904304045541
0.657,-0.0044,-0.68,0.00833862604390934,1.0153470920211558,0.03763850873674104,0.09225515796264595
0.658,-0.0054,-0.68,0.00833975631957728,1.013921247415245,0.03764698582302833,0.09194398677300113
0.659,-0.009,0.32,0.008340043574925543,1.0153470920211587,0.03764914024291259,0.09225515796264658
0.66,0.0011,-0.68,0.008289696567618535,1.0153470920211587,0.037271536851674426,0.09225515796264658
0.661,-0.0025,-2.68,0.008328418774603386,1.0068878480702605,0.037561954047368805,0.09040904304045604
0.662,-0.0013,-2.68,0.00825474391714217,1.013921247415248,0.037009391392418885,0.09194398677300175
0.663,0.0019,-0.68,0.008272115518897907,1.0139212474152477,0.0371396786941885,0.09194398677300171
0.664,0.0085,-0.68,0.00830764350275753,1.0139212474152477,0.03740613916337673,0.09194398677300171
0.665,0.0223,-0.68,0.008271401639384173,1.0153470920211616,0.03713432458597553,0.09225515796264722
0.666,0.0165,0.32,0.008226449545374884,1.002568139651557,0.036797183134098174,0.08946632543855572
0.667,-0.0037,0.32,0.008228909863737362,1.0110635258620733,0.036815635562691046,0.09132032791726902
0.668,0.0043,-0.68,0.008207919911108402,1.002568139651557,0.036658210569259095,0.08946632543855572
0.669,-0.0077,0.32,0.008380264251873978,1.002568139651557,0.03795079598822856,0.08946632543855572
0.67,-0.0011,0.32,0.008719673507408866,1.0011240948696942,0.0404963710434862,0.08915118230808418
0.671,0.0008,0.32,0.008822822542559705,0.9736715544577316,0.041269990520774964,0.08316003879682722
0.672,-0.001,1.32,0.008948705969542038,0.9663452481342314,0.04221411831449577,0.0815611721006
0.673,0.0071,0.32,0.00892106450254965,0.9678411852712954,0.04200680685283377,0.08188764003170862
0.674,0.0057,0.32,0.008922437541316131,0.967841185271297,0.04201710466639323,0.08188764003170898
0.675,-0.0008,-0.68,0.008844937582191103,0.967841185271294,0.04143585368541673,0.08188764003170833
0.676,0.0003,0.32,0.00966187969978702,0.9544263812761409,0.04756293313958254,0.07896004153975514
0.677,-0.0051,0.32,0.010326875634234692,0.9633464049655931,0.05255041369579189,0.08090671537195293
0.678,0.0014,-0.68,0.010518254863804508,0.9648469916395395,0.05398576109702761,0.08123419800123903
0.679,0.0021,-0.68,0.010575854649942379,0.9781188884319298,0.054417760449990644,0.08413060894013899
0.68,-0.0,-0.68,0.010530932812806357,0.9648469916395243,0.05408084592516547,0.08123419800123571
0.681,-0.0112,0.32,0.010392424284089015,0.9766386939864594,0.053042029658686075,0.08380757663732469
0.682,-0.0126,-0.68,0.01028779970122303,0.975156252749189,0.05225734354901983,0.0834840540027629
0.683,-0.0202,-0.68,0.010095373180080773,0.975156252749183,0.05081414144359172,0.0834840540027616
0.684,-0.0054,-0.68,0.010050243868516816,0.982416853807158,0.050475670857110175,0.08506858141856888
0.685,0.0044,0.32,0.01005262427359473,0.9940001488732745,0.05049352393474118,0.08759647800055873
0.686,0.0062,0.32,0.01005653299432016,0.9925436386599636,0.050522839405119084,0.08727861445923946
0.687,-0.0028,0.32,0.010020372437403028,0.9940001488732745,0.050251634627490355,0.08759647800055873
0.6880000000000001,-0.004299999999998146,-0.68,0.01002394179029488,0.9940001488732745,0.05027840483347837,0.08759647800055873
0.6890000000000001,0.012399999999999755,-0.68,0.010081991402837723,0.9925436386599609,0.05071377789195186,0.08727861445923885
0.6900000000000001,0.010200000000000644,-2.68,0.010081321468364822,0.9925436386599641,0.0507087533722752,0.08727861445923955
0.6910000000000001,0.015999999999998602,-0.68,0.010208162448791016,0.9794672184472998,0.051660062832733195,0.08442486362482006
0.6920000000000001,0.003399999999999478,1.32,0.01019052418182711,0.9866960977836168,0.05152777553747209,0.08600246820638231
0.6930000000000001,-0.0012999999999998445,0.32,0.01013827607774899,0.9953269654066847,0.05113591388886688,0.08788603766044745
0.6940000000000001,9.999999999988898e-05,0.32,0.010145574708206097,0.9881612270764026,0.05119065373855035,0.08632221274455268
0.6950000000000001,-0.0008999999999998779,-0.68,0.010094869004646815,0.9603381973703928,0.05081036011946096,0.0802502149845919
0.6960000000000001,0.00020000000000112135,1.32,0.010097758686506872,0.958830554380115,0.050832032781418866,0.0799211924102527
0.6970000000000001,0.010299999999997747,1.32,0.010069462265829223,0.958830554380115,0.05061980915623639,0.0799211924102527
0.6980000000000001,-0.009999999999999034,-0.68,0.010062331704587986,0.970695345269885,0.05056632982846415,0.08251052162660058
0.6990000000000001,-0.0013000000000002775,-0.68,0.010063700448824897,0.9794672184472843,0.0505765954329805,0.0844248636248167
0.7000000000000001,-0.0037999999999986677,0.32,0.01002719096383918,0.9452878870383279,0.050302773689040486,0.0769656894822066
0.7010000000000001,0.008199999999999279,1.32,0.010089338021331303,0.9176031299632967,0.05076887765270611,0.07092386784305069
0.7020000000000001,0.0017000000000001998,0.32,0.010091505896484004,0.9176031299633,0.05078513675236718,0.07092386784305138
0.7030000000000001,0.0035000000000002,-0.68,0.010096476635387881,0.9176031299632998,0.05082241737672719,0.07092386784305137
0.704,0.0053,-1.68,0.009974146619980268,0.9160251540229163,0.04990494022885108,0.07057949605908237
0.705,0.0006,-0.68,0.009868880933259263,0.9160251540229163,0.04911544582962126,0.07057949605908237
0.706,0.005,1.32,0.009855171929209167,0.9082339596349575,0.0490126280714922,0.06887917386660429
0.707,0.0014,0.32,0.009782608766079176,0.9082339596349575,0.048468403142495495,0.06887917386660429
0.708,-0.0048,-0.68,0.009820371528492782,0.9066396771145948,0.0487516244879659,0.06853124339337134
0.709,0.0007,-0.68,0.009809161502755766,0.9422220262496152,0.0486675491087015,0.07629660706961101
0.71,-0.0084,0.32,0.009768324134965117,0.9558081341887629,0.04836126817182359,0.07926159031711377
0.711,-0.0022,1.32,0.009771532785925956,0.9558081341887599,0.04838533310733652,0.07926159031711312
0.712,-0.0076,0.32,0.009789050566567944,0.9191783969579506,0.048516716753181546,0.07126764843646363
0.713,-0.0083,0.32,0.009802357723202945,0.881027049236842,0.04861652064902134,0.06294163576459352
0.714,0.0019,-0.68,0.009802554107150769,0.8810270492368422,0.048617993531892625,0.06294163576459355
0.715,-0.0046,0.32,0.009802554107150769,0.8810270492368388,0.048617993531892625,0.06294163576459283
0.716,-0.0082,1.32,0.009552619735353308,0.879383443198264,0.046743481591148835,0.06258294110445203
0.717,-0.0027,0.32,0.009410211476954967,0.879383443198264,0.04567541728727413,0.06258294110445203
0.718,-0.0176,-0.68,0.009424761408730773,0.8810270492368388,0.0457845420173167,0.06294163576459283
0.719,-0.0241,0.32,0.009540579640936192,0.8793834431982676,0.04665318068299341,0.06258294110445281
0.72,-0.0143,0.3199999999995559,0.009518635040509553,0.9096858784985985,0.04648859581521892,0.0691960354083137
0.721,-0.0161,-0.68,0.009556071702103748,0.9096858784985985,0.04676937139912608,0.0691960354083137
0.722,-0.0048,-0.68,0.00956793088064268,0.9190402473363339,0.04685831543518951,0.07123749916077873
0.723,-0.0062,0.32,0.009568231467013218,0.9096858784986002,0.0468605698379623,0.06919603540831408
0.724,0.0141,-0.679999999999556,0.009639531074961797,0.9190402473363357,0.047395318082106445,0.07123749916077912
0.725,0.041,0.32,0.009623590968884531,0.9206130552733707,0.047275767021707396,0.07158074309831702
0.726,0.0374,1.32,0.009634106496994107,0.9206130552733707,0.04735463365722802,0.07158074309831702
0.727,0.0211,-0.68,0.009655136637268594,0.9206130552733689,0.047512360058669066,0.07158074309831663
0.728,0.0124,-1.6799999999991118,0.009642980327839652,0.9221831807485452,0.04742118753599422,0.0719234016250431
0.729,0.0044,0.32,0.009645849672985806,0.9221831807485452,0.047442707672259984,0.0719234016250431
0.73,0.0023,-1.68,0.009645160055412468,0.9221831807485452,0.04743753552900305,0.0719234016250431
0.731,0.0045,0.32,0.009677662702633625,0.9206130552733672,0.04768130592314162,0.07158074309831627
0.732,0.0063,-0.6799999999991119,0.009614804597262206,0.9221831807485434,0.04720986908856834,0.07192340162504271
0.733,0.0009,1.32,0.00953684338031673,0.9496007344712251,0.0466251586662754,0.07790690976728387
0.734,0.0024,-1.68,0.009322228903361998,0.948076016779537,0.045015546523636076,0.07757416087162702
0.735,0.0039,0.32,0.009306841966829783,0.948076016779537,0.04490014424401493,0.07757416087162702
0.736,0.0003,-0.679999999999556,0.009302677383190497,0.948076016779537,0.044868909797532344,0.07757416087162702
0.737,-0.0033,0.32,0.009334541221991477,0.9496007344712251,0.045107889117906794,0.07790690976728387
0.738,-0.0109,0.32,0.009337112272212773,0.9585656647264981,0.04512717203728043,0.07986338384661336
0.739,-0.0044,0.32,0.00937017222635278,0.9570552294809407,0.04537512224256914,0.07953375190054211
0.74,-0.0163,0.3200000000004441,0.009291004484131872,0.9555424066785729,0.04478136286066597,0.07920359890267464
0.741,-0.005,1.32,0.009235583594779273,0.9189020769450184,0.044365705269791375,0.07120734535238957
0.742,-0.0006,1.32,0.009120830333244343,0.9173263354434622,0.04350505390183613,0.07086346120429984
0.743,-0.0043,-0.68,0.00911780898839595,0.9373335502276628,0.04348239376527833,0.07522976367517993
0.744,0.0045,0.32,0.009157553394885979,0.9373335502276628,0.04378047747424377,0.07522976367517993
0.745,0.0099,0.32,0.009189239753732266,0.938875713658699,0.044018125692009476,0.07556631986613718
0.746,-0.0031,-0.68,0.009296704543758987,0.9658195182076829,0.04482411340256677,0.08144643869557268
0.747,0.006,-1.68,0.009609653652882506,0.9569225481023308,0.047171236920145826,0.07950479599450958
0.748,-0.0019,1.3199999999991119,0.009719411918599579,0.9569225481023308,0.04799442573648322,0.07950479599450958
0.749,-0.0004,-0.68,0.00990430248404628,0.9907005630856033,0.04938110804899673,0.08687638828627392
0.75,-0.0127,1.32,0.010071528801455353,0.9907005630856033,0.05063530820776457,0.08687638828627392
0.751,-0.0046,-0.68,0.010187918413528074,0.9921597789740665,0.051508232231938615,0.08719484230439022
0.752,-0.006,0.32,0.010171190642850323,0.9921597789740665,0.05138277367395014,0.08719484230439022
0.753,-0.0049,0.32,0.010272308923066052,1.0007435264332873,0.052141162455487805,0.08906812842366572
0.754,-0.0037,1.32,0.010282102537443716,1.0078198068437918,0.05221461472602564,0.09061243036545448
0.755,-0.0026,-0.68,0.010556213803587497,0.9949441795574181,0.05427045377602755,0.08780249985583555
0.756,0.0083,0.32,0.011330674578318127,0.9934890533465615,0.060078922452943634,0.08748493835422548
0.757,0.0097,0.32,0.011707342089700102,0.9978480661236246,0.06290393504604122,0.0884362335976853
0.758,-0.0027,-2.68,0.01181775241416912,1.0063832976311367,0.06373201431385112,0.09029893177045709
0.759,-0.0012,-1.68,0.011856054827378736,1.0063832976311367,0.06401928304925704,0.09029893177045709
0.76,-0.0027,-0.679999999999556,0.011858880127122069,1.0049447350154057,0.06404047284426989,0.08998498504817058
0.761,0.0064,0.32,0.011849462085963196,1.0049447350154057,0.06396983737911255,0.08998498504817058
0.762,0.0053,0.32,0.011861931082889562,0.9963971807220857,0.06406335506321288,0.0881195975950216
0.763,0.002,-0.68,0.011849823247408613,0.9978480661236246,0.0639725460959533,0.0884362335976853
0.764,0.0085,-0.679999999999556,0.011821079370071494,0.9992968449777047,0.06375696653839101,0.0887524098750212
0.765,-0.0035,0.32,0.011829436226834134,0.9978480661236248,0.06381964310294672,0.08843623359768532
0.766,0.0012,0.32,0.011897516691996598,0.9992968449777047,0.06433024772271405,0.0887524098750212
0.767,-0.0064,-0.68,0.012055581355897325,0.9921597789740666,0.06551573532796298,0.08719484230439024
0.768,-0.0154,0.3200000000008882,0.012224343577544119,1.0467572608139184,0.06678145479403035,0.09911000003286265
0.769,-0.0042,2.32,0.012157233684142713,1.0467572608139184,0.06627812947859546,0.09911000003286265
0.77,-0.0085,0.32,0.01193442275553044,1.048138437603733,0.06460704381235353,0.0994114230792555
0.771,-0.0048,1.32,0.011863448232964518,1.0495177967515057,0.06407473371398009,0.09971244944999785
0.772,0.0013,0.3200000000004441,0.011778383819181051,1.060368344969743,0.0634367491973939,0.1020804339999066
0.773,0.0137,1.32,0.011962829893349366,1.0590031188330535,0.06482009781793498,0.10178249196658348
0.774,-0.0012,-0.68,0.012245181862318573,1.0590031188330535,0.06693774227603377,0.10178249196658348
0.775,0.0046,-0.68,0.012264602736369722,1.0576361304259623,0.06708339915406439,0.10148416534171711
0.776,0.0064,0.3199999999995559,0.011614740787306115,1.0590031188330562,0.062209423739662664,0.10178249196658407
0.777,0.0017,-0.68,0.010997443748581888,1.0508953454145076,0.0575796856938206,0.1000130807070668
0.778,-0.0027,-0.68,0.010841471726439372,1.0495177967515084,0.056409892936524174,0.09971244944999844
0.779,-0.0017,-0.68,0.010773690193102266,1.0371599505701594,0.0559015303104133,0.09701551762323614
0.78,-0.0079,0.3199999999995559,0.010770738120346807,1.0371599505701594,0.05587938971570336,0.09701551762323614
0.781,0.0022,-0.68,0.010768335413958177,1.024653073208304,0.05586136937787148,0.09428606176858176
0.782,0.0032,2.32,0.010807510553321305,1.0260640047048522,0.05615518357392769,0.09459397837496948
0.783,0.0021,0.32,0.0108787667584054,1.0246530732083095,0.05668960629586714,0.09428606176858298
0.784,0.0009,-0.68,0.010890480282561746,1.0162712933813345,0.056777457921641336,0.09245685233770337
0.785,0.0034,0.32,0.01088792491227066,1.0049447350154304,0.056758292602004774,0.08998498504817597
0.786,0.0099,-0.68,0.010892855914544546,1.0049447350154304,0.05679527520097969,0.08998498504817597
0.787,0.0036,1.32,0.010914811198381943,1.0035041101657243,0.05695994019451236,0.08967058827137672
0.788,0.009,0.32,0.011010011042155836,1.0049447350154332,0.057673940604410834,0.08998498504817659
0.789,-0.0023,0.32,0.011076634790827279,1.0049447350154332,0.05817361982629448,0.08998498504817659
0.79,-0.0009,0.32,0.011140703784809063,1.0049447350154332,0.05865413834556249,0.08998498504817659
0.791,0.0067,0.32,0.011058159308834506,1.0049447350154315,0.05803505340440788,0.0899849850481762
0.792,-0.0024,2.32,0.011062083283889487,0.9963971807221118,0.058064483282510855,0.0881195975950273
0.793,-0.0086,0.32,0.011098256404407836,0.9963971807221118,0.058335782287357446,0.0881195975950273
0.794,-0.0076,-0.68,0.011092057839174913,1.0035041101657227,0.058289292945131195,0.08967058827137638
0.795,-0.0141,2.32,0.011108206417197229,1.0119916391965706,0.05841040754858156,0.09152287602750737
0.796,-0.0243,0.32,0.011066171098824806,1.0119916391965709,0.0580951419624383,0.09152287602750742
0.797,-0.0178,1.32,0.01108248625971103,1.0105610602472397,0.05821750594013548,0.0912106716318118
0.798,-0.0215,-2.68,0.011096522143279303,0.9977208095737762,0.058322775300081446,0.08840846158673664
0.799,-0.0183,-0.68,0.011133553509741274,0.9977208095737883,0.05860051116376361,0.08840846158673928
0.8,-0.0158,-0.68,0.011181709326946782,0.9977208095737883,0.05896168059283737,0.08840846158673928
0.801,-0.0057,1.32,0.01113157407057804,0.9905723883129639,0.058585665337154105,0.08684841588569162
0.802,0.0145,1.32,0.011131367821032134,0.990572388312964,0.05858411846213331,0.08684841588569164
0.803,0.0057,1.32,0.011153266189223925,1.003504110165735,0.05874835658737836,0.08967058827137904
0.804,0.0245,0.32,0.011301961515162095,1.0035041101657332,0.05986357400225143,0.08967058827137865
0.805,0.0412,0.32,0.011312960790202314,0.9963971807221224,0.059946068747788565,0.08811959759502959
0.806,0.0299,-1.68,0.011319780472740312,0.9949441795574547,0.059997216480121754,0.08780249985584354
0.807,0.0162,1.32,0.011294388850801999,0.9963971807221224,0.05980677889374292,0.08811959759502959
0.808,0.0107,-0.68,0.011252935667851042,0.9963971807221224,0.059495879332931906,0.08811959759502959
0.809,0.0027,0.32,0.011256656571717396,0.9613152853272349,0.05952378617374647,0.08046345113996099
0.81,0.007,0.32,0.0112596612232718,0.9613152853272349,0.059546321110322015,0.08046345113996099
0.811,0.0059,0.32,0.01128182299679431,0.9598091771222297,0.05971253477992353,0.08013476351163003
0.812,-0.0054,-0.68,0.011294152550796143,0.9686796349528067,0.05980500663977325,0.08207062026936682
0.8130000000000001,-0.0011000000000004108,-0.68,0.011285239456524833,0.9686796349528067,0.0597381582846615,0.08207062026936682
0.8140000000000001,-0.004800000000000966,0.32,0.011285418897014276,0.9671849946398909,0.05973950409131345,0.081744435352488
0.8150000000000001,-0.013500000000000843,-0.68,0.011254724367700196,0.9745049877887224,0.059509294611516966,0.08334192428422114
0.8160000000000001,-0.021099999999999924,-0.68,0.011258300035666332,0.9745049877887223,0.05953611218066703,0.08334192428422112
0.8170000000000001,-0.02039999999999908,3.32,0.011258066788017489,0.9745049877887223,0.059534362819425674,0.08334192428422112
0.8180000000000001,-0.0120999999999994,-0.68,0.01123989203784532,0.973019295753872,0.05939805189118979,0.08301769220730773
0.8190000000000001,-0.006699999999999922,-0.68,0.011158948433028846,0.9817704052341453,0.05879097351031673,0.08492750281107217
0.8200000000000001,-0.005999999999998479,-0.68,0.011154525153082268,0.9626871505890845,0.05875779883723162,0.08076284207203908
0.8210000000000001,0.007700000000001532,-1.68,0.011127806872868668,0.9641887632746337,0.05855741129174781,0.08109054861440078
0.8220000000000001,0.0215000000000006,0.32,0.011118758552045072,0.9567898483243545,0.05848954873524735,0.0794758360730656
0.8230000000000001,0.026899999999998758,0.32,0.011131012776380124,0.956789848324353,0.05858145562134473,0.07947583607306527
0.8240000000000001,0.01569999999999951,0.32,0.011072632475569453,0.9567898483243467,0.058143602395368664,0.07947583607306388
0.8250000000000001,0.011299999999998634,-0.68,0.011073004997248458,0.9552766052514786,0.05814639631415007,0.07914559135687663
0.8260000000000001,-0.0009999999999987567,0.32,0.011066663146151375,0.9537609612607618,0.05809883232556215,0.07881482267302828
0.8270000000000001,0.010199999999999158,0.32,0.01110465836977983,0.9537609612607635,0.05838379713400589,0.07881482267302864
0.8280000000000001,0.002600000000000111,0.32,0.011142066430790723,0.9537609612607635,0.05866435821306314,0.07881482267302864
0.8290000000000001,0.0035999999999996,0.32,0.011139463539481318,0.9537609612607635,0.05864483648499969,0.07881482267302864
0.8300000000000001,-1.1324274851176588e-15,0.32,0.011141584357559917,0.9537609612607636,0.05866074265582321,0.07881482267302867
0.8310000000000001,-0.010200000000000412,-0.68,0.011131347781663093,0.9552766052514821,0.05858396816653258,0.07914559135687738
0.8320000000000001,-0.013899999999999023,0.32,0.011230186461472098,0.9817704052340966,0.059325259907147876,0.08492750281106157
0.833,-0.0051,0.32,0.01150561873193016,0.9552766052514492,0.061391006511453274,0.0791455913568702
0.834,0.0003,-0.68,0.011655146660951353,0.9567898483243172,0.0625124684632814,0.07947583607305747
0.835,0.0051,0.32,0.011679085414954254,0.9567898483243172,0.06269200951600755,0.07947583607305747
0.836,-0.0069,0.32,0.011674210172872129,0.9567898483243206,0.0626554451193972,0.07947583607305819
0.837,-0.0148,-0.68,0.011667715390792453,0.983242874324175,0.06260673414589914,0.08524884916014863
0.838,-0.0163,0.32,0.011662297353485332,0.9759884182410871,0.06256609877608364,0.08366566280152107
0.839,-0.0127,0.32,0.011685182150939841,0.9847131415925159,0.06273773513718706,0.08556971499159262
0.84,-0.0091,0.32,0.011839182879184432,0.9847131415925143,0.06389274315749911,0.08556971499159227
0.841,-0.0058,0.32,0.01201118105445749,0.9861812168870061,0.0651827323295237,0.08589010245456086
0.842,0.009,1.32,0.011993407170354567,0.9876471099823423,0.0650494279034669,0.08621001368224791
0.843,-0.0022,1.32,0.01199148309108087,0.9731497824689787,0.06503499727694864,0.08304616915788443
0.844,0.0075,1.32,0.012031137218254566,0.9731497824689787,0.06533240388954174,0.08304616915788443
0.845,0.0021,0.32,0.012024666887455647,0.9716620182983812,0.06528387630105557,0.08272148486553123
0.846,0.0068,0.32,0.011941638321933082,0.9433524900243585,0.06466116068024853,0.076543315410884
0.847,0.0082,0.32,0.011701012861997194,0.9523762382165047,0.06285646573311933,0.07851262570484265
0.848,0.0093,1.32,0.011569082547152412,0.9448848298871607,0.06186698617997071,0.07687772774170303
0.849,0.0104,-0.68,0.011367538846607794,0.9078144511978634,0.06035540507755744,0.06878762185673207
0.85,0.0071,-0.68,0.011247173560250779,0.9062194306501825,0.05945266343020166,0.06843953031907621
0.851,0.0046,-0.68,0.011136865762916372,0.9062194306501825,0.05862535311760467,0.06843953031907621
0.852,-0.0092,-1.68,0.011127725778469872,0.8983431967346415,0.058556803082409584,0.06672064940648594
0.853,-0.0189,0.3199999999995559,0.011036793711668998,0.8903972943303954,0.05787481107071109,0.06498656429392798
0.854,-0.0062,-0.68,0.011059489974376054,0.8823798413281905,0.05804503341807639,0.06323686423665982
0.855,-0.0047,0.32,0.010800453292281735,0.8840178763453257,0.05610225399888572,0.06359434309715337
0.856,-0.0033,-0.68,0.009984788647545621,0.8840178763453221,0.049984755612391615,0.06359434309715259
0.857,0.0004,0.32,0.009543090819045317,0.8840178763453221,0.046672014560531085,0.06359434309715259
0.858,0.004,0.32,0.009430841643363688,0.8759420348000014,0.045830143878077004,0.06183190053460183
0.859,0.0029,-1.68,0.009370438300006905,0.8759420348000014,0.04537711779939547,0.06183190053460183
0.86,0.0076,0.32,0.009376143009013784,0.8775920861341583,0.04541990321172175,0.06219200179282881
0.861,0.0083,1.319999999999556,0.009476541435012526,0.8792390408535331,0.04617289307467278,0.0625514272570025
0.862,0.0028,0.32,0.009471126007579714,0.8792390408535331,0.04613227727895797,0.0625514272570025
0.863,0.0021,0.32,0.009524348925387636,0.8775920861341583,0.04653145004673167,0.06219200179282881
0.864,-0.0016,1.32,0.009641476025227368,0.8759420348000013,0.04740990524141049,0.06183190053460181
0.865,-0.0045,0.32,0.00963068355330411,0.8759420348000013,0.047328961522686265,0.06183190053460181
0.866,-0.0009,0.32,0.00970878953928651,0.8840178763453219,0.04791475771516124,0.06359434309715253
0.867,-0.0006,0.32,0.009694855942749882,0.8823798413281868,0.047810255509651935,0.06323686423665902
0.868,-0.0075,1.32,0.00965950396933696,0.8168686848750948,0.0475451151217381,0.04893994548126934
0.869,-0.0028,1.3199999999991119,0.009674613159659952,0.8168686848750948,0.04765843430017576,0.04893994548126934
0.87,-0.0036,-0.68,0.009653442272447785,0.8150957164737341,0.047499652294363814,0.04855301924515144
0.871,0.0018,-0.68,0.009671387984561158,0.8150957164737341,0.047634245433353636,0.04855301924515144
0.872,0.0054,0.32,0.009668672714008536,0.799120882208916,0.04761388085909906,0.045066728970632235
0.873,0.0076,1.319999999999556,0.009447695863309631,0.800929213912249,0.04595655080767769,0.04546137276636282
0.874,-0.0015,0.32,0.009058431662279497,0.800929213912249,0.04303706283294492,0.04546137276636282
0.875,-0.0026,0.32,0.00895430138058693,0.8027334719655274,0.042256083990291335,0.045855127543382335
0.876,0.0112,0.32,0.008890630257509814,0.800929213912249,0.041778549509418325,0.04546137276636282
0.877,0.0093,-0.68,0.008890335013130555,0.8168686848750948,0.04177633517166887,0.04893994548126934
0.878,0.0013,-0.68,0.008842499284608663,0.8186378134714423,0.04141756641303999,0.04932603373217554
0.879,0.0028,-0.68,0.008974058575224594,0.8186378134714422,0.042404263278308235,0.04932603373217552
0.88,-0.0063,-0.68,0.00896770456426805,0.820403127103402,0.04235660809057236,0.049711289418998626
0.881,-0.015,2.3199999999986676,0.008968289929087596,0.8359713712756642,0.042360998336443856,0.053108846936614336
0.882,-0.0252,-0.68,0.008923137779921167,0.8444295654233339,0.04202235646756436,0.05495473275353061
0.883,-0.0187,-0.68,0.008823936002018095,0.8544986071640513,0.041278341485211256,0.05715216414546065
0.884,-0.0075,-0.68,0.008813254150838903,0.8544986071640513,0.04119822742390532,0.05715216414546065
0.885,0.0001,0.3200000000008882,0.008814062478650188,0.8544986071640513,0.04120428989591904,0.05715216414546065
0.886,0.0091,2.32,0.00881523667053319,0.8544986071640513,0.04121309635454889,0.05715216414546065
0.887,0.0004,-0.68,0.008811816476476435,0.8561899853192869,0.04118744484230213,0.05752128442022421
0.888,0.0116,1.32,0.008702828723551112,0.8544986071640515,0.040370034884703705,0.05715216414546068
0.889,0.0192,0.3199999999995559,0.008549084247375906,0.8644503735493246,0.03921694875916925,0.059324001786347766
0.89,0.0203,-0.68,0.008506226803826534,0.8644503735493246,0.03889551722054056,0.059324001786347766
0.891,0.0014,-0.68,0.008498017130954301,0.8952584016350212,0.038833944537608134,0.06604743483809598
0.892,-0.0011,-1.68,0.008481939796796546,0.8952584016350212,0.03871336426432559,0.06604743483809598
0.893,-0.013,0.32,0.008471471980094262,0.8856528817848615,0.0386348554651523,0.0639511607935468
0.894,-0.0065,0.32,0.008480365177179365,0.8905398873498258,0.03870155459103693,0.06501768328074273
0.895,-0.0007,0.32,0.00844738637743664,0.8954002205205509,0.03845421304507608,0.06607838488071734
0.896,0.0048,1.32,0.008445654847308415,0.8970144793836877,0.03844122654034777,0.06643067491902493
0.897,0.0033,-0.679999999999556,0.00843254019203028,0.9064996166067868,0.03834286640788257,0.06850067709276872
0.898,-0.001,0.32,0.00841335735723973,0.9080941450224137,0.03819899482826111,0.06884866122929822
0.899,0.008,0.32,0.008362211077352903,0.9080941450224136,0.037815396879395655,0.0688486612292982
0.9,0.0019,-0.68,0.008297630057077215,0.9158865287755436,0.03733103815441686,0.07054924298454608
0.901,-0.0035,-0.68,0.008272237040601102,0.9236131717126174,0.03714059010898136,0.07223547770095423
0.902,-0.0028,-0.68,0.008300427346721151,0.9220454813322951,0.03735201787321891,0.07189335060055536
0.903,0.0091,-0.68,0.008254922751128477,0.9079543088800394,0.03701073265028723,0.06881814389339949
0.904,-0.0057,-0.68,0.008035201745047054,0.9095462870737091,0.035362821454360836,0.06916557147867722
0.905,0.0001,0.31999999999911183,0.00803367706990834,0.907954308880041,0.035351386365490435,0.06881814389339987
0.906,0.0055,-1.68,0.00804126089625647,0.937333550227644,0.03540826518909464,0.07522976367517581
0.907,0.007,-0.68,0.00804683688291615,0.9357888453420581,0.0354500851816784,0.0748926528463342
0.908,-0.0006,-0.68,0.008068902580850251,0.9357888453420581,0.035615578282770705,0.0748926528463342
0.909,-0.0042,-0.68,0.008062315878800446,0.9357888453420581,0.03556617790796957,0.0748926528463342
0.91,-0.0154,-0.68,0.008079312478113462,0.9311393553702967,0.035693652685188704,0.07387796490645836
0.911,-0.0049,0.32,0.008048169711796695,0.940280318736745,0.03546008142042533,0.0758728558177443
0.912,-0.0114,0.32,0.008012626367225887,0.9311393553703031,0.03519350574564802,0.07387796490645976
0.913,-0.015,0.32,0.008008353636761391,0.9311393553703031,0.03516146019617967,0.07387796490645976
0.914,0.0016,0.32,0.008006527159860971,0.9326917606772135,0.035147761589082505,0.07421675624750752
0.915,0.0183,1.32,0.00800553419213755,0.9326917606772135,0.03514031431466027,0.07421675624750752
0.916,0.0205,0.32,0.008015411801757497,0.9326917606772135,0.03521439655091067,0.07421675624750752
0.917,0.0187,0.32,0.008020967795232023,0.9342415863955627,0.035256066594273626,0.07455498462844165
0.918,0.0133,-0.68,0.008026239942308066,0.9342415863955627,0.0352956077849323,0.07455498462844165
0.919,0.0021,0.32,0.00800426012951725,0.9250409521024646,0.035130758823841486,0.07254707134911095
0.92,-0.0084,-0.68,0.008002095403758538,0.9173263354434628,0.03511452334468766,0.07086346120429997
0.921,-0.0073,0.32,0.008007832407153106,0.9173263354434595,0.035157550965458126,0.07086346120429926
0.922,-0.0062,-0.68,0.008035758958095818,0.9157478825432193,0.03536700056148378,0.07051898533032956
0.923,0.0014,0.32,0.008024653525491482,0.9525095528810199,0.03528370963245212,0.0785417198169095
0.924,-0.0076,-0.68,0.00799512728134923,0.9717926872609587,0.03506226231085356,0.08275000158913935
0.925,0.0037,0.32,0.007997503600765355,0.971792687260957,0.035080084745953276,0.08275000158913899
0.926,-0.0007,-1.68,0.008029008221593699,0.9732802516899278,0.03531636992556512,0.08307464229059923
0.927,-0.0043,-0.68,0.007951456712090863,1.0007435264332893,0.034734732315898624,0.08906812842366615
0.928,-0.0155,0.32,0.007898952905646581,1.0007435264332893,0.034340952895299114,0.08906812842366615
0.929,0.0012,-0.68,0.007925660849231709,0.9992968449777067,0.03454126291589765,0.08875240987502163
0.93,-0.001,-1.68,0.007940748852504781,0.9978480661236266,0.034654423191108924,0.08843623359768572
0.931,0.0049,1.32,0.007957109444947954,0.9963971807220877,0.034777127906237985,0.08811959759502204
0.932,-0.0042,1.32,0.007834187844134723,0.9688107061663085,0.03385521385799149,0.0820992247787674
0.933,-0.0027,0.32,0.007416985355430544,0.9688107061663055,0.03072618826155308,0.08209922477876674
0.934,-0.0012,-0.68,0.007176958905358024,0.9673162683769557,0.02892598589835074,0.0817730840599013
0.935,0.0053,0.32,0.007192985323872821,0.9746352755955661,0.02904618430346522,0.08337035782577516
0.936,0.0065,-0.68,0.007261817732335903,0.9761185080465259,0.02956242851047954,0.08369405313196189
0.937,0.0054,0.32,0.007242537210672383,0.9494670113796405,0.029417824277687875,0.07787772652156491
0.9380000000000001,-0.0011000000000009216,1.32,0.007305460528010429,0.9494670113796405,0.029889750203094256,0.07787772652156491
0.9390000000000001,-0.009399999999999879,0.32,0.007216019767764355,0.9419524660669775,0.02921894301533245,0.07623777922654557
0.9400000000000001,-0.00829999999999879,2.32,0.006969406017228233,0.9434870797448158,0.027369335789215552,0.07657268778656579
0.9410000000000001,0.002599999999998834,0.32,0.006736368502754485,0.9434870797448097,0.025621550559114074,0.07657268778656445
0.9420000000000001,-0.007899999999998623,0.32,0.006742210806235041,0.9509894988978137,0.02566536793227884,0.07820998871218893
0.9430000000000001,0.0044999999999994775,-1.68,0.006832451796940261,0.9373335502276877,0.0263421768617788,0.07522976367518536
0.9440000000000001,-0.0001999999999998446,-1.68,0.006740782834832941,0.9373335502276876,0.025654658123039617,0.07522976367518534
0.9450000000000001,0.0012000000000004106,-0.68,0.006757548842868319,0.9464146887420398,0.025780403461845555,0.07721159862629168
0.9460000000000001,0.004900000000000111,1.32,0.006898143192274532,0.9464146887420398,0.026834863418144086,0.07721159862629168
0.9470000000000001,0.0058999999999994005,-0.68,0.006898143192274532,0.9373335502276812,0.026834863418144086,0.07522976367518393
0.9480000000000001,0.0004999999999999223,1.32,0.007007791239000618,0.9357888453420984,0.027657225590217965,0.07489265284634299
0.9490000000000001,-0.00020000000000028868,1.32,0.007010733985740718,0.9643204448911887,0.027679296239657782,0.0811192863359645
0.9500000000000001,-0.0028000000000005993,1.32,0.007055894272749985,0.9775994901116786,0.028017999142493765,0.08401725732205795
0.9510000000000001,-0.008199999999999435,0.32,0.007071279076621697,0.9761185080464754,0.028133385427125693,0.08369405313195087
0.9520000000000001,-0.0030999999999996,0.32,0.0071559052942941894,0.9833720044415558,0.02876808346559966,0.08527703005172531
0.9530000000000001,0.0004999999999992784,-0.68,0.007275264328037521,0.981899728996634,0.02966327820163551,0.08495572596305953
0.9540000000000001,-0.005999999999998679,0.32,0.00721880614953601,0.9818997289966341,0.029239840924911168,0.08495572596305956
0.9550000000000001,0.005899999999999845,2.32,0.007248769518002266,0.9804252426819327,0.029464566686201888,0.08463393938213856
0.9560000000000001,0.004500000000000166,0.32,0.007249638504459017,0.9891108305807776,0.029471084099064355,0.0865294507920386
0.9570000000000001,0.005999999999999589,0.32,0.007244359824523517,0.977469597407745,0.029431493911851216,0.0839889100063395
0.9580000000000001,0.0023000000000004107,0.32,0.007221651235535416,0.977469597407745,0.0292611791171733,0.0839889100063395
0.9590000000000001,0.005999999999999634,1.32,0.007222990776532403,0.977469597407745,0.029271225696905052,0.0839889100063395
0.96,0.0027,1.32,0.007211424999743001,0.9759884182410784,0.02918448217883752,0.08366566280151919
0.961,0.0034,0.32,0.007052369205787568,0.9759884182410754,0.027991561081712243,0.08366566280151853
0.962,-0.0009,0.32,0.0070580040346285575,0.9759884182410754,0.028033822391633403,0.08366566280151853
0.963,0.0012,-0.68,0.0069650506710901535,0.977469597407742,0.027336670620822793,0.08398891000633885
0.964,-0.001,1.32,0.006806720713210589,0.9789485355074546,0.02614919330632515,0.08431166812878142
0.965,-0.006,0.32,0.006825313194058146,0.9789485355074579,0.02628863722156638,0.08431166812878213
0.966,-0.0031,-0.68,0.006581955351548185,0.9977208095737302,0.02446344935973744,0.0884084615867266
0.967,0.003,0.32,0.006434472114380915,1.006257120491936,0.023357322630783047,0.0902713953261992
0.968,-0.0046,0.32,0.006298978213307022,1.006257120491936,0.02234111612171277,0.0902713953261992
0.969,-0.0021,-0.68,0.006159647970817648,1.006257120491936,0.02129613698829167,0.0902713953261992
0.97,-0.0047,-0.679999999999556,0.0061662353251725486,1.007693809575339,0.02134554225539186,0.09058493317554056
0.971,-0.0069,0.32,0.006131574909829279,1.0189898111228572,0.021085588564489555,0.09305013185511604
0.972,-0.0033,-2.68,0.006307963427010525,1.0204085733116581,0.02240850537376411,0.09335975740356792
0.973,0.0032,2.32,0.006277197492141743,1.0204085733116552,0.022177760351121078,0.09335975740356728
0.974,0.0025,0.3199999999995559,0.0062789573414670065,1.0204085733116552,0.022190959250297654,0.09335975740356728
0.975,0.0076,-0.68,0.006243910277535291,1.0273494117662472,0.021928105688558457,0.09487450098087902
0.976,0.001,2.32,0.0062354719704993174,1.027349411766247,0.02186481824559958,0.09487450098087896
0.977,0.0017,-0.68,0.006242876623425658,1.0161463440571497,0.021920353265563686,0.09242958384737088
0.978,-0.0066,0.32,0.006273173491614148,1.014721622527565,0.02214758028031173,0.09211865775385716
0.979,-0.0056,0.32,0.006090054694646416,1.0480172876304021,0.02077418626082562,0.09938498374556476
0.98,-0.0081,0.32,0.006108805995845885,1.046635950966929,0.020914821331344743,0.09908352580892067
0.981,-0.0056,0.32,0.006110381335482149,1.0342436711070448,0.020926636404788486,0.09637907930021532
0.982,-0.0001,-0.679999999999556,0.006105538622975559,1.034243671107045,0.020890315980535083,0.09637907930021537
0.983,0.0006,0.32,0.006105195282309533,1.0259402480362656,0.02088774091983583,0.09456697016549775
0.984,-0.0089,1.32,0.00610685800179526,1.0273494117662458,0.020900211343602225,0.09487450098087873
0.985,0.01,-0.68,0.006115227933158887,1.0273494117662432,0.02096298596788255,0.09487450098087814
0.986,0.0074,-0.68,0.006106382252707275,1.027349411766243,0.02089664321753852,0.0948745009808781
0.987,0.0096,-0.68,0.006071968237512952,1.0259402480362627,0.020638537531846864,0.09456697016549713
0.988,-0.002,-0.68,0.006058687700953902,1.027349411766243,0.020538933287018956,0.0948745009808781
0.989,-0.0042,-0.68,0.006073062965116198,1.0204085733116512,0.02064674800705837,0.09335975740356642
0.99,0.0096,-0.6799999999991119,0.006003424374153336,1.0218253656098268,0.020124457417902267,0.09366895305018551
0.991,-0.0031,1.32,0.005952861865031389,0.9963971807220589,0.01974523775947184,0.08811959759501574
0.992,-0.0111,0.32,0.005969762702459549,0.9963971807220587,0.019871994320963624,0.08811959759501571
0.993,-0.0067,0.32,0.005946022127539878,0.9978480661235978,0.01969393961465413,0.08843623359767942
0.994,0.0081,1.319999999999556,0.0059516997379797255,0.9934890533465345,0.01973652178727747,0.0874849383542196
0.995,0.0139,0.32,0.005977711517798775,0.9818997289966304,0.01993161056806477,0.08495572596305873
0.996,0.0048,0.32,0.005991121571916584,0.980425242681929,0.020032186196735097,0.08463393938213776
0.997,0.0128,0.32,0.005971635781780405,1.0063832976311098,0.019886042446988283,0.09029893177045122
0.998,0.0023,2.3199999999982235,0.0059751797481262196,1.013420198693214,0.01991262225345927,0.09183463970512426
0.999,0.0113,-1.68,0.005976936608562754,1.0063832976311098,0.01992579873592073,0.09029893177045122
1.0,-0.005,0.32,0.005981034143284718,0.9978480661235977,0.019956530314409488,0.08843623359767941
1.0010000000000001,-0.011500000000000421,1.32,0.005989993161382363,1.0162712933812836,0.02002372309898169,0.09245685233769227
1.002,-0.0134,0.3199999999995559,0.00597295418203506,1.0176938454498996,0.01989593047080132,0.0927673049758605
1.0030000000000001,-0.0007000000000017763,-0.68,0.005989848862796327,1.019114411821529,0.02002264085718913,0.09307732426267261
1.004,-0.0087,0.32,0.005990625170967925,1.043989425442198,0.020028463181373243,0.09850595761352121
1.0050000000000001,-0.0011000000000007993,1.32,0.006009463558968398,1.0562673729064076,0.0201697514043467,0.10118545263212064
1.006,-0.0047,-0.68,0.0060447088330247345,1.0302852059978722,0.020434091545313504,0.09551519813667016
1.0070000000000001,0.003999999999998779,-0.68,0.006079991259720592,1.030285205997872,0.020698710331693945,0.09551519813667012
1.008,-0.0015,-0.68,0.006077584486486751,1.0316884350489806,0.020680659492455417,0.09582143378911608
1.0090000000000001,0.001099999999999023,0.32,0.006154696590328289,1.033089758118602,0.021259001552362152,0.09612725348702932
1.01,-0.0033,-0.679999999999556,0.006125649753294952,1.0247769853218254,0.021041149792045036,0.09431310390179604
1.0110000000000001,0.005699999999998645,0.32,0.006123322983491112,1.0163962273449392,0.021023698979860648,0.0924841174757982
1.012,-0.0004,-0.68,0.006114285063738391,1.0163962273449392,0.02095591443156455,0.0924841174757982
1.0130000000000001,0.002800000000000555,-0.68,0.006117105895774119,1.017818604799874,0.02097707071869616,0.09279453200690578
1.014,0.0053,0.3200000000008882,0.00613196375569216,1.017818604799874,0.02108850491492122,0.09279453200690578
1.0150000000000001,0.0028000000000027313,2.32,0.006139582845887675,1.0093800739030365,0.021145648217966675,0.09095293742700675
1.016,0.0151,1.32,0.006113819174627469,1.0093800739030365,0.02095242025549263,0.09095293742700675
1.0170000000000001,0.013299999999996691,0.32,0.006124470753348471,1.007945788362034,0.021032307272859218,0.09063992411809918
1.018,-0.0016,-0.68,0.006118675358228662,1.0163962273449392,0.020988841713179354,0.0924841174757982
1.0190000000000001,-0.0035000000000004,-0.68,0.006123502886379871,1.0427245313742033,0.02102504825451514,0.09822991168938548
1.02,-0.0053,-1.68,0.006148429407595609,1.0413361738717304,0.021211997577747756,0.09792692155013334
1.0210000000000001,-0.016499999999996292,-0.68,0.006150401849346173,1.0413361738717333,0.021226790923645978,0.09792692155013398
1.022,0.0002,-0.679999999999556,0.0063041782227669955,1.0536450396814356,0.022380116279052478,0.1006131640770586
1.0230000000000001,-0.001999999999998712,0.32,0.006299334413587809,1.0205330007883544,0.02234378762973638,0.09338691200778465
1.024,0.0038,1.32,0.006308673822915694,0.9950717912016671,0.022413833354854976,0.08783034936130682
1.025,-0.0017,0.32,0.006306457923011583,0.9950717912016687,0.022397214068760482,0.08783034936130715
1.026,-0.0031,-0.679999999999556,0.006271283876267375,0.993616851874786,0.022133408133817978,0.08751282864458225
1.027,-0.0075,0.32,0.006591701775001991,0.9659509775144047,0.024536547697562337,0.08147512790103935
1.028,-0.0038,-2.68,0.006651088081095455,0.9732802516899026,0.024981945979872522,0.08307464229059373
1.029,-0.0049,0.32,0.006618465027569329,0.9747655459880069,0.02473727253644633,0.08339878756687268
1.03,-0.0017,0.3200000000004441,0.006599544431222702,0.9747655459880069,0.024595367749510957,0.08339878756687268
1.031,-0.0042,1.32,0.006552785064276319,0.9747655459880069,0.024244671720580424,0.08339878756687268
1.032,0.0042,0.32,0.006552358520150374,0.9747655459880069,0.02424147263254948,0.08339878756687268
1.033,0.0031,-0.68,0.006618367918017467,0.9747655459880099,0.02473654421319404,0.08339878756687333
1.034,-0.0034,-0.679999999999556,0.006788750236315097,0.9747655459880099,0.026014414431058015,0.08339878756687333
1.035,-0.0041,0.32,0.006756743474525757,0.9659509775144078,0.025774363185896428,0.08147512790104003
1.036,-0.0001,0.32,0.006768220870677292,0.9732802516899057,0.025860443847711655,0.08307464229059441
1.037,0.0036,-0.68,0.006758528045126038,0.9717926872609349,0.02578774749504634,0.08275000158913418
1.038,-0.0043,-0.68,0.006731432688500611,0.9703028422601329,0.025584531870209305,0.08242486318389411
1.039,0.0022,-0.68,0.006729594267801045,0.9703028422601329,0.025570743684420118,0.08242486318389411
1.04,0.003,-0.68,0.006733988208898424,0.9688107061662538,0.025603698315648817,0.08209922477875545
1.041,0.0052,0.32,0.006715511591668572,0.9688107061662597,0.02546512337946526,0.08209922477875675
1.042,0.0059,-0.68,0.006732199035697865,0.9732802516899115,0.02559027948692035,0.08307464229059566
1.043,0.0052,1.32,0.006646759859788511,0.9747655459880158,0.024949484248163914,0.08339878756687462
1.044,0.0056,-0.68,0.0066132988630979005,0.9747655459880158,0.024698526217082992,0.08339878756687462
1.045,0.0042,0.32,0.006591407980484101,0.9674475243013444,0.02453434423379723,0.08180172887994035
1.046,0.0007,-2.68,0.006462132083670928,0.9806842279287686,0.023564772859984626,0.0846904593893149
1.047,-0.0062,1.32,0.006510868230581796,0.9806842279287685,0.023930294771489856,0.08469045938931487
1.048,-0.0015,-0.68,0.006389909704199032,0.9806842279287685,0.02302310381408522,0.08469045938931487
1.049,-0.0022,0.32,0.006534857034834762,0.9526428488892373,0.024110211201923,0.07857080985749314
1.05,-0.0043,2.32,0.006617930957254807,0.9390109450418148,0.024733267000214682,0.07559583227596572
1.051,0.0069,-0.68,0.006658240958578325,0.952642848889234,0.025035592679827752,0.07857080985749242
1.052,0.0055,-0.68,0.006562219963613857,0.9571878924678303,0.02431543362235784,0.07956270379283188
1.053,0.0011,2.32,0.0064442414283998484,0.9571878924678319,0.023430592648226695,0.07956270379283222
1.054,0.0077,-1.68,0.006445195656270869,0.9556752796694438,0.02343774937311233,0.07923259662547666
1.055,0.0088,0.32,0.0063904696788639175,0.9571878924678303,0.023027303633374952,0.07956270379283188
1.056,-0.0079,0.32,0.00639085303668572,0.9497344387345763,0.02303017882340735,0.07793608890399703
1.057,-0.0057,-0.68,0.006401777203773108,0.9617114564328625,0.023112110258050458,0.08054991009469561
1.058,0.01,-0.68,0.0063991401467774454,0.9602059696328062,0.023092332286772474,0.08022135807954187
1.059,0.0002,0.32,0.006460668531154388,0.9602059696328062,0.023553796191795977,0.08022135807954187
1.06,0.0021,0.32,0.006471687057510463,0.9602059696328061,0.02363643532252186,0.08022135807954184
1.061,0.0006,0.32,0.006465441578891614,0.9720539724903243,0.023589594129121785,0.0828070235362164
1.062,0.0021,-0.68,0.0064405263372741845,0.9995509405741683,0.023402729403063875,0.0888078627825171
1.063,-0.0044,-0.68,0.00644039051230843,0.9981025305483237,0.023401710713564196,0.08849176699692644
1.064,-0.0032,0.32,0.006438977036142327,0.9981025305483237,0.023391109618835764,0.08849176699692644
1.065,0.0022,0.32,0.006453523408506844,0.9981025305483205,0.023500207653234524,0.08849176699692576
1.066,0.0048,0.32,0.006447729237069401,0.9720539724902936,0.02345675127119274,0.08280702353620968
1.067,-0.0013,1.32,0.006328075614973695,0.9720539724902936,0.02255934711761996,0.08280702353620968
1.068,-0.0052,2.32,0.006187271540121793,0.9720539724902936,0.02150331421699451,0.08280702353620968
1.069,-0.0059,0.32,0.006193539187854473,0.9981025305483148,0.02155032167911663,0.0884917669969245
1.07,0.005,-0.68,0.0061921671319712665,0.9966520155857874,0.021540031237198047,0.08817521183753604
1.071,0.0155,-1.68,0.0061741915105430235,0.9836302138200812,0.02140521377784981,0.0853333807361969
1.072,-0.0022,0.32,0.006000838505115068,0.9836302138200813,0.02010506335715515,0.08533338073619692
1.073,0.0047,-0.68,0.006001605075671647,0.9821583254363869,0.020110812649064842,0.08501216111837888
1.074,-0.0018,0.32,0.006008245869913941,0.9836302138200843,0.020160618716208303,0.08533338073619758
1.075,-0.0036,0.32,0.006124767445525768,0.9763786356589429,0.02103453246911801,0.08375082244488682
1.076,-0.0203,0.32,0.006155958254619509,0.98949587305996,0.02126846405550685,0.08661348107543293
1.077,-0.009,1.32,0.0061605374207744255,0.9894958730599629,0.0213028078777443,0.08661348107543357
1.078,0.0008,-0.68,0.006116839586887841,0.9909568628948635,0.020975073397624774,0.08693232223322904
1.079,0.0026,0.32,0.006104984054931049,0.955675279669417,0.02088615671098799,0.07923259662547082
1.08,-0.0021,0.32,0.006086754756052891,0.9645837541942542,0.020749436666550942,0.0811767500095933
1.081,0.0056,0.32,0.0061325273679487605,0.9660824189328855,0.02109273201620925,0.08150381320264073
1.082,-0.0093,-0.68,0.006118042614099602,0.9586981187019632,0.020984096121699367,0.07989229012500289
1.083,-0.0151,0.32,0.006189660807899014,0.9586981187019632,0.021521233765017557,0.07989229012500289
1.084,-0.006,0.32,0.006335811758164652,0.9571878924677989,0.022617368320075874,0.07956270379282503
1.085,-0.0107,1.32,0.006374144704419673,0.9571878924678019,0.022904866053829583,0.07956270379282568
1.086,-0.0064,0.32,0.006396234702803616,0.9571878924678019,0.023070541408699415,0.07956270379282568
1.087,-0.0074,0.32,0.006452783183624027,0.9571878924678019,0.023494655954315734,0.07956270379282568
1.088,0.0013,-0.68,0.006525078413886115,0.9556752796694153,0.02403687138235188,0.07923259662547046
1.089,0.0049,0.32,0.006534982565974932,0.9630827573680993,0.024111152687559773,0.08084917787016695
1.09,0.0082,-0.68,0.006534347477570526,0.9966520155857417,0.024106389513975743,0.08817521183752607
1.091,0.0057,-1.68,0.0065513356880230475,1.0037571407166415,0.024233801374601804,0.08972580874716979
1.092,0.0031,-0.68,0.006564887710151215,1.0122425481197235,0.024335441765708395,0.09157763348690112
1.093,-0.0009,0.32,0.006584611025455666,1.0108123242759626,0.024483366958163354,0.09126550658816576
1.094,-0.006,-0.68,0.006565481615788303,1.0037571407166386,0.024339896067853355,0.08972580874716916
1.095,0.0049,-1.6799999999991118,0.00654311031838039,1.002314808941734,0.024172110965630416,0.08941103945716444
1.096,0.0093,0.32,0.00653007567485705,1.002314808941734,0.024074350922655457,0.08941103945716444
1.097,0.0027,0.32,0.006612422274125964,0.9674475243012896,0.024691951785230336,0.08180172887992837
1.098,0.0139,0.32,0.006618340259571516,0.9600737236838411,0.024736336774389907,0.08019249720010621
1.099,0.0154,0.31999999999911183,0.006663874401023538,0.9674475243012836,0.025077843591757555,0.08180172887992707
1.1,0.0089,-1.68,0.006676198010323596,0.9689417596493711,0.025170270866245188,0.08212782541874082
1.101,-0.0024,-1.68,0.006664812484378909,0.9420872557993928,0.0250848792325076,0.07626719525211645
1.102,0.0052,0.32,0.006634257425116003,0.9420872557993898,0.024855715780412003,0.0762671952521158
1.103,-0.0013,0.3199999999995559,0.006613162282444653,0.9405503581541437,0.02469750185991457,0.07593178824727737
1.104,-0.0024,-0.68,0.006622217237813512,0.9112748316810695,0.024765414175614717,0.06954280282604616
1.105,-0.0013,-0.68,0.00657913390625484,0.8970144793836317,0.02444228847316352,0.06643067491901271
1.106,-0.006,-1.68,0.006534679882656044,0.8986258384553744,0.02410888255763951,0.06678233211729405
1.107,-0.0035,0.3199999999995559,0.006498310916543602,0.9002343133070199,0.023836114707583556,0.06713335987377289
1.108,-0.009,-0.68,0.006580166356496432,0.9283003581320816,0.02445003186712798,0.0732583923777609
1.109,-0.0039,0.32,0.006558458105567106,0.9267405967110829,0.024287219624509904,0.0729179956648777
1.11,-0.0017,-1.68,0.0065609733213021675,0.9359245227456394,0.024306083784309183,0.07492226259406218
1.111,-0.0002,2.3199999999991117,0.0065627449571615095,0.9374690040702092,0.024319371082687165,0.0752593246337531
1.112,0.0001,0.32,0.00656814801929301,0.9374690040702092,0.02435989413843672,0.0752593246337531
1.113,-0.0024,-0.68,0.006565079288463362,0.9450192013715468,0.02433687860623227,0.0769070524903309
1.114,-0.0068,0.32,0.006566107991968372,0.9450192013715438,0.024344593899610117,0.07690705249033025
1.115,0.0005,-0.6799999999991119,0.0066127176478423255,0.9450192013715437,0.024694167093010214,0.07690705249033024
1.116,-0.0086,1.32,0.006667138863777894,0.9465488430486021,0.02510232711664909,0.07724087597881377
1.117,0.0001,0.32,0.006855895370902039,0.9480760167794481,0.0265180040559699,0.07757416087160762
1.118,-0.0032,2.32,0.007029336138193607,0.9390109450417061,0.027818812692099685,0.07559583227594201
1.119,0.0033,0.32,0.007128960858388779,0.9112748316810515,0.028565999748670048,0.06954280282604224
1.12,0.0025,0.32,0.007413154342488913,0.9112748316810515,0.030697455600844654,0.06954280282604224
1.121,0.0079,-0.68,0.007519984377910272,0.9112748316810515,0.0314986826413163,0.06954280282604224
1.122,0.001,0.32,0.007372628781241745,0.8970144793836133,0.030393513218223023,0.06643067491900871
1.123,0.0035,-0.68,0.007399891965211654,0.8986258384553562,0.030597987550931866,0.06678233211729008
1.124,0.0125,-0.68,0.007468432692315533,0.8970144793836133,0.03111204414290633,0.06643067491900871
1.125,-0.0064,-1.68,0.00746922597125709,0.8986258384553562,0.03111799374814708,0.06678233211729008
1.1260000000000001,-0.0038999999999995115,-0.68,0.007466966389345237,0.9002343133070018,0.031101046846268816,0.06713335987376895
1.127,-0.0017,-0.679999999999556,0.007187875452894137,0.9018399193709856,0.0290078601862327,0.0674837615563644
1.1280000000000001,0.00039999999999960033,0.32,0.007145974914980198,0.893925099100892,0.028693605455767233,0.06575645969677865
1.129,-0.0014,1.32,0.0072956969193022055,0.8923052512939743,0.029816522975575716,0.06540294994751661
1.1300000000000001,0.007699999999998224,-0.68,0.007460909929869616,0.8923052512939742,0.0310556232995832,0.06540294994751658
1.131,-0.0003,-0.679999999999556,0.007850780650716096,0.8939250991008919,0.033979660183014924,0.06575645969677862
1.1320000000000001,0.0103000000000008,0.32,0.008061115592776433,0.8939250991008918,0.03555717574284862,0.0657564596967786
1.133,0.0139,0.32,0.008050160588455573,0.8939250991008919,0.03547501302844217,0.06575645969677862
1.1340000000000001,0.00779999999999678,-0.68,0.007907129596593943,0.8955420169474331,0.03440227821324707,0.06610933002204439
1.135,-0.0067,0.32,0.007886491751507387,0.9050425861817439,0.03424749403223286,0.06818270002231533
1.1360000000000001,-0.0085000000000004,0.32,0.007813773797905234,0.8971560206753413,0.03370210817212335,0.0664615643805589
1.137,-0.0103,0.32,0.007943508724162968,0.911414158363522,0.0346751222743962,0.06957320897924708
1.1380000000000001,-0.005599999999998312,1.32,0.00810383263871707,0.9130001037136983,0.03587755429707931,0.06991931997849642
1.139,0.002,-2.679999999998224,0.008249279739091201,0.9114141583635219,0.03696840996625798,0.06957320897924706
1.1400000000000001,0.0056000000000002445,1.32,0.008346003477246754,0.9130001037136984,0.037693839609335984,0.06991931997849643
1.141,0.0067,1.32,0.008321975206809667,0.9130001037136984,0.037513627181866266,0.06991931997849643
1.1420000000000001,0.007799999999998556,0.32,0.008422738805829439,0.8987671259841173,0.0382693558485418,0.0668131661985247
1.143,0.0013,-0.679999999999556,0.008560011112082481,0.8987671259841173,0.03929890042600107,0.0668131661985247
1.1440000000000001,-0.0012999999999998445,0.32,0.008595661589278155,0.8987671259841173,0.03956627959724471,0.0668131661985247
1.145,-0.0006,0.32,0.008584678639038053,0.8987671259841172,0.03948390728797967,0.06681316619852468
1.1460000000000001,-0.0103999999999992,0.32,0.008573217081516015,0.8843050967388493,0.0393979454161488,0.0636570250410149
1.147,-0.0068,-0.6799999999991119,0.008728320333366265,0.8843050967388492,0.04056122238181998,0.06365702504101488
1.1480000000000001,-0.007899999999999269,1.32,0.008883088336009402,0.8859395721120276,0.041721984972868185,0.06401372705763626
1.149,-0.0046,-0.68,0.00889511004656352,0.8859395721120275,0.04181214800174571,0.06401372705763624
1.1500000000000001,0.0019000000000001555,-0.68,0.008761613331081821,0.8955420169474527,0.04081092041779696,0.06610933002204868
