time_sec,bts_raw,diy_raw,bts_rms,diy_rms,bts_norm_rms,diy_norm_rms
0.0,-0.0036,-1.092,0.0076091949749945995,1.1214835279974236,0.007481698741954313,0.009730792957923031
0.001,0.0084,-1.092,0.007674840602240865,1.1000385591714157,0.007640169289497824,0.009124550804204243
0.002,0.0192,-0.092,0.007716595292304772,1.0821407685239832,0.00774096638558031,0.0086185862007142
0.003,0.029,0.908,0.007741595999561038,1.082140768523983,0.007801318855867671,0.008618586200714193
0.004,0.0294,0.908,0.007789033950401665,1.068410290347557,0.00791583551690672,0.00823043013815232
0.005,0.0102,0.908,0.008364293411757661,1.0732997969530345,0.00930452941236882,0.008368654867653067
0.006,0.0123,0.908,0.008421314995766335,1.0732997969530345,0.009442181256348527,0.008368654867653067
0.007,0.0141,1.908,0.008429077462340681,1.0865342780063574,0.009460920087553691,0.008742789256106295
0.008,0.0115,-0.092,0.00844844046049993,1.0817045953789417,0.009507662956029436,0.008606255730617008
0.009000000000000001,0.005399999999999997,-0.092,0.00846621633012102,1.0865342780063574,0.009550574447778133,0.008742789256106295
0.01,0.0034,-0.092,0.008473796308371159,1.0865342780063576,0.00956887274659949,0.008742789256106302
0.011,0.0142,-1.092,0.008491090825341661,1.105215159378729,0.009610622238359763,0.009270891574577231
0.012,0.0213,-0.092,0.00849139323582458,1.105215159378729,0.009611352266494483,0.009270891574577231
0.013000000000000001,0.011799999999999984,-2.092,0.008506199240581115,1.105215159378729,0.009647094413825908,0.009270891574577231
0.014,0.0029,-2.092,0.008507378804019847,1.1004674656261642,0.009649941915964884,0.009136675847377785
0.015,0.0059,-1.092,0.008537651972410864,1.1000385591714137,0.009723022268336327,0.009124550804204186
0.016,0.001,-1.092,0.00853775363097233,1.0821407685239812,0.009723267675206117,0.008618586200714142
0.017,-0.0093,-0.092,0.008553071774022585,1.0865342780063574,0.009760246140008002,0.008742789256106295
0.018000000000000002,-0.01040000000000002,0.908,0.008657661241215493,1.086099869277703,0.010012728305669493,0.008730508665474975
0.019,-0.0165,-1.092,0.008743429549299526,1.100038559171414,0.010219775618858668,0.009124550804204193
0.02,0.0,0.908,0.008775679948143773,1.1142264350303979,0.010297629065885258,0.009525637347496986
0.021,-0.0023,-1.092,0.008781212489955288,1.1146498821416084,0.010310984790660178,0.009537608056840008
0.022,0.0087,-0.092,0.008789502827160253,1.1150731684495212,0.010330997917677193,0.009549574220327152
0.023,-0.0012,-0.092,0.008789529524561456,1.1107925443641269,0.010331062366018447,0.00942856239765466
0.024,0.0112,-0.092,0.008826926258437763,1.1107925443641267,0.010421339222868108,0.009428562397654654
0.025,-0.0038,-0.092,0.008831003994980578,1.115073168449521,0.010431183003326688,0.009549574220327145
0.026000000000000002,-0.005600000000000043,-1.092,0.008928865675188984,1.115073168449521,0.010667424085889218,0.009549574220327145
0.027,-0.0182,-0.092,0.009197901478274196,1.1107925443641267,0.011316884724962431,0.009428562397654654
0.028,0.0062,-1.092,0.009203408587299428,1.068851888597434,0.011330179054215107,0.008242913974163275
0.029,0.0096,-1.092,0.009220940072025289,1.0732997969530345,0.011372500593368593,0.008368654867653067
0.03,-0.0068,0.908,0.009241872187337427,1.0865342780063574,0.011423031358537679,0.008742789256106295
0.031,-0.0097,0.908,0.009250596479615953,1.0817045953789417,0.011444092066345696,0.008606255730617008
0.032,-0.0018,1.908,0.009253017709737932,1.0996094854202412,0.011449936989751172,0.009112421031616243
0.033,0.0003,1.908,0.00931955647259269,1.0996094854202412,0.011610563593910267,0.009112421031616243
0.034,-0.002,0.908,0.009369041031759059,1.0952684264804868,0.011730020829905978,0.008989700735662015
0.035,-0.0077,-1.092,0.009383552783276216,1.0585635253884391,0.011765052640937537,0.007952065359708873
0.036000000000000004,-0.0058999999999998975,-2.092,0.009391584953768543,1.059009229667312,0.01178444254563152,0.007964665271797244
0.037,0.0088,-0.092,0.00940392831917685,1.0545010451106398,0.011814239806421581,0.007837220390101537
0.038,0.0029,-0.092,0.00940515123218043,1.0495239628138824,0.011817191955733039,0.00769651992486409
0.039,-0.0026,-1.092,0.009413724204680477,1.044523165325538,0.011837887372977838,0.0075551490390286845
0.04,0.0053,-1.092,0.009436252907644134,1.044974858137474,0.011892272349462298,0.007567918244959881
0.041,0.0009,0.908,0.009446121027102097,1.0404058629968933,0.011916094290988754,0.007438754268232759
0.042,0.0073,-1.092,0.009446445841674344,1.044974858137474,0.01191687840327884,0.007567918244959881
0.043000000000000003,0.003700000000000007,-1.092,0.009450947398779124,1.0404058629968933,0.011927745299508144,0.007438754268232759
0.044,0.0047,-1.092,0.00945156830877712,1.0408593425607817,0.01192924419519222,0.007451573985048843
0.045,-0.0,-0.09199999999994449,0.009471125413022656,1.0413126246396014,0.011976455641683986,0.007464388119027555
0.046,0.0193,0.908,0.00957234006719315,1.0458776585313116,0.012220790905716943,0.007593440112563368
0.047,0.0109,0.907999999999889,0.009572778937690356,1.0316646655933388,0.012221850352490632,0.00719164351778088
0.048,-0.0058,-1.0919999999999446,0.009573510332032494,1.011626497772801,0.01222361596075322,0.0066251711617395575
0.049,-0.0036,-0.09200000000011102,0.009584158812637737,1.0064374125484339,0.012249321717904247,0.0064784774440767275
0.05,-0.01,-2.091999999999889,0.009635325473217713,1.0064374125484339,0.012372839598046722,0.0064784774440767275
0.051000000000000004,-0.007999999999999988,-0.092,0.009640911198661931,1.0012214339287338,0.012386323709734042,0.006331023459050496
0.052000000000000005,-0.006199999999999897,-0.09199999999994449,0.00966252745025274,0.9959781393883272,0.012438506000758288,0.0061827972620087475
0.053,0.0086,0.907999999999889,0.009472551079273377,0.9959781393883272,0.011979897243521661,0.0061827972620087475
0.054,0.0305,-1.091999999999889,0.009021951458116507,0.9959781393883272,0.010892136006665023,0.0061827972620087475
0.055,0.0098,0.908,0.008539347723469553,0.9964518379616683,0.009727115863142873,0.006196188563513811
0.056,-0.0036,1.908,0.008478497527874091,0.991659301875429,0.009580221633951225,0.006060705158419135
0.057,-0.0057,-0.092,0.008414062644418348,0.9921350624959363,0.009424673858867475,0.006074154753313448
0.058,0.0055,-1.092,0.008412394632775,0.9776234955699691,0.009420647227856106,0.005663917570950968
0.059000000000000004,0.0035999999999999375,-1.092,0.008411035413722078,0.9983443846329771,0.009417366031581755,0.006249690230004283
0.06,-0.0054,-2.092,0.00839394900260071,1.0186438639514528,0.009376118913692258,0.006823549775394611
0.061,-0.0007,-0.092,0.008389551633961694,1.0186438639514528,0.009365503531598925,0.006823549775394611
0.062,-0.005,-0.092,0.00826895203763288,1.0134907083674076,0.00907437242560678,0.0066778717767429765
0.063,-0.0014,-0.092,0.007996300616505312,1.0186438639514517,0.008416183574238009,0.00682354977539458
0.064,0.0072,0.908,0.00791953821867877,1.0031049818983628,0.008230876803252483,0.00638427073523006
0.065,-0.0004,-0.092,0.007919908605771178,0.9873215726665184,0.008231770928997016,0.005938078992851128
0.066,-0.0051,0.908,0.007906610167281908,1.001692652961006,0.008199668092642626,0.006344344664752205
0.067,-0.0134,0.908,0.007931995118815954,1.015860450130543,0.008260948140342903,0.006744863590156026
0.068,-0.0122,-2.092,0.007940521360612126,1.0349051371510698,0.008281530748242418,0.007283250573597198
0.069,-0.0075,-2.092,0.00792112031879406,1.0349051371510698,0.008234696041213274,0.007283250573597198
0.07,-0.0031,-1.092,0.0077545398507309115,1.0298333541320162,0.007832565707611757,0.007139872950360157
0.07100000000000001,-0.00379999999999995,-1.092,0.007776324205600162,1.0251968800682505,0.007885153805080331,0.007008801366862693
0.07200000000000001,-0.00020000000000010965,-0.092,0.007772924355969534,1.0200768291078857,0.007876946464315498,0.006864059224939079
0.073,-0.0081,-0.092,0.007728260864582335,1.0251968800682505,0.007769127433067886,0.007008801366862693
0.074,0.0027,0.908,0.007749164249447816,1.0251968800682505,0.007819588842061947,0.007008801366862693
0.075,0.0132,-0.092,0.007720872216315782,1.0302914871630025,0.00775129101066591,0.007152824219147175
0.076,0.0221,-0.092,0.007715218853269318,1.0302914871630025,0.007737643619742605,0.007152824219147175
0.077,0.0032,-0.092,0.007767642217630062,1.0251968800682505,0.007864195221163895,0.007008801366862693
0.078,0.0057,0.908,0.007556644413975905,1.044071277099376,0.007354840083918946,0.007542374308802155
0.079,-0.0062,1.908,0.007534565001397297,1.0390442368085422,0.007301539708135423,0.007400261547647184
0.08,-0.004,-0.092,0.007488239302310215,1.0339927564669733,0.007189708056773093,0.007257457874366633
0.081,-0.0021,1.908,0.007467957966873816,1.048174181521036,0.0071407482940845195,0.007658362055544543
0.082,-0.0111,-0.092,0.007439238737910834,1.0621662813271833,0.007071419198915426,0.008053914074778049
0.083,-0.0096,-0.092,0.007437365594942509,1.0486243016662575,0.007066897374625375,0.007671086802709501
0.084,-0.0052,0.908,0.007454211593464266,1.03490513715107,0.007107564129162508,0.007283250573597205
0.085,0.0039,-1.092,0.007462663117552064,1.03490513715107,0.007127966366233778,0.007283250573597205
0.08600000000000001,-0.004799999999999954,-0.092,0.0075671441072735655,1.0495239628138804,0.007380186663968782,0.007696519924864033
0.08700000000000001,-0.0015000000000000347,-0.092,0.007544958985509101,1.0732997969530356,0.007326631102984571,0.0083686548676531
0.088,-0.004,-0.092,0.007779208187099087,1.1462373561417951,0.007892115824431986,0.010430575466761592
0.089,-0.0065,-1.092,0.007976909741023138,1.1507962383644679,0.00836937340905396,0.010559453554654711
0.09,-0.0043,-0.092,0.00856076180171531,1.1507962383644679,0.009778810101542247,0.010559453554654711
0.091,0.0008,0.908,0.008880081866933459,1.1507962383644679,0.010549658483977774,0.010559453554654711
0.092,-0.0029,-0.092,0.00892199857893424,1.1466489819699337,0.010650846705960454,0.010442211992354223
0.093,0.0011,-1.092,0.008953803320123466,1.1420735450196755,0.01072762432180726,0.010312865907804778
0.094,0.0061,-1.092,0.008960654444214402,1.1545199285318466,0.010744163144445151,0.010664721040243935
0.095,0.0139,0.908,0.008969287685759391,1.2167813021586085,0.010765004053003728,0.01242482941564999
0.096,-0.0009,0.908,0.00907205857371303,1.220690309482271,0.011013096112882283,0.012535335755762999
0.097,0.0012,-0.092,0.008876247282555216,1.2526535915512196,0.01054040168026498,0.01343892713510322
0.098,-0.0045,-0.092,0.008815514201457897,1.2526535915512205,0.010393790169045944,0.013438927135103244
0.099,-0.0099,-0.092,0.00879634929740973,1.2484667055261411,0.010347525505799779,0.01332056525629553
0.1,0.0049,-0.092,0.008869330451037617,1.2522768101296216,0.010523704237893866,0.013428275649322844
0.101,0.0106,-0.092,0.008841275797230201,1.2358209408934095,0.010455979447431792,0.012963073685728615
0.10200000000000001,-0.002099999999999935,-0.092,0.008822752357535634,1.2358209408934095,0.010411263298711403,0.012963073685728615
0.10300000000000001,0.0026000000000000194,0.908,0.00881189878755905,1.2400505246035536,0.010385062449559047,0.01308264261392691
0.10400000000000001,0.00399999999999995,-1.092,0.008806559124738196,1.2518999153089971,0.010372172340553857,0.013417620957789617
0.105,0.0004,-0.092,0.008275038523277142,1.2518999153089982,0.00908906538769919,0.013417620957789648
0.106,0.0065,-1.092,0.008268529766369208,1.2518999153089982,0.009073353049889413,0.013417620957789648
0.107,0.014,-1.0920000000000556,0.008274647048513767,1.2400505246035554,0.009088120355673388,0.01308264261392696
0.108,0.0114,-2.092,0.008258711705249616,1.2442657309387049,0.009049651950719462,0.013201805098504273
0.109,-0.0005,-2.091999999999889,0.008244536612656991,1.2438864087812347,0.009015432844605872,0.013191081786963755
0.11,-0.002,-0.092,0.008246052356027182,1.2435069709144875,0.009019091895358917,0.013180355204360365
0.111,-0.0005,-0.09200000000005551,0.008270839602887109,1.2435069709144877,0.009078929065735139,0.013180355204360372
0.112,0.0031,-1.091999999999889,0.008275908205321548,1.2435069709144875,0.009091164826695313,0.013180355204360365
0.113,0.0041,0.908,0.008262472910848943,1.2435069709144875,0.009058731615820582,0.013180355204360365
0.114,0.003,0.9080000000000555,0.008265296586856359,1.2598624519965174,0.009065548055875334,0.013642719228142558
0.115,0.0037,1.908,0.008243331911917118,1.2560753574406087,0.009012524660254801,0.013535659321525843
0.116,-0.0064,1.908,0.008243287435039845,1.2560753574406087,0.00901241729171572,0.013535659321525843
0.117,-0.01,1.9079999999999444,0.008227765468783808,1.252276810129625,0.008974946791474809,0.013428275649322944
0.11800000000000001,-0.008799999999999926,0.908,0.008159117255889515,1.2526535915512245,0.008809227910544152,0.013438927135103357
0.11900000000000001,-0.003400000000000033,-0.092,0.00807265364343496,1.2362027378987757,0.008600502111385267,0.012973866960398048
0.12,-0.0058,-0.092,0.008070515001643621,1.2234302155545287,0.008595339364833976,0.012612791991382153
0.121,0.0003,-0.092,0.008064875369854566,1.2234302155545287,0.008581725121585105,0.012612791991382153
0.122,0.0025,-1.092,0.008055868475270367,1.2191429722197984,0.008559982203186744,0.012491593044727063
0.123,-0.0058,-0.092,0.008056915222195997,1.2230444313654545,0.008562509082209803,0.012601886000352157
0.124,-0.009,-1.092,0.008037732944310622,1.2269334845358046,0.008516202477990401,0.012711828243171394
0.125,-0.0024,-0.092,0.00803468408617042,1.2230444313654545,0.008508842441395005,0.012601886000352157
0.126,-0.0106,-0.092,0.00796103918752094,1.227318046275261,0.00833106140856264,0.012722699675956281
0.127,-0.0029,1.908,0.007696631525990036,1.227318046275261,0.007692773244442994,0.012722699675956281
0.128,-0.0022,-0.092,0.007965945062457151,1.2438864087812347,0.008342904340375979,0.013191081786963755
0.129,-0.0047,-0.092,0.007945812965675444,1.2438864087812347,0.008294304844354292,0.013191081786963755
0.13,-0.004,1.908,0.007925041462213149,1.2319599439793296,0.008244161801092274,0.012853924583965656
0.131,0.0072,1.908,0.007914864781999098,1.2477105002090032,0.008219594984483974,0.013299187582873158
0.132,-0.0007,-1.092,0.007942208863905904,1.247710500209003,0.008285604432692767,0.013299187582873153
0.133,-0.005,-1.092,0.007975977285041801,1.2632646916201087,0.008367122431858354,0.013738899413509484
0.134,0.0041,0.908,0.007952451297424305,1.2632646916201087,0.008310329979784425,0.013738899413509484
0.135,-0.0147,-2.092,0.007988667759502754,1.2756384275925043,0.008397757624494562,0.014088700824102126
0.136,-0.0012,-3.092,0.008016450104614705,1.2867935658426521,0.008464825053455478,0.014404052881392076
0.137,0.0209,-4.092,0.00802505735089389,1.2867935658426521,0.008485603208649082,0.014404052881392076
0.138,0.0179,-1.092,0.008023915096231939,1.2867935658426521,0.00848284577103584,0.014404052881392076
0.139,0.0312,-1.092,0.008031916693858178,1.2867935658426521,0.008502161871898067,0.014404052881392076
0.14,0.0242,-1.092,0.00802113998611779,1.2827181200385265,0.00847614657052957,0.014288841380657185
0.14100000000000001,0.00870000000000005,-0.092,0.00801088988957335,1.2827181200385265,0.008451402524659191,0.014288841380657185
0.14200000000000002,0.010499999999999851,-0.092,0.008042057287606801,1.2830859623240074,0.00852664157467754,0.014299240160025347
0.14300000000000002,0.00509999999999969,1.908,0.008045824064523014,1.2871602434552585,0.008535734689107647,0.014414418735844488
0.14400000000000002,-0.0061000000000002086,3.908,0.008049568466926183,1.2830859623240074,0.008544773790780445,0.014299240160025347
0.145,-0.0136,0.908,0.008192046468933343,1.2830859623240076,0.00888872003576456,0.014299240160025354
0.146,-0.0045,2.908,0.008142617722179961,1.295270359256921,0.008769397532637078,0.014643689018790568
0.147,-0.0033,0.908,0.008157954827580213,1.2915870892775405,0.00880642177313055,0.014539564198505479
0.148,0.0003,-0.092,0.008165408448767645,1.2956346378540926,0.00882441504214637,0.014653987053872584
0.149,-0.0119,0.908,0.008168739247524938,1.2993064339055778,0.008832455691995677,0.01475778751002288
0.15,-0.0071,-0.092,0.00810967987855788,1.3029678827851257,0.008689884572937383,0.014861295455055485
0.151,-0.0056,-0.092,0.00815426875412199,1.3365289322393752,0.008797523479310934,0.01581005518827234
0.152,-0.0044,-1.092,0.00842035302853794,1.3510609814050432,0.009439859038101897,0.016220871396755578
0.153,-0.008,1.908,0.008541947729881582,1.3549308768693828,0.00973339235796842,0.01633027205758203
0.154,-0.0046,-1.092,0.008751624112661104,1.3552791197136422,0.010239557544894922,0.016340116767249543
0.155,-0.0092,0.908,0.008785900655263993,1.351410221477146,0.010322302164788662,0.01623074429772337
0.156,-0.0048,0.908,0.008819639758240697,1.354930876869381,0.010403749389023224,0.016330272057581977
0.157,-0.0025,-1.092,0.008803073917226565,1.3510609814050414,0.010363758943259338,0.01622087139675553
0.158,0.0026,0.908,0.009082928189594679,1.350711651033409,0.011039335697339154,0.016210995943049998
0.159,-0.0039,0.908,0.009484488850142806,1.3354692632178566,0.012008715386716948,0.015780098696610043
0.16,0.0084,-2.092,0.009598871700707723,1.320050886050192,0.012284839078712612,0.015344226289575465
0.161,0.003,-0.092,0.009751144351869615,1.320050886050192,0.01265242990566902,0.015344226289575465
0.162,-0.0017,-0.092,0.01017835124111147,1.3240114226776025,0.013683720373784212,0.015456189346009081
0.163,0.0026,-2.092,0.010263958314713464,1.3236549535823219,0.013890378462013193,0.015446112082954492
0.164,-0.0039,-0.092,0.010263182100735926,1.3236549535823203,0.013888504657782946,0.015446112082954449
0.165,-0.0003,-0.092,0.0102720998460482,1.3240114226776014,0.013910032367118224,0.01545618934600905
0.166,0.0008,-0.092,0.010350225043086955,1.3131724807645777,0.014098628976991892,0.015149776054262262
0.167,-0.0082,-1.092,0.010397680279908218,1.3138910102108547,0.014213187366915727,0.01517008864331546
0.168,0.003,-0.092,0.010381099316046975,1.3026056549592355,0.014173160414137393,0.014851055394597194
0.169,0.0073,0.908,0.010368045011609487,1.3138910102108556,0.014141646924834479,0.015170088643315486
0.17,0.0008,-1.092,0.0104663946634351,1.3175119282549308,0.014379065985772849,0.01527245079507656
0.171,-0.0002,-0.092,0.01049716540109478,1.3211229221670289,0.014453347485543642,0.015374532394919264
0.17200000000000001,-0.0013000000000001277,0.908,0.010498371952426843,1.3247240731021208,0.014456260137280736,0.015476335737067696
0.17300000000000001,-0.0058999999999998776,0.908,0.010519534585363288,1.3207656734778492,0.014507347379029827,0.015364433093003803
0.17400000000000002,-0.0014999999999997502,-0.092,0.01050362212185383,1.3207656734778492,0.014468934206501973,0.015364433093003803
0.17500000000000002,0.00750000000000003,-1.092,0.010464853071317918,1.3167953746192005,0.014375344535355715,0.015252194061531985
0.176,0.0086,-0.092,0.01047642215691936,1.3207656734778495,0.014403272661062557,0.01536443309300381
0.177,0.0208,-2.092,0.010438155527489983,1.3207656734778495,0.014310895849800342,0.01536443309300381
0.178,-0.0005,0.908,0.010523853112684793,1.3095395640668035,0.014517772435776611,0.015047074704542017
0.179,0.0024,0.908,0.010526434204934678,1.313531794619053,0.01452400327123752,0.015159933737715452
0.18,-0.0001,1.908,0.010524717762364813,1.3175119282549308,0.014519859726491528,0.01527245079507656
0.181,-0.0069,1.908,0.010546804332967657,1.3066190714782389,0.014573177381964005,0.014964513348021697
0.182,-0.0133,1.908,0.010637568705331158,1.291587089277532,0.014792285346793534,0.014539564198505241
0.183,-0.0074,-0.092,0.010637640773873976,1.291221668789157,0.014792459322455282,0.014529233882537755
0.184,-0.0092,-2.092,0.010676416867976126,1.290856144856158,0.014886065996985397,0.014518900642225076
0.185,-0.0077,1.908,0.01070228074344953,1.290856144856158,0.014948502181691066,0.014518900642225076
0.186,0.0061,-0.092,0.010604811348132837,1.2786296844107263,0.014713208086828872,0.014173262661916767
0.187,0.0007,-0.092,0.01060515088761886,1.2465753321073385,0.014714027745510184,0.01326709675726415
0.188,0.0054,-0.092,0.01039750352143904,1.184286427247181,0.014212760666576823,0.011506210083024285
0.189,-0.005,-0.092,0.010263264498910568,1.184286427247181,0.013888703569491158,0.011506210083024285
0.19,0.0015,-0.092,0.00980768618138786,1.1798569557971916,0.012788923607667702,0.011380990394739138
0.191,-0.0071,-1.092,0.00950768245520953,1.1927004409162816,0.012064705457169672,0.011744071457855878
0.192,-0.0038,-1.092,0.009549888024577905,1.1970823895541896,0.012166590989653064,0.011867947692010562
0.193,0.0027,-0.092,0.009511012489872801,1.2140634491732798,0.012072744262472694,0.012347996613481566
0.194,0.0164,-1.092,0.009506192261677109,1.2148405990474744,0.012061108084504732,0.012369966382582963
0.195,0.0106,-2.092,0.009504106048854639,1.1524743854803923,0.012056071903084319,0.010606894216847754
0.196,0.0051,-0.092,0.009408668270616604,1.165214702777789,0.011825682193850823,0.010967058759874155
0.197,0.0037,-1.092,0.009405167326514982,1.143764490263799,0.011817230807947816,0.010360668368835854
0.198,0.0051,0.908,0.009414721326661836,1.1441770057233978,0.01184029445587097,0.010372330044014706
0.199,0.0015,0.908,0.009418792163811023,1.1483331898048075,0.01185012158098278,0.010489823989061146
0.2,-0.0098,2.908,0.00936181870281347,1.1441770057233978,0.011712585907420536,0.010372330044014706
0.201,-0.0235,1.9079999999996669,0.009395665318053806,1.1441770057233978,0.011794292669540565,0.010372330044014706
0.202,-0.0145,-1.092,0.009465579986104299,1.161931509024483,0.01196306881186792,0.010874243961763263
0.203,-0.0192,-1.091999999999889,0.009514316237730308,1.1615252990900198,0.012080719610624381,0.010862760541687952
0.20400000000000001,-0.008699999999999972,-0.09199999999988898,0.009480728805872194,1.1838498842845495,0.011999638525098789,0.011493869158306526
0.20500000000000002,-0.007699999999999686,0.907999999999889,0.009470140132194889,1.1838498842845497,0.01197407714369699,0.011493869158306531
0.20600000000000002,0.0036000000000006326,-0.09199999999988898,0.009449562444269855,1.1838498842845495,0.011924401977056775,0.011493869158306526
0.20700000000000002,0.02640000000000009,0.907999999999889,0.00944054561103044,1.1842484366712476,0.011902635066441415,0.011505136102047129
0.20800000000000002,0.029599999999999592,-0.092,0.009438204478261646,1.1798188225907476,0.011896983500490937,0.011379912381644765
0.209,0.0148,-0.092,0.009434710862576596,1.1757739407548944,0.011888549805609182,0.01126556491415245
0.21,0.0173,-0.09200000000011102,0.009431403373852315,1.1757739407548944,0.011880565426890938,0.01126556491415245
0.211,0.0292,-1.091999999999778,0.009443164660349432,1.1623375769980357,0.011908957531425521,0.010885723368650731
0.212,0.0136,0.908,0.009465242702136636,1.1790185883453714,0.011962254598076762,0.01135729002502898
0.213,0.0039,0.907999999999778,0.009468816464436591,1.1954668629561256,0.01197088176933281,0.011822277291081254
0.214,-0.0052,-1.092,0.00950088831417785,1.1782178105886905,0.01204830419337583,0.011334652303528932
0.215,-0.0132,-1.092,0.009492864737161766,1.1782178105886905,0.012028935033595754,0.011334652303528932
0.216,-0.0118,-2.092,0.009539402957862427,1.1946771103317644,0.01214127971861899,0.011799951246413977
0.217,-0.0081,0.908,0.009556798880026003,1.2109127081308968,0.012183274005610025,0.012258926209563425
0.218,-0.0071,1.908,0.009564957098355132,1.2109127081308968,0.012202968193628773,0.012258926209563425
0.219,-0.0147,0.908,0.009560310443028484,1.227702487555782,0.012191751025863775,0.012733567703407027
0.22,-0.0099,0.908,0.009538528892211177,1.2238158781326263,0.012139169697462168,0.012623694544510188
0.221,-0.0016,0.908,0.009538210856390455,1.2234302155545198,0.012138401949285138,0.012612791991381902
0.222,-0.0071,-0.092,0.009550172913287915,1.2234302155545198,0.012167278719693253,0.012612791991381902
0.223,-0.0006,-0.092,0.009551994809110098,1.2195299905909056,0.012171676831808557,0.012502533925673657
0.224,0.0001,-0.092,0.009534806899235651,1.2195299905909056,0.012130184692831591,0.012502533925673657
0.225,0.0055,-1.092,0.009557939427147168,1.2564509997637328,0.012186027321167695,0.013546278605370289
0.226,-0.0057,-0.092,0.009535460106064418,1.2564509997637328,0.01213176155405078,0.013546278605370289
0.227,-0.0137,0.908,0.0095330961722678,1.2726401400415737,0.012126054945723292,0.01400394022980646
0.228,-0.0032,-1.092,0.009303790099319227,1.2564509997637328,0.011572503087670482,0.013546278605370289
0.229,-0.0043,-1.092,0.009319791511158962,1.2564509997637328,0.011611130984182145,0.013546278605370289
0.23,-0.0079,-1.092,0.009329014698840532,1.2568265298142922,0.011633396040718384,0.013556894715306581
0.231,-0.0156,-0.092,0.009510348385256513,1.2454030042125581,0.012071141093661851,0.013233955436632602
0.232,-0.0008,0.908,0.009524827335289575,1.2338737211555704,0.012106093720909771,0.012908026429786713
0.233,0.0104,0.908,0.009597472988067296,1.2218495264872717,0.012281462543712755,0.012568106435890396
0.234,0.0085,0.908,0.009591393511285781,1.2257423708750115,0.012266786501228913,0.01267815585516739
0.23500000000000001,0.0029999999999999584,0.908,0.009547448235034978,1.2089253692931343,0.012160701263239024,0.012202744799977372
0.23600000000000002,0.0014999999999999584,-1.092,0.009516230304400549,1.1970448050834064,0.012085340225979764,0.011866885191491263
0.23700000000000002,-1.8041124150158777e-16,-1.092,0.009515806076269962,1.2014109084722207,0.01208431612632595,0.01199031348571119
0.23800000000000002,-0.00650000000000003,-1.092,0.00952431803266959,1.2014109084722207,0.012104864248842245,0.01199031348571119
0.23900000000000002,-0.0075999999999998525,-0.092,0.009600043680447454,1.2014109084722207,0.012287668273570761,0.01199031348571119
0.24,-0.0023,-2.092,0.009587125462791469,1.2053697629263687,0.012256483301911482,0.012102228987664786
0.241,0.0125,-1.092,0.009598408375640374,1.2093156576172714,0.012283720597860292,0.01221377812141122
0.242,0.006,-2.092,0.009577966884694452,1.2093156576172714,0.012234374214884108,0.01221377812141122
0.243,0.0041,-2.092,0.009570798541255006,1.2089253692931343,0.012217069615058026,0.012202744799977372
0.244,0.0058,-1.092,0.009567053702730127,1.2132487189935202,0.01220802946057411,0.012324964461610207
0.245,-0.0022,1.908,0.00948989111884551,1.2089253692931343,0.012021756628231529,0.012202744799977372
0.246,-0.0037,1.908,0.009453875208767027,1.1918711076634037,0.011934813122169749,0.01172062648195246
0.247,0.0054,-1.092,0.009750849814237343,1.195861543684683,0.012651718882836028,0.011833434784330752
0.248,0.0028,0.908,0.009746643960899172,1.1954668629561256,0.012641565824523592,0.011822277291081254
0.249,-0.0059,-0.092,0.009754288079969907,1.1954668629561256,0.012660018961243314,0.011822277291081254
0.25,0.0107,-0.092,0.009754339247094236,1.195861543684683,0.012660142480242961,0.011833434784330752
0.251,0.0128,-2.092,0.009719736446988295,1.1627435031594104,0.012576610264780139,0.010897198766554978
0.252,0.0106,0.908,0.00943161827946607,1.1499758083361178,0.011881084215601023,0.01053626026995479
0.253,0.0007,-3.092,0.009344864610860521,1.1834511976768634,0.011671658212041715,0.011482598420183123
0.254,-0.0011,-1.092,0.00928262336707234,1.1954668629561322,0.011521405950060879,0.011822277291081443
0.255,0.0068,0.908,0.009275453109587412,1.195466862956132,0.011504096729670588,0.011822277291081436
0.256,0.0025,-1.092,0.009249985562564459,1.195466862956133,0.011442617293939444,0.011822277291081462
0.257,0.0014,-0.092,0.009247855564817331,1.1994453363147908,0.011437475414374678,0.01193474741295641
0.258,0.0003,-0.092,0.00891096827303968,1.1954668629561338,0.010624219210908484,0.011822277291081486
0.259,-0.003,0.908,0.00840706084787143,1.1954668629561338,0.009407771308322625,0.011822277291081486
0.26,-0.0096,0.908,0.008405308166459931,1.1954668629561338,0.009403540281906994,0.011822277291081486
0.261,-0.0071,1.908,0.008228085815971635,1.1994453363147914,0.008975720119362568,0.011934747412956427
0.262,-0.0031,1.908,0.007715878118477818,1.1990518352304689,0.007739235106075356,0.011923623267858063
0.263,-0.0082,-0.092,0.007596887482011943,1.1950720518815723,0.007451988078294526,0.011811116112993694
0.264,-0.0003,-0.092,0.007591466405233989,1.1950720518815743,0.00743890143351231,0.011811116112993751
0.265,-0.0094,1.908,0.007575040004384071,1.227318046275264,0.007399247600560263,0.012722699675956363
0.266,-0.0058,1.908,0.0074609811731580844,1.2230444313654572,0.007123906101137189,0.012601886000352232
0.267,-0.0091,-1.092,0.007379840769574623,1.2101330357598812,0.006928030690646629,0.012236885130313813
0.268,-0.0001,-2.092,0.0075136363425451335,1.2061898150193036,0.007251017286966198,0.01212541158825591
0.269,0.0034,-0.092,0.00748206305778777,1.194282038177302,0.00717479841400949,0.011788782687684012
0.27,0.0001,0.908,0.007346351072431587,1.194282038177302,0.0068471855397058985,0.011788782687684012
0.271,0.0048,-0.092,0.00730476623118729,1.194282038177302,0.006746798463857391,0.011788782687684012
0.272,0.0023,-0.092,0.007343283684509158,1.206580988203467,0.006839780771650714,0.012136469924389126
0.273,0.0015,0.908,0.007364125709460674,1.2065809882034668,0.006890094055939886,0.01213646992438912
0.274,-0.0068,-3.092,0.007367831864595963,1.2065809882034668,0.006899040827540791,0.01213646992438912
0.275,-0.0036,-1.092,0.007368085185336347,1.2105229347167192,0.00689965235153891,0.012247907444463298
0.276,-0.0083,-2.092,0.007348605993807408,1.2061898150193036,0.0068526289887227455,0.01212541158825591
0.277,0.0001,-0.092,0.007331249217644587,1.2222724976937591,0.006810729201372189,0.012580063691564787
0.278,0.0055,0.908,0.0072038338605061305,1.2183685666650372,0.006503144640782409,0.012469700856625543
0.279,0.0048,-1.092,0.007216260875968012,1.214063449173288,0.0065331438353546266,0.012347996613481798
0.28,0.0185,-1.092,0.0072281459500661395,1.214063449173288,0.006561834766935794,0.012347996613481798
0.281,0.0087,-1.092,0.007186480199284048,1.2140634491732871,0.006461252372993856,0.012347996613481774
0.28200000000000003,0.01779999999999938,0.908,0.007151463626966935,1.2140634491732873,0.00637672129878578,0.01234799661348178
0.28300000000000003,0.006599999999999584,0.908,0.007259712459129135,1.2144520862744181,0.006638037283159518,0.01235898325538908
0.28400000000000003,-0.0008999999999999389,-0.092,0.007186219650390593,1.2144520862744181,0.006460623400013634,0.01235898325538908
0.28500000000000003,0.00019999999999965583,-1.092,0.00721111785163012,1.2144520862744164,0.0065207284176483134,0.01235898325538903
0.28600000000000003,-0.00599999999999944,-1.092,0.007632380623857483,1.214840599047475,0.00753766960588816,0.012369966382582982
0.28700000000000003,0.004100000000000505,-0.092,0.007873269845408634,1.2265488022241102,0.008119183538161729,0.012700953401849345
0.28800000000000003,0.013199999999999233,-0.092,0.007873803243587489,1.238146294821725,0.008120471177643713,0.013028810669778259
0.289,-0.0006,0.908,0.007854666085733304,1.2377650973197685,0.008074273494556576,0.013018034342871312
0.29,0.0049,0.908,0.007837800319698272,1.2534427090638225,0.008033559020639134,0.013461235225371807
0.291,0.0034,-1.092,0.007873274025807533,1.2370023499037914,0.008119193629772248,0.012996471726485293
0.292,-0.0009,0.908,0.007796928847587477,1.2370023499037903,0.007934894039649474,0.012996471726485262
0.293,0.0002,-1.092,0.007780049124610742,1.2203405272421903,0.007894145873248822,0.012525447527886355
0.294,-0.011,-0.092,0.007770939210609593,1.2034480425809808,0.007872154262834004,0.012047902591087319
0.295,-0.0066,-0.092,0.0077555202659340405,1.2034480425809808,0.007834932459832388,0.012047902591087319
0.296,-0.0244,0.908,0.007811361490839128,1.187110358151148,0.007969734880913877,0.011586041672758179
0.297,-0.0023,0.908,0.007809846729164789,1.1750092422131733,0.007966078200004577,0.011243947140088988
0.298,0.0064,0.908,0.007803219428386148,1.1705446653876561,0.007950079693673198,0.0111177350344849
0.299,-0.0015,-1.092,0.007798348030694127,1.166467624619893,0.00793831999097951,0.011002478444657154
0.3,0.0054,-1.092,0.007846665698353416,1.1838878876498942,0.008054960315265976,0.011494943500836097
0.301,-0.0011,0.908,0.007776478738472735,1.1838878876498942,0.007885526852150751,0.011494943500836097
0.302,-0.0069,2.908,0.007806843484609758,1.166467624619893,0.007958828275995816,0.011002478444657154
0.303,-0.0159,1.908,0.007843536045859158,1.1668721140399785,0.008047405238634208,0.011013913226361834
0.304,-0.0079,-0.092,0.007976447533280855,1.1270203253125026,0.008368257625458448,0.009887316381026686
0.305,-0.0035,0.908,0.0079757580298679,1.1611576943688546,0.008366593143177331,0.010852368478184177
0.306,0.003,0.908,0.007965298205286016,1.1611576943688546,0.008341342807424096,0.010852368478184177
0.307,0.0092,-0.092,0.007994671874352113,1.1611576943688546,0.00841225174097429,0.010852368478184177
0.308,0.0016,-0.092,0.0079973315782052,1.1778554155558492,0.008418672347244393,0.011324407516185606
0.309,0.0147,-0.092,0.008013632705109833,1.1943197095905642,0.008458023765069414,0.011789847646038345
0.31,0.002,0.908,0.008091771786210015,1.1903241047443196,0.00864665389149108,0.01167689322269319
0.311,-0.0059,0.908,0.008287317472382413,1.1903241047443194,0.009118707145567867,0.011676893222693182
0.312,-0.0015,-0.092,0.008295530745417248,1.17380376791571,0.009138534237326345,0.01120986878165088
0.313,-0.0026,0.908,0.008295784117695383,1.1615640328581747,0.009139145885738172,0.010863855532462637
0.314,-0.0015,2.908,0.008654262224089573,1.1660629948886223,0.010004522974596433,0.010991039696401817
0.315,0.0018,-0.092,0.008804218565058695,1.1705446653876561,0.010366522158058422,0.0111177350344849
0.316,0.0044,0.908,0.008853926331969,1.1582704910875217,0.010486518224359843,0.010770748199334601
0.317,0.0163,-0.092,0.008900364493469304,1.1412862663512084,0.010598621363419814,0.010290609801049821
0.318,-0.0018,-1.092,0.008862063110907984,1.1545588973199927,0.010506160657036493,0.010665822674955796
0.319,-0.0039,0.908,0.008922677226060367,1.1412862663512084,0.010652484980833855,0.010290609801049821
0.32,-0.0061,0.908,0.008916451117688337,1.1458648469085513,0.010637454965215612,0.010420044754328568
0.321,0.0077,1.908,0.00891741926573828,1.1462766065040804,0.010639792104154082,0.010431685061480947
0.322,-0.009,-0.092,0.008911006238792277,1.1508353332416357,0.010624310861393892,0.01056055875386138
0.323,-0.0024,-0.092,0.00891028798680665,1.1508353332416354,0.010622576979180998,0.010560558753861376
0.324,-0.0006,0.908,0.008920494852223768,1.1508353332416354,0.010647216663790695,0.010560558753861376
0.325,0.0012,-0.092,0.008901361153675028,1.1146902447594493,0.010601027331572472,0.009538749094654898
0.326,0.0027,1.9079999999997779,0.0089911868218906,1.1274389672639722,0.01081786923594156,0.009899151250098081
0.327,-0.0017,-0.092,0.008974663367376009,1.1134194663506756,0.010777981112481112,0.009502824610656579
0.328,-0.0053,-0.09200000000011102,0.008974685642280563,1.1134194663506756,0.010778034884780492,0.009502824610656579
0.329,0.006,-1.092,0.00896018849571016,1.1091324599287047,0.010743038330536109,0.009381632361446596
0.33,-0.0016,-1.091999999999889,0.008955547966839056,1.1044016063229094,0.010731835952221764,0.009247892699609114
0.331,-0.0139,-0.09200000000011102,0.008763178390009724,1.1044016063229096,0.010267449923027536,0.00924789269960912
0.332,-0.0125,-1.091999999999778,0.008772917674145186,1.103974228327306,0.010290960852153683,0.00923581086546849
0.333,0.0013,0.908,0.008632898436049809,1.099650400095297,0.009952950138289085,0.009113577675905433
0.334,0.0104,0.907999999999778,0.008611151491422683,1.095309503313389,0.009900452350286686,0.008990861964099726
0.335,0.0252,-1.091999999999667,0.008616182395609894,1.100079457888156,0.009912597106527575,0.009125706997357154
0.336,0.0194,1.908,0.008616298465952875,1.1138432202452802,0.009912877303877762,0.009514803992664366
0.337,-0.0009,1.907999999999889,0.008600794810943745,1.1274389672639722,0.009875451007545704,0.009899151250098081
0.338,-0.0035,0.908000000000111,0.008602960704760614,1.1274389672639722,0.0098806795413183,0.009899151250098081
0.339,-0.0056,1.9079999999997779,0.008509911242566616,1.1316566260515493,0.00965605529990166,0.010018383064691848
0.34,-0.0078,-0.09200000000011102,0.00865542875338085,1.1446286793836242,0.01000733901190568,0.010385098708533429
0.341,-0.006,-1.091999999999889,0.008761071205081083,1.1446286793836242,0.010262363114302798,0.010385098708533429
0.342,0.0031,-0.092,0.008781034252394453,1.144216326762447,0.010310554519748874,0.01037344163674273
0.343,0.0016,-0.092,0.008816172166870256,1.1400451342155815,0.010395378517631145,0.010255523407357352
0.34400000000000003,0.0031000000000003607,-1.092,0.008884306284375953,1.1525134234324537,0.010559856356604584,0.010607997806800553
0.34500000000000003,0.009599999999999656,-0.092,0.00901781105097034,1.1525134234324537,0.01088214093745737,0.010607997806800553
0.34600000000000003,0.003399999999999572,-1.092,0.009148766593819921,1.1566396524298819,0.011198271614393076,0.010724644931561306
0.34700000000000003,-0.004299999999999739,-0.092,0.008817721486403992,1.1570475775917215,0.010399118622267665,0.010736176840545468
0.34800000000000003,0.0003999999999993949,-0.092,0.00881489345170547,1.1574553589873882,0.010392291660199567,0.01074770468530762
0.34900000000000003,-0.010499999999999534,-2.092,0.008832584436316928,1.1533320483137108,0.010434998236944493,0.010631140060591068
0.35000000000000003,-0.002100000000000688,-0.092,0.008854562565061543,1.1879051413750394,0.01048805411046178,0.011608509930805129
0.35100000000000003,-0.014499999999999917,-0.092,0.0088383977405019,1.1834892138445436,0.010449031730657237,0.011483673124630474
0.352,-0.013,-1.092,0.008840995824724633,1.1838878876498942,0.01045530358525916,0.011494943500836097
0.353,-0.0145,-0.092,0.008874071132605353,1.145864846908551,0.01053514838787434,0.010420044754328561
0.354,0.0004,2.908,0.008730182212184426,1.168488671521953,0.01018779614278103,0.011059612770037265
0.355,-0.0054,0.908,0.00870244152387924,1.2069720346104824,0.010120829274622928,0.012147524676574425
0.356,0.0073,-1.092,0.008695352630155972,1.2073629543635667,0.010103716468836342,0.012158575848295113
0.357,0.0025,1.908,0.00870587650826024,1.2195299905909014,0.0101291214317474,0.012502533925673538
0.358,-0.0051,1.908,0.008676601700597924,1.2238158781326218,0.010058451152642981,0.012623694544510063
0.359,-0.0116,-0.092,0.00868622388711859,1.2606113677204998,0.01008167940455343,0.013663890827184956
0.36,-0.0203,0.908,0.008775702527049562,1.2606113677204998,0.010297683572052893,0.013663890827184956
0.361,-0.008,-0.092,0.00879057963254855,1.256826529814288,0.010333597358746451,0.013556894715306463
0.362,0.0032,-1.092,0.008800285383421761,1.2530302596760787,0.01035702733755416,0.013449575418022375
0.363,0.026,-1.092,0.008802576643410722,1.2530302596760785,0.010362558509092104,0.01344957541802237
0.364,0.0162,-1.092,0.008800702145998356,1.2492224530814267,0.010358033415132806,0.013341929988942207
0.365,0.0133,-1.092,0.008804795721008798,1.2132487189935155,0.010367915430135597,0.012324964461610076
0.366,0.0108,-0.092,0.008808504872145788,1.2292390503484885,0.010376869434176038,0.012777005823757416
0.367,0.0039,-2.092,0.008820239131144146,1.2253573146313406,0.010405196293503794,0.012667270442912429
0.368,0.0104,-1.092,0.008670136922758526,1.2292390503484885,0.010042844981646802,0.012777005823757416
0.369,0.0006,-1.092,0.008668618201647098,1.2288550897741772,0.010039178742535536,0.012766151385711732
0.37,-0.0013,-1.092,0.008661093635658226,1.2249721373495714,0.01002101421060395,0.012656381608950587
0.371,0.0034,-1.092,0.008680369131124669,1.2579524473358612,0.010067545844908859,0.013588724030085436
0.372,0.002,-0.092,0.008656092334727668,1.2587024994945342,0.010008940917528051,0.01360992775575949
0.373,-0.0045,0.908,0.00862246699192448,1.2945067396852041,0.009927768313824085,0.014622101746851145
0.374,-0.0035,0.908,0.00862305071152419,1.310225747849648,0.00992917743075172,0.015066472892421592
0.375,0.0132,1.908,0.008629596469545208,1.3105858695888348,0.009944979090377677,0.015076653414507538
0.376,0.0063,0.908,0.008674733185237775,1.3142158939637907,0.010053940499540292,0.01517927299922132
0.377,-0.0002,-0.092,0.008686260670124209,1.3029333526953444,0.010081768199851536,0.01486031930087373
0.378,-0.002,-0.092,0.008702493635455158,1.3178359193496656,0.010120955073557533,0.01528160991583124
0.379,-0.0038,-0.092,0.008696305796562762,1.351027680497905,0.01010601744163103,0.016219929991159326
0.38,0.0009,-1.092,0.008714520028226919,1.350678341513551,0.01014998715272961,0.016210054293975016
0.381,-0.0096,0.908,0.008713047313973077,1.3503289121529045,0.010146431975576591,0.016200176041882897
0.382,-0.0085,-0.092,0.008892724482659275,1.3503289121529043,0.010580178144166813,0.01620017604188289
0.383,-0.0024,-0.092,0.008896517890057826,1.3499793923457861,0.010589335545393992,0.016190295232899027
0.384,0.0031,-1.092,0.008930749784642351,1.3499793923457861,0.010671972383608834,0.016190295232899027
0.385,0.0005,-2.092,0.008887115511222446,1.3464457899882858,0.010566637915943906,0.016090401466627904
0.386,0.0031,-2.092,0.008557402932271188,1.3570189934266053,0.00977070168819827,0.016389302419861276
0.387,-0.0045,-0.092,0.00833582633540873,1.3460952619110704,0.00923580902130523,0.016080492154182915
0.388,-0.0038,0.908,0.008364524618877787,1.3315090181358855,0.009305087553412777,0.015668143882069267
0.389,-0.0158,1.908,0.008403158898791388,1.3318633851168598,0.009398351884163852,0.01567816171904985
0.39,-0.0144,0.908,0.008384733149256194,1.331863385116863,0.009353871562469496,0.015678161719049948
0.391,-0.0068,0.908,0.008355622013374376,1.331863385116863,0.00928359639203813,0.015678161719049948
0.392,-0.0079,-0.092,0.008395110686437973,1.3315090181358888,0.009378923253927638,0.01566814388206936
0.393,0.011,1.908,0.00843776093002937,1.3350821546849927,0.009481882243555957,0.0157691552668205
0.394,0.019,-0.092,0.008524271302227878,1.3503289121529152,0.00969072092216376,0.0162001760418832
0.395,0.0168,0.908,0.008519710397729509,1.3464457899882931,0.009679710759515167,0.01609040146662811
0.396,0.0012,-1.092,0.00846564387562971,1.3503289121529152,0.009549192525165964,0.0162001760418832
0.397,-0.0006,-1.092,0.008467336838440143,1.3464457899882931,0.009553279389056132,0.01609040146662811
0.398,0.0085,-0.092,0.008456330711863802,1.3503289121529152,0.009526710263616248,0.0162001760418832
0.399,-0.0064,-3.092,0.008474003314124859,1.3542008996507688,0.009569372464806315,0.016309635843802996
0.4,-0.0006,-0.092,0.008409106444800944,1.3425514365410074,0.009412709441737927,0.015980309386738424
0.401,-0.0024,-1.092,0.008490484791096157,1.3425514365410074,0.009609159253196184,0.015980309386738424
0.402,-0.0103,-0.092,0.008384974891640766,1.3464457899882931,0.009354455135963339,0.01609040146662811
0.403,0.0002,-3.092,0.008308919374142437,1.346445789988294,0.009170854795662669,0.016090401466628136
0.404,0.0038,-3.092,0.008243438429369445,1.3615653038378104,0.009012781796635415,0.016517825106815265
0.405,0.0002,-1.092,0.008251279177958908,1.3325718363714776,0.009031709603014079,0.01569818940096858
0.406,-0.0052,1.908,0.008385916871390868,1.3289919505810892,0.009356729103827389,0.015596987217405585
0.40700000000000003,0.0057999999999999215,-1.092,0.008360418379192379,1.3286368177465102,0.009295174965498117,0.015586947729997688
0.40800000000000003,0.004400000000000828,-3.092,0.008369842499207523,1.31385676719699,0.00931792507881965,0.015169120604674622
0.40900000000000003,0.019299999999999234,-0.092,0.008444008165525,1.2989085479536575,0.009496963260695327,0.014746539406172337
0.41000000000000003,0.0054999999999992945,-0.092,0.008470121342880521,1.3029333526953537,0.009560001267752617,0.014860319300873994
0.41100000000000003,-0.007199999999999739,-0.092,0.008225750364581987,1.3032954894434743,0.008970082268434728,0.014870556786593958
0.41200000000000003,-0.002499999999999756,-0.092,0.008194431606424102,1.3032954894434743,0.008894477830456797,0.014870556786593958
0.41300000000000003,0.0019000000000000666,-0.092,0.008284369720014985,1.2992718065073332,0.009111591181393488,0.014756808604963152
0.41400000000000003,0.0030999999999996555,-0.092,0.007984470820247067,1.2989085479536548,0.008387626085049284,0.014746539406172262
0.41500000000000004,-0.0031000000000001777,1.908,0.00782456150603217,1.298908547953653,0.008001600120427497,0.014746539406172212
0.41600000000000004,-0.006299999999999739,-0.092,0.007774489190795573,1.2985451877810472,0.007880724023341133,0.014736267334647954
0.417,-0.0016,0.908,0.00787450733703846,1.3022087770747195,0.008122170880721858,0.014839835788477711
0.418,-0.0008,0.908,0.008001428287706145,1.2863918096181597,0.008428561929002916,0.014392695366219992
0.419,-0.0015,-0.092,0.007952696714777028,1.286024912906017,0.008310922424763537,0.014382323317896382
0.42,-0.0084,-3.092,0.00831790033488237,1.2819470234748598,0.00919253510896952,0.01426704273663605
0.421,-0.0041,-2.092,0.008408543722472149,1.28194702347486,0.009411351012863077,0.014267042736636057
0.422,-0.0048,-3.092,0.008422308216818743,1.28194702347486,0.009444578922280126,0.014267042736636057
0.423,-0.0026,-2.092,0.008454053015669703,1.28194702347486,0.009521211835493038,0.014267042736636057
0.424,-0.0034,-1.092,0.008461766082632211,1.2823150869555446,0.009539831414527647,0.014277447769119241
0.425,-0.0089,0.908,0.00845514959437736,1.2785944970367586,0.009523859009958674,0.014172267926529135
0.426,-0.0052,0.908,0.00835184290071746,1.2793324471489758,0.009274473498753504,0.01419312953136509
0.427,0.0056,1.908,0.0083295543193619,1.2793324471489758,0.009220668183159008,0.01419312953136509
0.428,0.0042,2.908,0.008345226512990625,1.2830508971624277,0.009258501336862226,0.014298248879541377
0.429,-0.0082,0.908,0.008346484784182007,1.2867586017161239,0.009261538841918101,0.014403064457135488
0.43,-0.0002,0.908,0.008352633129629996,1.29082129077162,0.009276381135464543,0.014517915328819042
0.431,0.0226,-0.092,0.008381587486417695,1.29082129077162,0.009346277836378128,0.014517915328819042
0.432,0.0128,0.908,0.008408270186710561,1.2871252892893477,0.009410690689186848,0.014413430593171251
0.433,-0.0079,0.908,0.008375150357189482,1.2871252892893477,0.00933073840997313,0.014413430593171251
0.434,0.0055,-0.092,0.008407152133322772,1.2871252892893477,0.00940799167418801,0.014413430593171251
0.435,0.0077,1.908,0.008447630822954329,1.2867586017161239,0.009505708466285866,0.014403064457135488
0.436,0.0012,0.908,0.008448368609844072,1.2748630489082182,0.009507489506353462,0.0140667811259518
0.437,0.007,-0.092,0.00844371547886442,1.2587024994945413,0.009496256706164486,0.01360992775575969
0.438,0.0088,-1.092,0.008432504554853126,1.2628554501021414,0.009469193193466624,0.013727330291574332
0.439,0.0008,1.908,0.008434243961375093,1.2632290762527731,0.009473392173893803,0.013737892578891343
0.44,-0.0035,-0.092,0.008315123355606243,1.2514869574667211,0.009185831396249192,0.013405946776599254
0.441,-0.0101,0.908,0.00819275799822677,1.2476744408411142,0.00889043768919332,0.013298168196506682
0.442,-0.009,0.908,0.008164865001341674,1.2438502385524808,0.008823103143475165,0.013190059266597408
0.443,-0.0122,-2.092,0.008126398871733265,1.247674440841114,0.008730244732692427,0.013298168196506676
0.444,-0.0013,-0.092,0.008059951397553586,1.2319234235803536,0.00856983850218092,0.012852892164403308
0.445,0.0001,-1.092,0.00783724889869986,1.2319234235803536,0.00803222787352072,0.012852892164403308
0.446,0.0038,-0.092,0.0076657895410958505,1.2280501729102176,0.0076183197516737815,0.012743396653022184
0.447,0.0001,-1.092,0.007794998637169959,1.2280501729102178,0.00793023445279549,0.01274339665302219
0.448,0.0055,-1.092,0.00781131276884991,1.2276658405067167,0.00796961726454501,0.012732531703488674
0.449,-0.001,0.908,0.00778995496486092,1.2319234235803538,0.007918058873918851,0.012852892164403315
0.45,-0.0119,-0.092,0.007941418356259188,1.194244365575702,0.008283696123108909,0.01178771769573576
0.451,-0.0057,-1.092,0.007941917895713841,1.2112652128857095,0.00828490202659737,0.012268891402028272
0.452,-0.0065,-1.092000000000111,0.00794502758217842,1.2069347581075736,0.00829240890462417,0.012146470882204757
0.453,-0.0101,-2.091999999999889,0.007884740588465972,1.2112652128857095,0.00814687426196589,0.012268891402028272
0.454,-0.0036,-1.091999999999889,0.00790130354022077,1.1773782759628746,0.008186857732969571,0.01131091893819716
0.455,-0.0159,-0.09199999999988898,0.007892333554053992,1.1378944976809942,0.008165203912617236,0.010194725626060821
0.456,-0.0032,0.907999999999889,0.007894326858885515,1.1503860964893713,0.008170015811312143,0.010547858979922232
0.457,0.0047,-0.092,0.008091020378918705,1.1374797038254922,0.008644839971358434,0.010182999541385714
0.458,0.0123,-0.09200000000011102,0.008094232735319482,1.1370647586558897,0.008652594697744495,0.010171269179111186
0.459,0.0134,-1.092,0.008087615997791104,1.096129804594578,0.00863662169142162,0.009014051609160117
0.46,0.0022,-1.091999999999889,0.007875873547575848,1.1008962049800264,0.008125468954653077,0.009148796166664712
0.461,0.0036,-0.092,0.007894241706700382,1.1052151593787283,0.00816981025133856,0.009270891574577212
0.462,0.0126,-0.09199999999988898,0.007912727155919364,1.1052151593787283,0.008214434689891494,0.009270891574577212
0.463,0.0137,0.907999999999778,0.00816717401846826,1.1052151593787283,0.008828677181285247,0.009270891574577212
0.464,-0.003,-1.091999999999778,0.008521311222179572,1.105215159378728,0.009683575198591525,0.009270891574577207
0.465,-0.0099,0.908,0.008538880500287666,1.1227451791403047,0.009725987972123097,0.0097664594171428
0.466,-0.0165,0.907999999999889,0.008538404448380724,1.1095173017585942,0.009724838768291605,0.009392511712295095
0.467,-0.0147,-0.09199999999988898,0.008534175465975362,1.148744064639745,0.009714629875705118,0.01050143928432515
0.468,0.0055,0.907999999999889,0.008572114495551704,1.148744064639745,0.009806215850924426,0.01050143928432515
0.46900000000000003,0.024399999999999335,-0.09200000000011102,0.008593521420939741,1.1615252990900227,0.009857892822106971,0.010862760541688034
0.47000000000000003,0.012399999999999639,-1.092,0.008601105101813262,1.1656196269827006,0.009876200059174165,0.010978505832801617
0.47100000000000003,0.005900000000000094,-1.092,0.008562122899405479,1.129947561761954,0.009782095832904247,0.009970068384256804
0.47200000000000003,0.0075999999999999,-0.092,0.008559042915601393,1.1116823651988155,0.009774660658006341,0.009453717337427352
0.47300000000000003,0.0057999999999997385,-1.092,0.008547858443928346,1.0887450461311667,0.009747661002060279,0.008805286937507997
0.47400000000000003,0.0010999999999999168,-0.092,0.008597802807206633,1.0746598856644274,0.009868228219214448,0.008407104124275137
0.47500000000000003,-0.00040000000000006106,-2.092,0.008607242202387852,1.0746598856644274,0.009891015207253053,0.008407104124275137
0.47600000000000003,-0.0015000000000002,0.908,0.008568428045003362,1.0746598856644274,0.009797316646797755,0.008407104124275137
0.47700000000000004,-0.005099999999999579,0.908,0.008554392440625282,1.0702176299590456,0.009763434269490973,0.008281523029331593
0.47800000000000004,0.002500000000000139,0.908,0.008542464241374942,1.1244651903182257,0.009734639232476272,0.009815083562478864
0.47900000000000004,0.004999999999999334,-1.092,0.008532945493935379,1.0843604940673708,0.009711660685664354,0.008681337105367223
0.48,-0.007,-1.092,0.008497221032853998,1.0799581411855317,0.00962542074637601,0.008556884050006309
0.481,-0.0117,-0.092,0.008519180031467283,1.0799581411855317,0.009678430439172455,0.008556884050006309
0.482,-0.0041,-0.092,0.008215563423025901,1.0847955993327891,0.008945490680633602,0.008693637386861765
0.483,-0.0077,-0.092,0.008151163727972133,1.0803950194029317,0.008790027851426099,0.008569234452265144
0.484,-0.0088,0.908,0.00812256563283675,1.0759764419212614,0.008720991177013585,0.008444322732849986
0.485,-0.0012,-1.092,0.00810521663294074,1.080831721031731,0.008679110161808426,0.00858157986242283
0.486,0.0013,-0.092,0.008084923973365585,1.0626104744572051,0.008630123062303307,0.008066471267189769
0.487,-0.0012,-1.092,0.008096113818520594,1.0581176333683522,0.008657135689998811,0.007939460140238669
0.488,0.0042,-1.092,0.008079525001470243,1.0626104744572051,0.008617089779382308,0.008066471267189769
0.489,-0.0071,0.908,0.008032889774583395,1.0626104744572051,0.008504510918465187,0.008066471267189769
0.49,-0.0024,-0.092,0.0080562721757621,1.0626104744572051,0.008560956748493907,0.008066471267189769
0.491,-0.0009,-0.092,0.008077973814146973,1.0670843991021939,0.008613345165844851,0.00819294763254891
0.492,0.0001,0.908,0.008120464366397245,1.0670843991021939,0.008715918655702242,0.00819294763254891
0.493,-0.0036,-0.092,0.008070630752183188,1.0670843991021939,0.008595618790168959,0.00819294763254891
0.494,-0.0025,-0.092,0.007978158988768184,1.0904774277472076,0.008372389131235003,0.008854260791025458
0.495,0.004,-0.092,0.007980732225608201,1.0948374832856658,0.008378601003496758,0.00897751811452237
0.496,0.0142,-1.092,0.007983192009672568,1.0948374832856658,0.008384538997295746,0.00897751811452237
0.497,0.0051,0.908,0.00798700296425151,1.0996094854202407,0.008393738757951895,0.00911242103161623
0.498,-0.0062,-1.092,0.008006722983321345,1.0996094854202407,0.00844134348580135,0.00911242103161623
0.499,-0.0167,-0.092,0.007987933164403969,1.0991802441767293,0.008395984289507746,0.009100286524075437
0.5,0.0011,-2.092,0.00799157109788245,1.0948374832856658,0.00840476637194713,0.00897751811452237
0.501,0.0033,-0.092,0.007919424177197034,1.1125310348792692,0.008230601503635259,0.009477708947722915
0.502,-0.0033,-1.092,0.007913436664197481,1.1121067809935272,0.00821614746452762,0.009465715431131562
0.503,-0.0051,-1.092,0.007890898692658336,1.1121067809935263,0.008161740113419072,0.009465715431131536
0.504,0.0004,-0.092,0.007828125814234204,1.0935436347462477,0.008010204469202644,0.008940941445584924
0.505,0.0018,1.908,0.007843393796628014,1.0935436347462488,0.00804706184464907,0.008940941445584955
0.506,0.0185,0.908,0.007710981774472519,1.0983212584271114,0.007727415182220103,0.009076003281927255
0.507,-0.0062,0.908,0.007708271099641183,1.0987508352445827,0.007720871530452977,0.009088147276032561
0.508,-0.0029,-0.092,0.007694125947722244,1.103078189582131,0.007686724702039392,0.009210480147429326
0.509,-0.0058,-1.092,0.007597615786620457,1.1078146947710472,0.007453746227845856,0.009344379577646555
0.51,0.0077,0.908,0.007510727004105965,1.1078146947710472,0.007243994055186953,0.009344379577646555
0.511,-0.009,-0.092,0.007510727004105966,1.1030781895821322,0.007243994055186956,0.009210480147429357
0.512,0.0204,-0.092,0.007503706888652997,1.107814694771048,0.007227047282243845,0.009344379577646581
0.513,0.0244,-0.092,0.007400379096511083,1.1121067809935312,0.006977610838659209,0.009465715431131675
0.514,0.0063,1.908,0.007273440484869264,1.1125310348792752,0.006671177156247612,0.009477708947723085
0.515,0.003,0.908,0.0072687645020839175,1.107814694771052,0.006659889191102303,0.009344379577646694
0.516,-0.0057,2.908,0.007201264438439276,1.107814694771052,0.006496941977499486,0.009344379577646694
0.517,-0.0082,0.908,0.007011159089899175,1.1035059146056072,0.006038021864495105,0.009222571791932772
0.518,-0.0061,1.908,0.006858879346442445,1.1082405917437035,0.005670413916522513,0.009356419543759835
0.519,-0.0039,0.908,0.006859686043523365,1.1086663251069677,0.005672361307894608,0.009368454884689882
0.52,0.002,0.908,0.006479028147267617,1.1086663251069677,0.004753441529428468,0.009368454884689882
0.521,-0.0034,-0.092,0.006400400558462798,1.144589372510483,0.0045636321304995476,0.010383987516270924
0.522,-0.002,-2.092,0.006374876960615012,1.1578241391864386,0.004502017386366698,0.010758129979181213
0.523,-0.0096,-1.092,0.006487303742870554,1.1753725147886394,0.004773419069768304,0.011254216735271166
0.524,0.0053,-1.092,0.006649869443944611,1.1882644714622441,0.005165857633335629,0.011618668073152191
0.525,0.0036,0.908,0.006698344927612998,1.1882644714622441,0.00528287893028428,0.011618668073152191
0.526,0.0018,-0.092,0.0068558405454265964,1.1753725147886394,0.005663078158132229,0.011254216735271166
0.527,0.0033,3.908,0.006855991402460331,1.1878672665334684,0.005663442331615514,0.011607439221599996
0.528,-0.0011,-0.092,0.006837150050281925,1.2002319514505575,0.005617958732457094,0.011956984761862072
0.529,0.0026,-0.092,0.007162422695880022,1.2002319514505593,0.006403176825590465,0.011956984761862122
0.53,-0.0061,0.908,0.008623502276681384,1.2323429371758925,0.009930267522822035,0.01286475167456335
0.531,0.0014,-1.092,0.0086356972747282,1.2438864087812331,0.009959706620273585,0.013191081786963712
0.532,-0.0076,-0.092,0.008562142046179121,1.2477105002090003,0.00978214205380014,0.013299187582873077
0.533,-0.004,-0.092,0.008589420838692406,1.2477105002090005,0.009847993891420473,0.013299187582873084
0.534,0.0014,-1.092,0.008642424178151474,1.2518999153089958,0.009975945570428779,0.013417620957789578
0.535,-0.0051,-0.092,0.008597420225121413,1.2522768101296227,0.009867304654385099,0.013428275649322875
0.536,-0.0044,-0.092,0.00866064829839213,1.2522768101296227,0.010019939152852807,0.013428275649322875
0.537,0.0047,0.908,0.008769227629819373,1.256450999763738,0.010282052972538524,0.013546278605370438
0.538,-0.0014,-1.092,0.00878388775869778,1.2522768101296218,0.010317442971048316,0.01342827564932285
0.539,0.0062,1.908,0.00877833412352454,1.283085962324004,0.010304036326254463,0.014299240160025253
0.54,0.0069,0.908,0.008797849096483032,1.3135317946190552,0.010351146066533545,0.015159933737715514
0.541,0.0131,0.908,0.008868322464004513,1.3283154611150936,0.010521270926434241,0.015577863084646953
0.542,0.0008,0.908,0.00891983957852443,1.3429363920155108,0.010645634813082873,0.015991191950282455
0.543,-0.0009,-3.092,0.008925163298576164,1.3432877443933553,0.010658486435756866,0.016001124565432744
0.544,-0.0024,0.908,0.008919484722375484,1.3432877443933553,0.01064477817950983,0.016001124565432744
0.545,0.002,-1.092,0.008921379229287457,1.3432877443933553,0.01064935157701183,0.016001124565432744
0.546,-0.0045,-1.092,0.00891890166964709,1.3471799693642494,0.010643370672429901,0.016111156474001024
0.547,-0.0056,-1.092,0.008822047867049833,1.3468296323657662,0.01040956263717906,0.0161012525632884
0.548,-0.0001,0.908,0.008810096111594532,1.3432877443933529,0.010380710734766698,0.016001124565432675
0.549,-0.0026,-0.092,0.0087893874330321,1.3432877443933529,0.01033071935273024,0.016001124565432675
0.55,-0.0052,1.908,0.008638144700423761,1.3468296323657662,0.009965614780593124,0.0161012525632884
0.551,-0.0048,0.908,0.008652606937384224,1.3315428071904984,0.010000527061973739,0.015669099087432675
0.552,-0.0026,-1.092,0.008647053765674578,1.3315428071904984,0.009987121535995146,0.015669099087432675
0.553,-0.0019,-0.092,0.008643533584111782,1.3315428071904984,0.009978623710273775,0.015669099087432675
0.554,0.0061,-1.092,0.008672293275720108,1.3315428071904984,0.010048050483503566,0.015669099087432675
0.555,0.0069,-1.092,0.008683447920076222,1.3461286848377463,0.010074978135396286,0.016081437009231012
0.556,0.0025,-1.092,0.008693706696628707,1.3315428071904984,0.010099743135070978,0.015669099087432675
0.557,0.0004,0.908,0.008495519934791496,1.3279601473687488,0.009621314243739076,0.015567818482923462
0.558,-0.0018,-1.092,0.00857623872452838,1.3243677958250515,0.009816171865537201,0.0154662638966503
0.559,-0.0069,-1.092,0.008614147910582168,1.3243677958250515,0.0099076857975823,0.0154662638966503
0.56,0.0022,-0.092,0.00874552594698651,1.3204083281317294,0.01022483638685284,0.015354331058628712
0.561,-0.0015,-1.092,0.008802118704919462,1.3207656734778435,0.010361453031598853,0.01536443309300364
0.562,0.0021,0.908,0.00877857023182985,1.3243677958250515,0.010304606298909027,0.0154662638966503
0.5630000000000001,0.0009999999999997225,-1.092,0.00854717189863052,1.3243677958250515,0.009746003660759362,0.0154662638966503
0.5640000000000001,-0.0014999999999999224,-0.092,0.0082140527489005,1.3283154611150854,0.008941843867192182,0.015577863084646721
0.5650000000000001,-0.0008000000000000888,0.908,0.008207008912824035,1.313531794619047,0.008924839831940045,0.015159933737715282
0.5660000000000001,-0.0016000000000000777,-0.092,0.00827613437265257,1.3138910102108496,0.009091710801534566,0.015170088643315316
0.5670000000000001,-0.002299999999999123,-1.092,0.008275905206854029,1.2834536991846024,0.009091157588303214,0.014309635959066962
0.5680000000000001,0.005599999999998346,-1.092,0.008266285919181156,1.3138910102108496,0.009067936334299805,0.015170088643315316
0.5690000000000001,-0.009299999999999767,-0.092,0.008248322348812405,1.3026056549592293,0.009024571727218008,0.014851055394597017
0.5700000000000001,-0.007199999999999356,-3.092,0.00823942292252394,1.3026056549592293,0.009003088240565265,0.014851055394597017
0.5710000000000001,-0.0014000000000014212,-2.092,0.008266023918665336,1.3029678827851112,0.009067303857058891,0.014861295455055077
0.5720000000000001,-0.014200000000000167,-2.092,0.008260174692888813,1.3029678827851114,0.00905318364752789,0.014861295455055082
0.5730000000000001,-0.015699999999999156,-2.092,0.008258023577318698,1.290856144856152,0.009047990788893961,0.014518900642224906
0.5740000000000001,-0.008100000000000721,-0.092,0.008210105239801892,1.290856144856152,0.008932314459758195,0.014518900642224906
0.5750000000000001,-0.014599999999998201,-1.092,0.008202444098949588,1.2867935658426377,0.008913820231938294,0.014404052881391669
0.5760000000000001,0.001599999999999756,1.908,0.008325711874583969,1.287160243455244,0.009211392404201485,0.01441441873584408
0.577,-0.0006,1.907999999999889,0.008354168991965805,1.291221668789151,0.00928008875401458,0.014529233882537585
0.578,0.0215,0.9080000000002221,0.008458041306454105,1.2323429371758772,0.009530839691161107,0.012864751674562917
0.579,0.0483,2.907999999999889,0.008460476465414216,1.2362027378987606,0.009536718239206913,0.012973866960397621
0.58,0.0084,1.907999999999889,0.008464694810953534,1.2400505246035405,0.009546901454074152,0.01308264261392654
0.581,0.0033,0.907999999999889,0.008447153184052555,1.2404310197698494,0.009504555431400415,0.013093399086037748
0.582,0.008,-0.09200000000011102,0.008452529843903527,1.2404310197698494,0.009517534852365384,0.013093399086037748
0.583,0.0123,-1.092,0.00842106074087059,1.2404310197698494,0.009441567477270856,0.013093399086037748
0.584,0.0004,-1.092,0.008438783708576501,1.244644937492675,0.009484351262181853,0.013212525141972197
0.585,-0.0105,-1.092,0.008456768870336173,1.2568265298142862,0.009527767991540256,0.013556894715306413
0.586,-0.0138,-1.091999999999889,0.008444928120004443,1.2568265298142862,0.009499184058883843,0.013556894715306413
0.587,-0.0052,-0.09199999999966693,0.00843937688326553,1.260611367720498,0.009485783203983654,0.013663890827184905
0.588,0.0028,2.908,0.00843531554623532,1.260985658785974,0.00947597901244898,0.01367447191142396
0.589,-0.0092,2.907999999999889,0.008439760130715764,1.2568265298142862,0.00948670837502445,0.013556894715306413
0.59,-0.0114,1.908,0.00841926043099934,1.245024028548804,0.009437221474299862,0.013223241920354473
0.591,-0.0096,1.9079999999996669,0.008488392135971416,1.2411916601729038,0.009604107519861481,0.01311490213786751
0.592,0.0031,-1.091999999999889,0.008430088261496015,1.2373474220693417,0.009463360187562199,0.013006226802117665
0.593,-0.0017,-0.092,0.008462287900498897,1.2377287482075376,0.009541091098782647,0.013017006765528423
0.594,-0.0031,-0.09200000000011102,0.008469949714407949,1.2041946817952207,0.009559586951382076,0.012069009833954595
0.595,0.0034,-1.091999999999778,0.008475402759978044,1.2041946817952207,0.009572750769804145,0.012069009833954595
0.596,-0.0054,0.907999999999889,0.008474210971171028,1.2038027331860253,0.009569873755253039,0.012057929576812995
0.597,0.0022,-0.09200000000011102,0.008552776167899904,1.215617252086164,0.009759532537806552,0.012391922106309468
0.598,0.0015,-1.092,0.008535435023712816,1.2113023561236225,0.009717670486522473,0.01226994142904072
0.599,0.004,0.908,0.008804086024573284,1.2234302155545134,0.010366202201281772,0.01261279199138172
0.6,-0.0051,-0.092,0.008838163678434048,1.2234302155545134,0.010448466697682342,0.01261279199138172
0.601,0.0011,-0.092,0.008831006249570669,1.2113023561236225,0.010431188445975972,0.01226994142904072
0.602,-0.0022,-1.092,0.008819531728286426,1.2073629543635649,0.01040348860141676,0.012158575848295062
0.603,-0.0087,-1.092,0.008913679527427977,1.2073629543635649,0.010630764261743805,0.012158575848295062
0.604,-0.0044,1.908,0.008911832031866363,1.2073629543635649,0.010626304351076263,0.012158575848295062
0.605,0.0046,-0.092,0.00893048066328217,1.2069720346104806,0.01067132271643232,0.012147524676574374
0.606,0.001,-0.092,0.008911529028416354,1.2026261209174225,0.01062557289150089,0.012024667138354955
0.607,0.0133,-0.092,0.008916674218474538,1.2152289876117024,0.010637993537322083,0.012380945998434478
0.608,0.0086,-0.092,0.008930692911474249,1.2156172520861637,0.010671835090045382,0.012391922106309461
0.609,0.0162,-0.092,0.008929968800935145,1.215617252086164,0.010670087065105603,0.012391922106309468
0.61,0.0126,-1.092,0.008946363443906027,1.215228987611706,0.010709664233568473,0.012380945998434579
0.611,-0.0063,0.908,0.00895813339616259,1.251145785060695,0.01073807725751082,0.013396301945874772
0.612,-0.0038,-0.092,0.008957426392481094,1.2819821188299045,0.010736370529047372,0.01426803487067926
0.613,-0.006,-1.092,0.009090152746727661,1.2819821188299045,0.011056775998736963,0.01426803487067926
0.614,0.0053,-0.092,0.009254976999127622,1.3120939488177308,0.011454666774131412,0.015119286313959257
0.615,0.0111,-1.092,0.009384582611713373,1.315719812462072,0.011767538678213103,0.015221788276199005
0.616,0.0057,0.908,0.009394614874304583,1.3120939488177308,0.011791756866272532,0.015119286313959257
0.617,0.0072,2.908,0.009411839320257978,1.3120939488177308,0.011833337204459086,0.015119286313959257
0.618,0.0028,0.908,0.009421308360519118,1.3080973300581382,0.011856195756625327,0.01500630322762015
0.619,-0.0008,0.908,0.00946905352183166,1.3040884629833795,0.011971454033119014,0.014892973885475032
0.62,-0.0069,-1.092,0.009423462546482554,1.3040884629833795,0.011861396027282436,0.014892973885475032
0.621,-0.0014,-0.092,0.009397952763820553,1.2726754920436714,0.011799814633429682,0.014004939619176707
0.622,-0.0007,0.908,0.00941365569964752,1.2564868072569837,0.011837721999737646,0.013547290871324315
0.623,0.0037,-1.092,0.00930779906044187,1.24430188908961,0.011582180842165881,0.013202827277433844
0.624,-0.0039,-0.092,0.009185756909924793,1.2319964632956932,0.011287567366339448,0.01285495697292291
0.625,-0.0147,-1.092,0.009165260408442398,1.231996463295693,0.011238088186249409,0.012854956972922903
0.626,-0.0071,-1.092,0.009065168345861283,1.2316133623566057,0.010996462892572426,0.012844126836479789
0.627,-0.0136,0.908,0.009331303383218617,1.2156542623513875,0.011638920994653074,0.012392968374228108
0.628,-0.0023,0.908,0.009461981783663413,1.21643039589144,0.011954382641365804,0.012414909411900503
0.629,-0.0037,0.908,0.009267715952835232,1.2164303958914382,0.011485418997148538,0.012414909411900453
0.63,0.0028,-1.092,0.007996420263269546,1.1966881114739085,0.008416472405178245,0.011856801581494244
0.631,-0.0033,-1.092,0.008018566257958246,1.1842864272471716,0.008469933512207482,0.011506210083024021
0.632,-0.0022,-0.092,0.008016333605417035,1.1842864272471723,0.008464543820836983,0.01150621008302404
0.633,0.0068,-1.092,0.007977008574714768,1.1842864272471723,0.008369611996601758,0.01150621008302404
0.634,0.0057,-2.092,0.007884448229867152,1.179856955797183,0.00814616849938615,0.011380990394738893
0.635,0.0025,-0.092,0.007904812483680603,1.175410792244192,0.008195328429567427,0.011255298826239983
0.636,0.0032,0.908,0.007877165625183709,1.175410792244192,0.008128588069430035,0.011255298826239983
0.637,0.0039,-1.092,0.007763947300097896,1.175410792244193,0.00785527557747988,0.011255298826240007
0.638,0.0031,-0.092,0.007747026186304452,1.179856955797184,0.007814427492384528,0.011380990394738924
0.639,-0.0019,0.907999999999778,0.00774870383561062,1.1462766065040775,0.007818477389008061,0.010431685061480865
0.64,-0.0128,-0.092,0.007693790801084661,1.1116823651988077,0.0076859156478282726,0.009453717337427132
0.641,-0.0085,-0.09200000000022204,0.007630060308422944,1.0939750876193515,0.007532068293617873,0.008953138475160521
0.642,-0.0074,-1.092,0.007732702196359408,1.0759764419212594,0.007779848943518153,0.008444322732849929
0.643,-0.0037,0.908,0.007822536294541365,1.0759764419212605,0.007996711198083357,0.00844432273284996
0.644,0.0039,0.908,0.007821189672463794,1.0803950194029308,0.007993460411291934,0.00856923445226512
0.645,0.0014,0.9080000000002221,0.007897928182777826,1.0803950194029306,0.008178709517093262,0.008569234452265113
0.646,-0.0124,1.908,0.007940525142981655,1.080395019402933,0.008281539878997891,0.008569234452265182
0.647,0.0014,-0.09199999999955591,0.009246381530087881,1.0808317210317333,0.011433917049553243,0.008581579862422892
0.648,0.0216,1.908,0.009485658447940816,1.080831721031733,0.01201153883149509,0.008581579862422887
0.649,0.0082,-0.09199999999977795,0.009488107313798127,1.116382365819576,0.012017450468409045,0.009586584795614275
0.65,-0.0038,0.908,0.009481419324750214,1.1295298495808055,0.01200130545874356,0.009958259799483905
0.651,-0.0017,-0.09200000000022204,0.009485865924825221,1.133739730041759,0.012012039687025817,0.010077271723364712
0.652,0.0132,-1.092,0.009498504198968674,1.150835333241645,0.012042548866502535,0.010560558753861644
0.653,-0.0006,-0.09199999999977795,0.009609278910823195,1.1504252053043935,0.012309962401538246,0.010548964573147423
0.654,0.0084,0.908,0.009569680238036012,1.1458648469085608,0.012214369996959032,0.010420044754328837
0.655,0.0037,-0.09200000000044409,0.00956353408408174,1.13332341555154,0.012199532993745304,0.010065502650850664
0.656,-0.0039,-2.092,0.009560985602179915,1.1333234155515397,0.012193380880659813,0.010065502650850659
0.657,-0.005,-1.092,0.009618148060817356,1.137519256372626,0.01233137280029257,0.010184117678770475
0.658,-0.0014,-1.092,0.009564871090737823,1.137519256372626,0.01220276056861581,0.010184117678770475
0.659,0.0088,0.9080000000004441,0.00958306218898975,1.1421129384773678,0.012246674434951284,0.010313979547783814
0.66,0.0051,2.908,0.00944826632176143,1.1462766065040897,0.011921273097766416,0.01043168506148121
0.661,-0.001,2.907999999999556,0.009378990640849388,1.1416996772355046,0.011754039489891864,0.010302296789587783
0.662,-0.0156,0.908,0.009383964959150141,1.142112938477368,0.01176604764607596,0.010313979547783821
0.663,-0.0174,2.908,0.00938597907591882,1.142112938477368,0.0117709097854223,0.010313979547783821
0.664,-0.0156,0.908,0.009372545269736604,1.142112938477368,0.011738480167325987,0.010313979547783821
0.665,-0.0044,-0.092,0.009363400573518608,1.1590850499422618,0.011716404591578217,0.0107937755079045
0.666,-0.0059,-0.092,0.009300136108031057,1.1545588973200023,0.011563682241188457,0.010665822674956067
0.667,-0.0048,-0.092,0.009288325627132025,1.1549675573878826,0.011535171379866338,0.010677375359490173
0.668,-0.011,-0.092,0.009263659492705315,1.1159595760936687,0.011475626578600006,0.00957463267033567
0.669,-0.0008,-0.092,0.00927878884605845,1.116382365819576,0.011512149299311568,0.009586584795614275
0.67,-0.002,-1.092,0.00927966892529879,1.152474385480397,0.011514273837455976,0.010606894216847886
0.671,-0.0056,-0.092,0.009267807861717693,1.152474385480397,0.011485640867995672,0.010606894216847886
0.672,0.002,-1.092,0.009267056196447661,1.1570086926239125,0.01148382632509452,0.010735077575406727
0.673,-0.0046,-1.092,0.0092720186102276,1.1528837844406397,0.011495805743402065,0.010618467789623928
0.674,-0.0053,-0.092,0.009300185770357279,1.1652147027777937,0.01156380212755955,0.010967058759874287
0.675,0.0056,0.908,0.009385459487114724,1.169296112176324,0.011769655482192417,0.011082438849444399
0.676,0.0222,-0.092,0.009278059578183435,1.18145574656609,0.011510388824405509,0.011426187679330532
0.677,0.0157,-2.092,0.009254058314878376,1.1810562517747767,0.011452449042317356,0.011414894094124127
0.678,0.0099,0.908,0.009154376237263244,1.18145574656609,0.011211813464860165,0.011426187679330532
0.679,0.0117,-2.092,0.009154813333585457,1.17741648821176,0.011212868628721279,0.011311999185795122
0.68,0.0103,0.908,0.009207522455051444,1.17741648821176,0.01134011005651535,0.011311999185795122
0.681,0.0027,0.908,0.009224063012931738,1.1729610739892595,0.011380039468022567,0.011186046103938358
0.682,-0.0009,-0.092,0.009218192531050799,1.1684886715219625,0.011365867945606812,0.011059612770037534
0.683,-0.002,-0.092,0.00921672080654196,1.1725586850372498,0.011362315157728434,0.011174670701769286
0.684,0.0057,-0.092,0.00919181908582884,1.1721561579493287,0.011302201643977093,0.011163291394543832
0.685,0.0082,-1.092,0.009174871589318978,1.1586778420949901,0.011261289870199167,0.010782263877165183
0.686,-0.0037,-1.092,0.009177505027757911,1.1586778420949901,0.011267647070957934,0.010782263877165183
0.687,0.001,-1.092,0.009254310125722394,1.1590850499422618,0.011453056921379571,0.0107937755079045
0.6880000000000001,-0.0031999999999996003,-1.092,0.00928715501887202,1.1545588973200023,0.011532345495802104,0.010665822674956067
0.6890000000000001,0.00039999999999932277,-1.092,0.009283065980129106,1.172156157949329,0.011522474431487564,0.011163291394543839
0.6900000000000001,-0.005700000000001122,-0.092,0.009315359355936978,1.1680847418905071,0.011600431626215914,0.011048193813371703
0.6910000000000001,-0.015799999999999603,-0.092,0.009228491860635965,1.1680847418905071,0.011390730841539994,0.011048193813371703
0.6920000000000001,-0.012199999999998747,-1.092,0.009202612135703895,1.185481242143951,0.011328256395757408,0.01153998710374136
0.6930000000000001,-0.0009000000000011657,0.908,0.009203152307321133,1.185481242143951,0.01132956038652636,0.01153998710374136
0.6940000000000001,-0.011399999999997747,-0.092,0.009397713884183687,1.185481242143951,0.011799237970696166,0.01153998710374136
0.6950000000000001,0.008900000000004307,-1.092,0.009458437014014472,1.2183685666650352,0.011945825459254098,0.012469700856625486
0.6960000000000001,0.04769999999999707,-1.092,0.009464989814457862,1.2304267790561663,0.011961644119502585,0.012810582520259906
0.6970000000000001,0.021299999999997345,-0.092,0.009387124409173128,1.2183685666650335,0.011773674654851438,0.012469700856625436
0.6980000000000001,-0.0025999999999995116,2.908,0.009387497157051708,1.2222724976937556,0.011774574479605839,0.012580063691564686
0.6990000000000001,0.001800000000000455,1.908,0.009136218558917981,1.2222724976937558,0.011167980275199288,0.012580063691564693
0.7000000000000001,0.00589999999999879,0.908,0.009127282201080066,1.2222724976937558,0.011146407634659097,0.012580063691564693
0.7010000000000001,-0.005000000000001077,1.908,0.009120066705396756,1.2183685666650337,0.011128989207877334,0.012469700856625443
0.7020000000000001,-0.014699999999998345,0.908,0.009249530173611097,1.2183685666650337,0.011441517971108482,0.012469700856625443
0.7030000000000001,0.00020000000000028868,-0.092,0.009162237628142904,1.2183685666650335,0.011230791102357324,0.012469700856625436
0.704,0.0028,-1.092,0.009218817310030039,1.2222724976937556,0.01136737618112968,0.012580063691564686
0.705,-0.004,-0.092,0.009264206034601041,1.222658525450293,0.011476945947415636,0.012590976568166061
0.706,-0.0105,0.908,0.00931756253211754,1.2226585254502929,0.011605750160752248,0.012590976568166054
0.707,-0.0086,-0.092,0.009310730704567609,1.2097430111390004,0.011589257920553231,0.01222585926368353
0.708,-0.0104,-1.092,0.00929723126163925,1.2215000761944417,0.01155666985334863,0.012558227592052393
0.709,-0.0023,0.908,0.009502251757164579,1.2215000761944417,0.012051595586355303,0.012558227592052393
0.71,0.0053,-0.092,0.009533431886237124,1.2175936685782718,0.012126865369490546,0.012447794744807674
0.711,-0.007,-1.092,0.0095199222838304,1.1970823895541907,0.012094252776995128,0.011867947692010593
0.712,0.0043,-0.092,0.009521049765467112,1.159492114780185,0.012096974552074596,0.010805283095816987
0.713,-0.0033,-1.092,0.009400687683804997,1.1721561579493365,0.011806416813736325,0.011163291394544052
0.714,0.0033,1.908,0.009238975784118104,1.1508353332416528,0.011416039352773896,0.010560558753861865
0.715,0.0022,-0.092,0.009130042658084404,1.1466882182425624,0.011153071462111102,0.010443321188763661
0.716,-0.0032,-1.092,0.009185655936253697,1.1508353332416528,0.011287323612815911,0.010560558753861865
0.717,-0.0024,-0.092,0.009167479440847903,1.1508353332416528,0.011243444998196652,0.010560558753861865
0.718,0.006,-1.092,0.009161190614299777,1.1549675573878901,0.011228263578987284,0.010677375359490386
0.719,-0.0015,-3.092,0.009096945579174063,1.159492114780185,0.011073174103566006,0.010805283095816987
0.72,0.0051,-1.092,0.00910157958181171,1.1639990849894608,0.011084360727353621,0.010932693648314692
0.721,0.0008,-1.092,0.009145903266759148,1.177015622443118,0.011191359455485451,0.011300666843514502
0.722,-0.0031,-0.092,0.009136615765407873,1.177015622443118,0.011168939143787821,0.011300666843514502
0.723,-0.0081,1.908,0.009156277045413282,1.1766146201018426,0.011216402073743154,0.01128933064037084
0.724,-0.0132,0.908,0.0091616600816194,1.1721561579493267,0.011229396887424041,0.011163291394543775
0.725,-0.004,1.908,0.009370601058704204,1.1766146201018406,0.011733786782560408,0.011289330640370783
0.726,0.0025,0.908,0.009958988303267743,1.1725586850372458,0.013154171547318759,0.011174670701769173
0.727,0.0014,-1.092,0.00976308903742653,1.177015622443112,0.012681264741130922,0.011300666843514332
0.728,0.0025,-0.092,0.00966156831646715,1.1594921147801713,0.012436190622529061,0.010805283095816597
0.729,-0.0105,0.908,0.00966156831646715,1.1598990367592978,0.012436190622529061,0.010816786645158295
0.73,0.0062,-0.092,0.009619045331404313,1.1466882182425486,0.012333538838872359,0.010443321188763273
0.731,-0.0004,-0.092,0.009575055656029651,1.1594921147801678,0.012227346420042503,0.010805283095816498
0.732,0.0015,0.908,0.009595538118514869,1.1594921147801678,0.012276791709564912,0.010805283095816498
0.733,-0.0004,0.908,0.009595638856127152,1.1594921147801678,0.012277034893235271,0.010805283095816498
0.734,0.0011,0.908,0.009597653423831256,1.1639990849894437,0.012281898121153488,0.010932693648314208
0.735,-0.0033,-0.092,0.009581858569792101,1.168488671521951,0.012243768861476148,0.011059612770037208
0.736,-0.0123,-1.092,0.009620935588284014,1.1639990849894417,0.012338101976666752,0.010932693648314151
0.737,-0.0087,-0.092,0.009700137253754728,1.1639990849894397,0.012529297214186795,0.010932693648314095
0.738,0.0014,-2.092,0.009708799769056808,1.1594921147801638,0.012550208790488364,0.010805283095816383
0.739,0.008,-0.092,0.00971802406335205,1.1938868352884575,0.012572476518423777,0.011777610433136436
0.74,0.0018,-0.092,0.009749068133331257,1.1894931146737304,0.012647417850755458,0.011653401409102771
0.741,0.005,-2.092,0.00975066851487277,1.1934915015354526,0.01265128122063706,0.011766434479102462
0.742,0.0075,-1.092,0.009650589816040734,1.2579882120917685,0.01240968818745819,0.013589735087868935
0.743,0.0194,0.908,0.009591633231552342,1.2576130289258662,0.012267365193268166,0.013579128784246813
0.744,0.0114,2.908,0.009595938035902023,1.269298477469037,0.012277757122342168,0.01390947253757465
0.745,0.0038,1.908,0.009550729274159947,1.27304623611491,0.01216862179181734,0.014015420431065488
0.746,-0.0027,0.908,0.009541947516191248,1.2842238910835253,0.01214742236007951,0.01433140902851594
0.747,-0.0016,0.908,0.008267716434858059,1.2801402645065243,0.009071389642800277,0.01421596626004607
0.748,-0.0006,1.908,0.007996377527575841,1.2838563748301277,0.008416369239909436,0.014321019465966601
0.749,-0.0071,-0.092,0.008071818156063958,1.2488806620524582,0.00859848521937429,0.013332267669952387
0.75,0.0012,-0.092,0.008221470134957411,1.2331450520057805,0.008959749663497102,0.012887427194679349
0.751,-0.0155,-0.092,0.00820303819125081,1.23352767724283,0.008915254388883933,0.012898243883183683
0.752,-0.0036,-1.092,0.008187684159751933,1.2215000761944175,0.008878189288271832,0.01255822759205171
0.753,-0.0102,0.908,0.008081199457834072,1.221886347980335,0.008621131968145594,0.012569147367282693
0.754,-0.0124,-1.092,0.00808757788036931,1.225779075429926,0.008636529674802143,0.012679193480757021
0.755,-0.0106,-0.092,0.008086011522237995,1.2583632833961729,0.008632748438471083,0.013600338229203628
0.756,-0.0016,0.908,0.008084886332956684,1.2583632833961729,0.00863003219720751,0.013600338229203628
0.757,-0.0002,1.908,0.00801643268266141,1.2700418289886048,0.008464782996328543,0.013930486838404334
0.758,0.0197,-1.092,0.007991674938369869,1.2737874005350518,0.00840501704605276,0.014036372903320033
0.759,0.0117,-0.092,0.008015103356655458,1.273416872247298,0.008461573962781847,0.014025898191558776
0.76,-0.0003,1.908,0.008024289328681206,1.2856929055496575,0.008483749179589186,0.0143729375800852
0.761,0.0018,-0.092,0.008006906347921167,1.2856929055496573,0.008441786133541233,0.014372937580085194
0.762,-0.004,1.908,0.00797631622305279,1.2816139597249414,0.00836794063856058,0.01425762713492945
0.763,0.0014,1.908,0.00799565384306734,1.2853258093351148,0.008414622243420534,0.014362559891894926
0.764,-0.0066,-0.09199999999977795,0.008011147605495839,1.2812456948314368,0.008452024658761046,0.014247216408572669
0.765,-0.011,0.908,0.008015340697495868,1.2700418289886046,0.008462146910813756,0.013930486838404327
0.766,0.0013,-0.09199999999977795,0.008195251156976668,1.2860598969793255,0.008896456250501708,0.014383312306041828
0.767,-0.0034,0.908,0.008233104214889424,1.2819821188298988,0.008987834687501436,0.014268034870679097
0.768,-0.002,-1.092,0.008302967332281171,1.2819821188298988,0.009156486384965362,0.014268034870679097
0.769,-0.003,-1.092,0.0082916058232894,1.277891328470743,0.009129059355529082,0.014152389584464506
0.77,-0.0092,-2.091999999999556,0.00829243391424906,1.2416080422275344,0.009131058392377352,0.013126673120405052
0.771,-0.0038,-0.092,0.008286418178500688,1.2373837823833052,0.009116536222692763,0.01300725469612982
0.772,-0.0063,0.907999999999778,0.008306206267708508,1.2331450520057803,0.009164305273932674,0.012887427194679342
0.773,0.0056,-0.092,0.008311923186653027,1.2370023499037754,0.009178106090733482,0.01299647172648484
0.774,0.0204,-1.091999999999778,0.008272202768700916,1.2370023499037754,0.00908221978961072,0.01299647172648484
0.775,0.0342,-0.092,0.00817350666066933,1.2370023499037754,0.008843964372817995,0.01299647172648484
0.776,0.0103,-1.091999999999778,0.008180710037086644,1.2253940307199525,0.008861353543321784,0.012668308394555855
0.777,0.007,-0.092,0.008201818033242513,1.225779075429926,0.008912308890215163,0.012679193480757021
0.778,0.0099,-1.092,0.008213079944685585,1.225779075429926,0.00893949548812937,0.012679193480757021
0.779,0.0074,-1.092,0.008209353236286066,1.230043189233907,0.008930499100321372,0.012799738563251723
0.78,-0.0046,1.9079999999997779,0.008150653424357047,1.2261639992266926,0.00878879596292585,0.012690075148781942
0.781,-0.0068,0.908,0.008141823124919415,1.2427477476291595,0.008767479350600627,0.013158892213978562
0.782,-0.001,-0.09200000000022204,0.008150502212561422,1.2427477476291595,0.008788430933036535,0.013158892213978562
0.783,-0.0028,-1.092,0.008150011419440136,1.2427477476291595,0.008787246143463743,0.013158892213978562
0.784,-0.0014,-1.091999999999778,0.008150968384008896,1.2427477476291595,0.008789556285137341,0.013158892213978562
0.785,-0.0119,-0.092,0.008157831585108744,1.274157821072255,0.008806124262043313,0.014046844569008976
0.786,-0.0129,-1.091999999999778,0.00815215006633779,1.277891328470743,0.008792408902341833,0.014152389584464506
0.787,-0.0042,-0.092,0.008074170034739302,1.2737874005350516,0.008604162726271125,0.014036372903320027
0.788,-0.0053,-3.091999999999334,0.008109177110135856,1.2737874005350516,0.008688670874623144,0.014036372903320027
0.789,0.0078,-0.092,0.00811093627251433,1.257613028925866,0.008692917546290839,0.013579128784246806
0.79,0.006,0.9080000000006662,0.0080716427070971,1.261395506930802,0.00859806168021395,0.013686058182499199
0.791,0.0075,3.908,0.008071097447771878,1.261395506930802,0.008596745407562658,0.013686058182499199
0.792,0.006,0.908,0.008081745783631763,1.2492584677665142,0.008622450815293973,0.01334294811214071
0.793,-0.003,1.908,0.00816761606246298,1.2450601646777808,0.008829744288978788,0.013224263476731439
0.794,-0.0066,0.908,0.007934809804456907,1.2412279078744317,0.008267742877378642,0.013115926848363473
0.795,0.0079,1.908,0.007902818387546225,1.2093528607324846,0.008190514620643281,0.01221482984113508
0.796,0.0021,-0.092,0.007924586659220034,1.1930960367881525,0.008243063892787231,0.011755254821903226
0.797,-0.0034,0.908,0.007931683685889989,1.1890963201601765,0.008260196331755322,0.011642184159852728
0.798,-0.0113,-0.092,0.008067267082141083,1.189493114673736,0.008587498788034952,0.011653401409102928
0.799,-0.0157,-0.092,0.00818449694582268,1.1774164882117348,0.008870495256579328,0.011311999185794414
0.8,0.0021,-1.092,0.008458694600903958,1.1818551063187615,0.00953241676390027,0.011437477447039336
0.801,0.0,0.908,0.00862932809513912,1.199051835230439,0.009944331226371138,0.011923623267857217
0.802,0.0066,-1.092,0.008579007629082286,1.2034106569198895,0.009822856085631666,0.012046845710852048
0.803,-0.0032,0.908,0.008574511026662847,1.199051835230439,0.009812001150163981,0.011923623267857217
0.804,0.0023,-3.092,0.008571762836815185,1.1994453363147635,0.00980536693600256,0.011934747412955637
0.805,0.0038,-0.092,0.00950836919231119,1.195072051881542,0.0120663632614909,0.01181111611299284
0.806,-0.0006,1.908,0.010072261182334728,1.1994453363147632,0.013427615734244343,0.01193474741295563
0.807,0.0059,0.908,0.01014319411609857,1.1954668629561054,0.013598850001079122,0.011822277291080683
0.808,0.0121,0.908,0.010145520603525908,1.183052376712455,0.013604466212728383,0.011471323883839759
0.809,0.0045,-2.092,0.009974061656769794,1.1826534212554562,0.013190559082680802,0.011460045545435487
0.81,-0.0002,-0.092,0.010011204899986921,1.1870724579511194,0.013280224005343183,0.011584970246677866
0.811,0.0006,-0.092,0.01004085084925957,1.1745692512768195,0.013351790231621431,0.011231508742298066
0.812,-0.007,0.908,0.010040004182142383,1.1786182674751449,0.013349746351361984,0.011345973086845772
0.8130000000000001,0.005999999999999801,-0.092,0.010032082868322842,1.1786182674751449,0.013330624058059225,0.011345973086845772
0.8140000000000001,0.004199999999997624,-1.092,0.010048367498074338,1.17941877333779,0.013369935651253115,0.011368603121991639
0.8150000000000001,-0.017199999999999036,-2.092,0.010028793151512142,1.17941877333779,0.013322682581282731,0.011368603121991639
0.8160000000000001,-0.008500000000000278,-0.092,0.010016321320508488,1.1798188225907273,0.013292575200624993,0.011379912381644194
0.8170000000000001,-0.010999999999999233,-0.092,0.010018334531691096,1.1842484366712276,0.01329743515385892,0.011505136102046563
0.8180000000000001,-0.004099999999999756,-0.092,0.010028248042528241,1.1842484366712276,0.013321366671559977,0.011505136102046563
0.8190000000000001,-0.001899999999999345,-0.092,0.010112956314409184,1.1842484366712276,0.01352585502500474,0.011505136102046563
0.8200000000000001,0.0040000000000002,-0.092,0.010209336183375047,1.1842484366712276,0.013758518970005905,0.011505136102046563
0.8210000000000001,0.005799999999999844,-0.092,0.010200794702949259,1.1668335564768917,0.013737899575589442,0.011012823216845963
0.8220000000000001,0.004399999999999523,0.908,0.010284195319010628,1.1668335564768917,0.013939231207978759,0.011012823216845963
0.8230000000000001,9.999999999960033e-05,1.908,0.010274710430924278,1.1627435031593993,0.013916334398678818,0.010897198766554664
0.8240000000000001,-0.003499999999999023,0.908,0.010291585538081802,1.1627435031593991,0.013957071422351027,0.010897198766554657
0.8250000000000001,0.005300000000000122,-1.092,0.010123319239051432,1.1970448050833975,0.013550871441346509,0.011866885191491013
0.8260000000000001,0.00639999999999879,-1.092,0.009650511959373784,1.1970448050833975,0.012409500239088146,0.011866885191491013
0.8270000000000001,-0.004499999999999523,-1.092,0.009635682652422525,1.1926627183568193,0.01237370183954752,0.011743005053615436
0.8280000000000001,-0.0002000000000003997,-1.092,0.009623954813535932,1.192662718356819,0.012345390478565494,0.011743005053615429
0.8290000000000001,-0.003799999999999034,-0.092,0.009573113416968024,1.2261273061946014,0.012222657795674548,0.012689037848938704
0.8300000000000001,0.0048999999999998775,-2.092,0.009557599021429029,1.2384910482578817,0.012185205571375618,0.013038556735036424
0.8310000000000001,0.003799999999999711,-0.092,0.009567760395538484,1.2268968145168297,0.012209735438580312,0.012710791593901321
0.8320000000000001,0.0011999999999997223,0.908,0.009547504634472976,1.2230076447391571,0.012160837413203547,0.012600846054631763
0.833,-0.0013,0.908,0.009568280018777069,1.2230076447391571,0.0122109898249361,0.012600846054631763
0.834,-0.0035,2.908,0.00957174567417991,1.2230076447391571,0.012219356022843311,0.012600846054631763
0.835,-0.0013,0.908,0.009584723220332965,1.2556637728023283,0.012250684215305101,0.013524023960356837
0.836,-0.005,-0.092,0.009516854745627999,1.259826740447691,0.012086847646159504,0.013641709674505583
0.837,-0.0115,-0.092,0.009430878353627927,1.2556637728023303,0.011879298012046718,0.013524023960356894
0.838,0.0022,-0.092,0.009539846856141052,1.2556637728023303,0.012142351302610462,0.013524023960356894
0.839,0.0004,0.908,0.009572113329015454,1.2187189148739725,0.012220243552836395,0.01247960508425393
0.84,-0.0015,-0.092,0.009603431097085289,1.2226217272127582,0.012295845600711558,0.012589936294199836
0.841,0.0065,-1.092,0.009822587819303957,1.2230076447391685,0.012824896616364838,0.012600846054632084
0.842,0.014,-0.092,0.009794755111216118,1.1606736905552228,0.012757707609643155,0.010838685850955156
0.843,-0.0009,-0.092,0.009805315884269816,1.1733249806972512,0.012783201638088094,0.011196333625836642
0.844,0.0089,-1.092,0.009812999122789896,1.160673690555221,0.012801749210352379,0.010838685850955106
0.845,0.007,-0.092,0.009792675338035912,1.156561853757054,0.01275268697371569,0.010722445588892432
0.846,-0.0043,-0.092,0.009771336457772693,1.143725153690706,0.012701174265541055,0.010359556336965572
0.847,-0.0148,-1.092,0.009823438403421626,1.1478829738113345,0.012826949952382989,0.010477096532297923
0.848,-0.0138,-1.092,0.009820387579509765,1.1482940097395358,0.012819585170354815,0.010488716381615042
0.849,-0.0225,-1.092,0.009771121513475605,1.1482940097395358,0.012700655383448221,0.010488716381615042
0.85,-0.0171,-2.092,0.009670116551697158,1.1528447590298432,0.012456826323249053,0.010617364554208529
0.851,-0.0124,-1.092,0.009701883734854335,1.1528447590298432,0.012533513272860296,0.010617364554208529
0.852,-0.0023,-0.092,0.009727223506160648,1.1663904814765964,0.012594684254112018,0.011000297633590641
0.853,0.01,-1.092,0.009712421817791826,1.179380625963511,0.012558952526672258,0.011367524708377267
0.854,0.043,-0.092,0.009770162715038902,1.1797806881517539,0.012698340814761441,0.011378834333706622
0.855,0.0349,-1.092,0.0098087180693605,1.144550064287413,0.012791414616724773,0.01038287628584638
0.856,0.0121,-0.092,0.009812760997729044,1.1614865640301482,0.01280117436918839,0.010861665514396865
0.857,0.0022,0.908,0.009834182300828413,1.1487048985885957,0.01285288604860487,0.010500332073053634
0.858,-0.0065,0.908,0.009885849061759827,1.1487048985885937,0.01297761118625776,0.010500332073053576
0.859,-0.0145,-1.092,0.009857447782203883,1.1445500642874071,0.012909049630660425,0.010382876285846217
0.86,-0.0077,0.908,0.009851765114894702,1.1265216546620642,0.012895331498352612,0.009873219127187291
0.861,-0.0012,0.908,0.009863346907200907,1.1307427350214012,0.012923290298432536,0.009992547668479505
0.862,0.0005,1.908,0.009872183615207203,1.1353638352627582,0.01294462238123809,0.01012318463911819
0.863,0.0059,-2.092,0.009854482016375584,1.1491156405163008,0.01290189018144177,0.010511943611074269
0.864,-0.0021,-0.092,0.009850479619007754,1.153663148799542,0.0128922282720508,0.01064050016147329
0.865,-0.0098,-1.092,0.00985090937178604,1.1882266080743296,0.012893265708372762,0.011617597687738129
0.866,0.0024,-1.092,0.00970099434882638,1.1753342360864614,0.012531366267846561,0.011253134609060668
0.867,-0.0056,0.908,0.00970930949223833,1.1753342360864611,0.01255143927780427,0.011253134609060663
0.868,-0.0132,-1.092,0.009945927955583288,1.1918333588548256,0.013122643469433239,0.011719559335658223
0.869,-0.0143,-1.092,0.01017837604072808,1.1918333588548256,0.013683780240815542,0.011719559335658223
0.87,-0.0082,-0.092,0.010449277124076554,1.1958239208429888,0.014337743723368832,0.011832371199078533
0.871,-0.0136,-0.092,0.010601118449095755,1.2001944656092927,0.014704293315853588,0.011955925049566534
0.872,-0.0045,-0.092,0.010585337760276379,1.2041573193151711,0.014666198251449087,0.012067953609039683
0.873,-0.0081,-0.092,0.010705480659503459,1.2045491525454872,0.014956226876700182,0.012079030604458642
0.874,0.0085,-3.092,0.01075285956462138,1.1882266080743205,0.015070600999562662,0.01161759768773787
0.875,0.0153,-0.092,0.011009290255045911,1.184210444876535,0.01568963251199059,0.011504062086615485
0.876,0.0088,-0.092,0.011292549940443096,1.1797806881517445,0.016373430037048865,0.011378834333706359
0.877,-0.0051,-0.092,0.01141388150438026,1.1753342360864536,0.016666328135185735,0.01125313460906045
0.878,0.0003,-3.092,0.011450314398053453,1.1753342360864538,0.016754278252370632,0.011253134609060455
0.879,0.005,-2.092,0.011474939161863968,1.1708708984760239,0.016813723183706924,0.011126957535655737
0.88,0.0064,-1.092,0.01148090710129907,1.1749326598912702,0.016828129971632633,0.011241782183257202
0.881,0.0028,-0.092,0.011474750094720402,1.1614865640301426,0.01681326676985241,0.010861665514396709
0.882,0.0064,-0.092,0.011479045453230408,1.1659858249744817,0.01682363589638117,0.010988858128532427
0.883,-0.0038,-1.092,0.011498069973330778,1.166390481476583,0.016869561668493124,0.011000297633590264
0.884,0.0052,-3.092,0.011499084573348792,1.1622988690083336,0.016872010943900135,0.010884629106624352
0.885,-0.0035,-1.092,0.011498783098731917,1.123545449794836,0.01687128317497461,0.009789082803033323
0.886,0.002,-0.092,0.011506896953511548,1.119297227448347,0.016890870268030985,0.009668986966769466
0.887,0.015,-0.092,0.01150966885443736,1.1235454497948358,0.016897561721458672,0.009789082803033318
0.888,0.0095,-0.092,0.011460809221195169,1.1281960305609822,0.01677961307571539,0.009920553178326774
0.889,0.011,0.9079999999995559,0.0114587643399362,1.1453743807750392,0.016774676669950625,0.010406179439460593
0.89,0.0215,-1.092,0.011460844004922678,1.1453743807750392,0.01677969704469513,0.010406179439460593
0.891,0.0012,0.9080000000002221,0.011459840583751248,1.1495262356801292,0.01677727475536492,0.010523551000128806
0.892,-0.0075,1.908,0.011447200828712253,1.144962296714635,0.016746762000961174,0.010394529959793843
0.893,-0.0049,0.907999999999778,0.011384158704109531,1.144962296714635,0.016594576388252784,0.010394529959793843
0.894,0.002,-0.092,0.011388915718100037,1.144962296714635,0.016606059965200256,0.010394529959793843
0.895,-0.0045,0.908,0.011356580816806756,1.1449622967146347,0.016528002526682854,0.010394529959793836
0.896,-0.0103,0.908,0.011350520697757029,1.1495262356801292,0.016513373214354306,0.010523551000128806
0.897,0.0024,-1.091999999999778,0.01137399055397921,1.1671993736096162,0.016570030163526928,0.011023164745817608
0.898,-0.0056,-0.092,0.011296858295683894,1.180180614725372,0.016383830538082393,0.011390140125255528
0.899,-0.0071,-1.092,0.011214651764160768,1.1930206154934764,0.016185381462209426,0.011753122686925943
0.9,-0.0081,-1.092,0.010988656078053955,1.1926249946042051,0.015639820979018896,0.011741938615644987
0.901,-0.007,-2.092,0.010856400790621501,1.1753342360864538,0.015320552678994577,0.011253134609060455
0.902,-0.0038,-2.092,0.010789663743856493,1.1753342360864538,0.01515944741142492,0.011253134609060455
0.903,0.0111,-1.091999999999556,0.010801616319385268,1.1753342360864538,0.015188301293519677,0.011253134609060455
0.904,0.009,0.908,0.010758022303632545,1.1708708984760239,0.01508306400909191,0.011126957535655737
0.905,-0.0047,1.9079999999997779,0.009864736018307346,1.2365480332047545,0.012926643655036327,0.012983628344136303
0.906,-0.0065,0.908,0.009306592028406288,1.2361663428458136,0.011579267029995824,0.012972838084325929
0.907,0.0117,0.907999999999778,0.009227822848934945,1.2403947487810767,0.011389115826876855,0.013092373717219101
0.908,0.0095,-0.092,0.009236618210743468,1.2365480332047545,0.011410348098699181,0.012983628344136303
0.909,0.003,-0.09199999999977795,0.009213619628403415,1.2369296057821153,0.01135482881906034,0.012994415274300487
0.91,0.0048,0.908,0.009104954328033118,1.2369296057821153,0.011092507467722492,0.012994415274300487
0.911,-0.0042,-1.0920000000002221,0.009189188711545587,1.2330720803258728,0.011295851840183651,0.012885364309498836
0.912,0.0038,-2.092,0.009215135323500467,1.2334547281991861,0.011358487753280553,0.012896181637922836
0.913,0.0053,-1.0920000000004442,0.009275964228680367,1.2175197648312246,0.011505330586759299,0.012445705510398367
0.914,0.0043,-3.092,0.009513188863980353,1.200587592188478,0.012077998095986836,0.011967038607528924
0.915,-0.0018,-1.091999999999778,0.009512971622390896,1.2005875921884783,0.012077473668160116,0.01196703860752893
0.916,-0.0094,-0.092,0.009473441764979466,1.2001944656092924,0.011982047385998076,0.011955925049566527
0.917,-0.0242,1.9079999999995558,0.009632291592656805,1.1958239208429888,0.012365515717784823,0.011832371199078533
0.918,-0.022,-0.092,0.009727362789413416,1.1918333588548253,0.012595020488134842,0.011719559335658216
0.919,-0.0237,0.908,0.009637883350359512,1.2045491525454872,0.01237901439152823,0.012079030604458642
0.92,-0.0183,-1.092,0.0096217017884141,1.2001944656092924,0.012339951607163646,0.011955925049566527
0.921,-0.0001,0.908,0.009589599337362427,1.2001944656092924,0.012262455310623397,0.011955925049566527
0.922,0.0166,-1.092,0.009521104350264332,1.2045491525454872,0.012097106321440903,0.012079030604458642
0.923,0.0101,-0.092,0.009720125657915694,1.2084977266338466,0.012577549831836805,0.012190655483882203
0.924,0.0239,-0.092,0.0099237321921799,1.2124334413320588,0.013069062219207905,0.012301916832612782
0.925,0.0257,-0.092,0.009888838314462937,1.1785800941906948,0.01298482733350898,0.011344893940759467
0.926,0.0178,-0.092,0.009818882484457352,1.1830143465070164,0.01281595182496585,0.011470248782549637
0.927,0.0102,-1.092,0.009783768004759615,1.1830143465070162,0.012731184399353012,0.011470248782549632
0.928,-0.0075,-0.092,0.009805711657906759,1.1830143465070162,0.01278415704772588,0.011470248782549632
0.929,-0.0053,0.908,0.009806792637649914,1.1606736905552058,0.01278676656581516,0.010838685850954674
0.93,-0.0031,0.908,0.009799624864490231,1.1474717906459249,0.012769463342661828,0.010465472520633772
0.931,-0.0049,-1.092,0.00979050457628515,1.1428996476984707,0.012747446688602117,0.010336219556450716
0.932,-0.0067,-1.092,0.009786622421374416,1.1428996476984707,0.012738075048172133,0.010336219556450716
0.933,-0.002,-0.092,0.009766908866804772,1.1598602473882516,0.012690485925823421,0.010815690082508319
0.934,-0.0034,-0.092,0.009808695387929502,1.1930583267368076,0.012791359863058155,0.011754188771263113
0.935,-0.0045,-0.092,0.009896192549098787,1.1709093230910965,0.013002580680356205,0.011128043786775356
0.936,-0.0056,0.908,0.009975233728421845,1.1664290536859812,0.013193388499418097,0.011001388057152495
0.937,-0.0045,-1.092,0.009996530197575253,1.1664290536859812,0.013244798825879346,0.011001388057152495
0.9380000000000001,0.0002999999999997224,1.908,0.009935243711188568,1.1709093230910965,0.013096851377402977,0.011128043786775356
0.9390000000000001,-0.002199999999999756,0.908,0.009890190209584232,1.1749709516761566,0.012988090849588876,0.011242864679311527
0.9400000000000001,-3.9968028886505597e-16,0.908,0.009835303097354385,1.1749709516761604,0.012855591685622995,0.011242864679311635
0.9410000000000001,-0.0035999999999988008,-0.092,0.009743441428163836,1.1749709516761604,0.012633834812765707,0.011242864679311635
0.9420000000000001,0.007199999999998823,-0.092,0.010073020012280259,1.1749709516761586,0.0134294475728908,0.011242864679311584
0.9430000000000001,-0.0033999999999998775,-0.092,0.010118551147213141,1.158231647176216,0.01353936112213641,0.010769650094849587
0.9440000000000001,-0.0023000000000004,-1.092,0.010116244903720041,1.1582316471762177,0.013533793779962206,0.010769650094849635
0.9450000000000001,-0.005899999999998401,-1.092,0.010116729137055396,1.162337576998033,0.01353496273401157,0.010885723368650655
0.9460000000000001,0.008499999999999801,-2.092,0.010106727671476414,1.162337576998033,0.013510818890879519,0.010885723368650655
0.9470000000000001,0.00669999999999899,-2.092,0.01007074708871428,1.162337576998033,0.013423960666037524,0.010885723368650655
0.9480000000000001,-0.002399999999999478,-2.092,0.010122704143972342,1.162337576998035,0.013549386583054136,0.010885723368650712
0.9490000000000001,0.0022999999999995225,0.908,0.010147249404648341,1.1668335564769037,0.01360863959139743,0.011012823216846303
0.9500000000000001,-0.0020000000000001223,-0.092,0.010344283218047208,1.162337576998035,0.014084285230013528,0.010885723368650712
0.9510000000000001,-0.003099999999999034,-1.092,0.010398015460131338,1.1578241391864252,0.014213996502203357,0.010758129979180837
0.9520000000000001,0.005599999999999644,-0.092,0.010412562494539517,1.1445893725104697,0.014249113487210606,0.010383987516270548
0.9530000000000001,0.002399999999999478,-0.092,0.010422753806688929,1.1311997728275205,0.014273715625757404,0.010005467975622906
0.9540000000000001,-0.002300000000001088,3.908,0.010483154728783573,1.1311997728275247,0.014419525295007167,0.010005467975623026
0.9550000000000001,-0.012099999999998667,0.908,0.01046659758857742,1.1450015907856514,0.014379555853259271,0.010395640790144529
0.9560000000000001,-9.99999999994782e-05,-1.092,0.010456672535473608,1.1278175624361564,0.014355596472174234,0.009909854010005763
0.9570000000000001,0.004599999999999512,-0.092,0.010441200745107381,1.1278175624361564,0.014318247098062589,0.009909854010005763
0.9580000000000001,0.00019999999999960032,-1.092,0.010375711979156708,1.1235854928568247,0.014160155218473726,0.009790214807110292
0.9590000000000001,-0.003400000000001243,-1.092,0.01033339533466142,1.1235854928568247,0.014058001547244181,0.009790214807110292
0.96,-0.0146,-0.092,0.010330459413592974,1.1235854928568247,0.014050914144186612,0.009790214807110292
0.961,-0.007,-1.092,0.010322131090825172,1.119337422485816,0.014030809318861666,0.009670123267142837
0.962,-0.0106,-0.092,0.010369734772614986,1.114649882141612,0.014145726059469822,0.009537608056840109
0.963,-0.0219,-0.092,0.010524625472954468,1.1004674656261677,0.014519636937038472,0.009136675847377885
0.964,-0.002,-0.092,0.010517126045939441,1.1004674656261637,0.014501533091356936,0.009136675847377772
0.965,-0.0046,0.908,0.01057688346449306,1.0626104744572031,0.014645789323420247,0.008066471267189713
0.966,0.0176,-0.092,0.010577646095178646,1.0576715533696133,0.014647630337169187,0.00792684960667434
0.967,0.0147,-0.092,0.01053572979502456,1.0576715533696133,0.014546443109396998,0.00792684960667434
0.968,0.0012,-2.092,0.010254212995515526,1.0436191932051577,0.013866852964062051,0.00752959404710459
0.969,0.0132,-0.092,0.010020556972634936,1.0481741815210406,0.013302800194121727,0.007658362055544674
0.97,-0.0024,-0.092,0.009745414666027742,1.0436191932051557,0.012638598269188383,0.0075295940471045335
0.971,0.0074,-1.092,0.009696688886375563,1.0431669133884698,0.012520972750096332,0.007516808246743812
0.972,0.0201,0.908,0.009698383422304465,1.0431669133884698,0.012525063411542492,0.007516808246743812
0.973,0.0216,0.908,0.009663692655661327,1.043166913388472,0.012441318842174316,0.007516808246743875
0.974,0.0017,-1.092,0.00965993498246536,1.0626104744572136,0.012432247704402707,0.008066471267190008
0.975,0.0098,-1.092,0.009375691598790991,1.067526545826876,0.011746075501682841,0.008205446973760628
0.976,0.0029,-0.092,0.009024572737344012,1.0724200817142215,0.010898463854716331,0.008343785609722957
0.977,-0.0083,-0.092,0.008901549020212115,1.0772913892177982,0.010601480847126307,0.00848149585665105
0.978,0.0015,1.908,0.008853476045408029,1.0772913892177982,0.010485431218859828,0.00848149585665105
0.979,0.0033,-1.092,0.008847552203758475,1.082140768523985,0.010471130884334207,0.00861858620071425
0.98,0.0048,-0.092,0.008926488165904658,1.082140768523985,0.010661684705920106,0.00861858620071425
0.981,0.0004,-0.092,0.009025375396847507,1.0821407685239868,0.010900401499253302,0.0086185862007143
0.982,0.0015,1.908,0.00902744743395366,1.0952684264804935,0.010905403460061917,0.008989700735662203
0.983,-0.0098,2.908,0.009030511628151413,1.0948374832856658,0.010912800518368265,0.00897751811452237
0.984,-0.0141,1.908,0.009045713797518125,1.1133790576641198,0.010949499019158798,0.009501682270494406
0.985,-0.013,-0.092,0.009040217882681693,1.1180719259796816,0.010936231713019507,0.009634348100779714
0.986,-0.0068,-0.092,0.0090315674194583,1.1180719259796816,0.010915349230803695,0.009634348100779714
0.987,-0.0101,-1.092,0.009014736864605837,1.1138028269324831,0.010874719757755547,0.00951366208711325
0.988,0.0008,0.908,0.009026967719283708,1.1138028269324831,0.010904245414208735,0.00951366208711325
0.989,-0.0035,0.908,0.009035855076241503,1.096129804594576,0.01092569976512891,0.00901405160916006
0.99,0.0168,-1.092,0.009057336307437961,1.1095173017585924,0.010977556112800647,0.009392511712295045
0.991,0.0256,0.908,0.00925276875579961,1.1095173017585904,0.011449336007346496,0.00939251171229499
0.992,0.0122,-0.092,0.009246732719238456,1.1095173017585904,0.011434764830880309,0.00939251171229499
0.993,-0.0044,0.908,0.009219591148312542,1.1095173017585904,0.011369244250359614,0.00939251171229499
0.994,-0.0022,0.908,0.009213681684766072,1.1142264350303932,0.011354978625013626,0.009525637347496854
0.995,-0.0004,0.908,0.00921559909614623,1.1142264350303932,0.011359607314600822,0.009525637347496854
0.996,-0.0058,0.908,0.009209017670356649,1.1142264350303934,0.011343719551893046,0.009525637347496861
0.997,-0.0105,-1.092,0.00917439206488798,1.0956992001835115,0.011260132283588627,0.009001878565324811
0.998,-0.009,-1.092,0.009150916157463555,1.0817045953789373,0.011203460726629116,0.008606255730616883
0.999,-0.0213,-0.092,0.009147750242946638,1.0675265458268635,0.011195818112368009,0.008205446973760275
1.0,-0.0133,-0.092,0.009192235539594744,1.0630544819828898,0.011303206976077309,0.008079023212628458
1.0010000000000001,-0.008899999999996692,-1.092,0.009227577712278804,1.06305448198289,0.01138852405950786,0.008079023212628463
1.002,0.006,-1.092,0.009226923858440253,1.0581176333683482,0.011386945636387305,0.007939460140238556
1.0030000000000001,0.015799999999998003,-1.092,0.009210109678509472,1.0630544819828898,0.011346355692899828,0.008079023212628458
1.004,0.0068,-2.092,0.0092251714887276,1.0821407685239768,0.011382715362422205,0.008618586200714018
1.0050000000000001,-0.0011999999999990228,-0.092,0.009289822231604484,1.0265768732125815,0.011538784228736177,0.007047813315200048
1.006,0.0032,0.908,0.009229879447712646,1.021925624609637,0.011394080519089437,0.006916324060381885
1.0070000000000001,-0.0004000000000002443,-0.092,0.009567264837085863,1.0214637394425923,0.01220853914535225,0.006903266719953373
1.008,-0.0015,-0.092,0.009660960729750838,1.0404058629968844,0.012434723889653571,0.007438754268232508
1.0090000000000001,0.0017000000000001554,-0.092,0.009661019391094152,1.0399521856895821,0.012434865499926557,0.007425928961275721
1.01,0.0024,-0.092,0.009668524257712122,1.0394983103799578,0.012452982476975603,0.007413098056858982
1.0110000000000001,0.010800000000001688,-0.092,0.009564624118454768,1.0581176333683482,0.012202164369987424,0.007939460140238556
1.012,0.0184,0.908,0.00957332233522539,1.0531576427231384,0.01222316213072359,0.0077992428503197075
1.0130000000000001,0.0034999999999965584,-1.092,0.009514682028287242,1.0531576427231384,0.012081602640192004,0.0077992428503197075
1.014,-0.012,0.907999999999778,0.009274074116810114,1.0581176333683482,0.011500767799022135,0.007939460140238556
1.0150000000000001,-0.0021999999999996003,-0.092,0.009281464471606007,1.0630544819828898,0.01151860834103802,0.008079023212628458
1.016,-0.0004,-0.09199999999977795,0.009276643613445865,1.06305448198289,0.01150697064231665,0.008079023212628463
1.0170000000000001,0.001099999999999023,0.908,0.009118700762362663,1.0675265458268635,0.01112569177970723,0.008205446973760275
1.018,-0.0033,0.907999999999778,0.009053085416758174,1.0719799533695384,0.010967294332971101,0.008331343327444151
1.0190000000000001,-0.004300000000002487,-0.092,0.009064591479514895,1.0572252851542707,0.01099507031960746,0.007914233752289074
1.02,-0.0155,0.908,0.008994843335651018,1.0621662813271777,0.010826696171748572,0.008053914074777891
1.0210000000000001,-0.0018000000000027976,0.908,0.00900101506941168,1.0621662813271777,0.010841594925395572,0.008053914074777891
1.022,-0.0144,-1.0920000000002221,0.008974497178912548,1.0572252851542707,0.010777579928458583,0.007914233752289074
1.0230000000000001,-0.009699999999999046,-2.092,0.008752686605246997,1.0527094609570131,0.010242122434422383,0.007786572900488689
1.024,-0.0054,-1.092,0.008490833025395042,1.0531576427231384,0.009609999901421095,0.0077992428503197075
1.025,0.0037,-1.092,0.008500994871864695,1.0531576427231384,0.009634530908917723,0.0077992428503197075
1.026,0.0098,-1.092,0.008454867066891612,1.0481741815210301,0.009523176979985913,0.007658362055544379
1.027,0.0043,-1.092,0.008527620747377894,1.0481741815210301,0.00969880658497415,0.007658362055544379
1.028,0.0068,-1.091999999999556,0.008488509073858183,1.0481741815210301,0.009604389811488845,0.007658362055544379
1.029,0.013,0.908,0.00849408716054256,1.0293750172046308,0.009617855482976789,0.007126915917489585
1.03,0.0137,0.9080000000002221,0.008488709098431902,1.0242758517246013,0.009604872676914145,0.006982764201165687
1.031,0.0053,1.908,0.00848058827433194,1.0431669133884591,0.009585268759705801,0.007516808246743511
1.032,-0.0071,0.9079999999993339,0.00848266719644706,1.0481741815210301,0.009590287341136174,0.007658362055544379
1.033,-0.0056,-2.092,0.008486733179864848,1.029375017204631,0.009600102749192261,0.007126915917489591
1.034,-0.0013,-1.091999999999778,0.008433424419815665,0.9902306485272947,0.009471413775558601,0.006020317602264702
1.035,0.0022,-0.092,0.008329961522266453,0.9752069743914176,0.009221651183397605,0.005595603318984539
1.036,0.0011,-0.09200000000022204,0.008242911930550585,0.9752069743914176,0.009011510812419013,0.005595603318984539
1.037,-0.0065,-1.092,0.00823741853868042,0.9800799647389934,0.008998249596797287,0.005733361139354155
1.038,-0.004,-0.09199999999955591,0.008178932412433221,0.9795983493478508,0.008857062303158934,0.005719746032036476
1.039,-0.0066,1.908,0.008186549910331289,0.9800799647389934,0.008875451175555412,0.005733361139354155
1.04,-0.0189,0.907999999999778,0.008233788550810146,0.9959781393883178,0.008989486695298601,0.00618279726200848
1.041,0.0014,-0.092,0.008139508826301833,0.9959781393883178,0.008761892563110099,0.00618279726200848
1.042,-0.0012,-0.09200000000022204,0.007832028020994806,0.9911833128933778,0.00801962451541015,0.0060472491078197455
1.043,0.0009,-1.092,0.0077400553604503085,0.9964518379616588,0.007797599706037199,0.006196188563513545
1.044,0.003,-1.092,0.007865710506615239,0.9969253114526286,0.008100935063618829,0.006209573502014652
1.045,0.0048,-1.092,0.008025397980890529,1.012559032092228,0.008486425499856301,0.006651533597554364
1.046,0.0029,-0.092,0.00807106053444044,1.013024977337332,0.008596656297654047,0.006664705715042563
1.047,0.0013,-1.092,0.008074817924716858,1.0083112170000779,0.00860572675244923,0.006531449274235548
1.048,-0.0002,-1.092,0.008018213943470421,1.0078430924952682,0.008469083014281951,0.006518215549798504
1.049,-0.0093,-0.092,0.008027603691639624,1.0026344266339298,0.008491750152918422,0.006370968294024939
1.05,-0.0083,-0.092,0.007783963996263929,1.0073747504542057,0.007903596492893536,0.006504975675683768
1.051,-0.0029,-0.092,0.007679203591562864,1.0120928723362284,0.007650701678870688,0.006638355415914319
1.052,-0.0004,-1.092,0.007631979303733351,1.0116264977727918,0.00753670080686103,0.0066251711617393
1.053,0.0058,-2.092,0.007660172528448664,1.0256570840877646,0.0076047601117236715,0.007021811181808281
1.054,0.0112,-2.092,0.007632555862385473,1.0251968800682447,0.007538092637042651,0.00700880136686253
1.055,0.006,-0.092,0.007644155264794854,1.0097588454898694,0.007566093948449066,0.006572373251349077
1.056,0.0252,0.908,0.0076934896099077055,1.0289164761083776,0.0076851885631353594,0.0071139531128328595
1.057,0.0142,1.908,0.007694940655514829,1.029375017204631,0.007688691431513917,0.007126915917489591
1.058,0.0004,0.908,0.007715057698499418,1.0344490473986192,0.00773725458720995,0.007270357067616468
1.059,-0.0051,0.908,0.007724902504918186,1.0394983103799578,0.007761020250348323,0.007413098056858982
1.06,-0.0037,1.908,0.007782710234777706,1.0445231653255294,0.007900569874403544,0.007555149039028439
1.061,-0.0081,-0.092,0.007860943775834043,1.0445231653255294,0.008089428030042095,0.007555149039028439
1.062,0.0009,-0.092,0.008020250560326835,1.0490742286810721,0.008473999469526738,0.00768380609014193
1.063,-0.0053,-1.092,0.007810779294001148,1.0490742286810721,0.007968329439979532,0.00768380609014193
1.064,-0.0042,-1.092,0.00792265083131866,1.0440712770993703,0.008238390745155784,0.007542374308801992
1.065,-0.0035,0.908,0.007840284929814548,1.0440712770993723,0.00803955694528507,0.007542374308802048
1.066,-0.0043,0.908,0.007857251368921472,1.0440712770993723,0.008080514447070399,0.007542374308802048
1.067,-0.0098,0.908,0.007860754888733595,1.0440712770993723,0.008088972050817161,0.007542374308802048
1.068,-0.0047,0.908,0.007862107373202412,1.0440712770993725,0.00809223698959996,0.007542374308802054
1.069,-0.0069,-1.092,0.007873762194022351,1.0394983103799618,0.008120372082740721,0.007413098056859095
1.07,-0.0041,-0.092,0.00788888224665654,1.0394983103799618,0.008156872351232908,0.007413098056859095
1.071,-0.0026,-0.092,0.0077435440606552506,1.0394983103799618,0.007806021534799964,0.007413098056859095
1.072,0.0032,-0.092,0.007809414097390666,1.0394983103799618,0.007965033813698803,0.007413098056859095
1.073,0.0038,-1.092,0.007677036637656862,1.034449047398621,0.007645470586010575,0.007270357067616518
1.074,0.0045,-1.092,0.007661668159248132,1.014465879379963,0.007608370610117198,0.0067054395377265565
1.075,0.0042,-0.092,0.007657037682355974,1.0092913924171183,0.007597192497586791,0.006559158508073563
1.076,0.0115,-0.092,0.007676454985343479,1.0092913924171185,0.007644066459575222,0.006559158508073569
1.077,-0.0016,-0.092,0.007656645922913958,1.0092913924171185,0.007596246778338063,0.006559158508073569
1.078,-0.0034,-0.092,0.007656275532086607,1.0092913924171185,0.007595352643577264,0.006559158508073569
1.079,0.0013,-0.092,0.007646821621958315,1.009291392417123,0.007572530616013459,0.006559158508073695
1.08,-0.003,1.908,0.0076007631534030845,1.009758845489876,0.007461344067310351,0.0065723732513492655
1.081,-0.0019,-1.092,0.007527220851249423,1.0495239628138788,0.007283810705549929,0.007696519924863989
1.082,-0.003,-0.092,0.007547187953471928,1.035816714181219,0.0073320118996704035,0.007309020553797307
1.083,0.0025,0.908,0.007563952563214357,1.0312071426226965,0.00737248217921042,0.007178709495197382
1.084,0.0051,0.908,0.007585550536305521,1.0163248818056114,0.007424620345378699,0.006757992919521485
1.085,-0.005,-0.092,0.007607192731749469,1.0158604501305493,0.007476865265656176,0.006744863590156201
1.086,-0.0061,0.908,0.00841247495492617,1.0599000759487052,0.009420841127980303,0.007989849200608053
1.087,-0.0025,0.908,0.008720111696797844,1.0643853932562184,0.010163485611306176,0.008116647632756912
1.088,-0.0036,-1.092,0.008701192663277764,1.0639419411506637,0.01011781448701828,0.00810411138886102
1.089,0.0095,-2.092,0.008692070478107747,1.082140768523989,0.010095793253627321,0.008618586200714363
1.09,0.0113,-1.092,0.00872803645215632,1.0688518885974398,0.010182616212588954,0.008242913974163438
1.091,0.0128,-0.092,0.008521926469295652,1.0643853932562184,0.009685060423905833,0.008116647632756912
1.092,0.0023,-1.092,0.008544680630709102,1.069293304475468,0.009739989663968628,0.008255392654582732
1.093,0.0147,-1.092,0.008586821664211548,1.069293304475468,0.009841719404902164,0.008255392654582732
1.094,0.0161,-2.092,0.008610062500294616,1.0825767659336771,0.009897823492469739,0.008630911702831418
1.095,0.0086,-1.092,0.00861167264549,1.0777293484546773,0.009901710432109752,0.0084938768189719
1.096,-0.0063,-0.092,0.008599897397479921,1.0728600295013637,0.0098732846240568,0.008356222787699985
1.097,-0.0044,0.908,0.0086182420710347,1.0728600295013637,0.009917569225860163,0.008356222787699985
1.098,-0.0098,-0.092,0.008683667957516121,1.0724200817142127,0.010075509312491297,0.008343785609722706
1.099,-0.0083,0.908,0.008693393287828413,1.0856652867285064,0.01009898655666247,0.008718223160994592
1.1,-0.0039,0.908,0.008648588939017985,1.10350591460559,0.0099908274912965,0.00922257179193229
1.101,0.0027,0.908,0.008608528469009736,1.10350591460559,0.009894120294132523,0.00922257179193229
1.102,0.0089,1.908,0.00862674293667618,1.1082405917436802,0.009938090574947826,0.009356419543759176
1.103,0.0144,0.908,0.008644907397390055,1.1210626620897486,0.009981940137453514,0.009718895218347571
1.104,0.008,0.908,0.0086417064446888,1.1026502986414146,0.009974212939946119,0.009198383812500542
1.105,0.0088,1.908,0.008622460359416056,1.088311519849612,0.009927752302746338,0.008793031293363406
1.106,-0.0035,-1.092,0.008667765502277429,1.088311519849612,0.010037120300234504,0.008793031293363406
1.107,0.0056,-1.092,0.008296232772685893,1.1026502986414148,0.0091402289525773,0.009198383812500549
1.108,0.0042,-1.092,0.00818284416608931,1.0847955993327747,0.008866505395863498,0.008693637386861358
1.109,-0.0096,-1.092,0.008191650390916703,1.099180244176715,0.008887763891344895,0.009100286524075027
1.11,-0.0113,-0.092,0.0082209367285056,1.0996094854202245,0.008958462004043948,0.009112421031615772
1.111,-0.0192,0.908,0.00825059986756092,1.0817045953789246,0.009030069726982162,0.008606255730616526
1.112,-0.0025,0.908,0.008272669680429823,1.0996094854202245,0.009083346928773496,0.009112421031615772
1.113,-0.0137,-0.092,0.008363387813744294,1.1172274652855516,0.009302343271127543,0.009610475477131066
1.114,-0.0038,0.908,0.008347673811465004,1.1125310348792532,0.00926440919006595,0.009477708947722463
1.115,-0.0056,-0.092,0.008342353527737531,1.1253042196281293,0.009251565862783591,0.009838802642697451
1.116,0.0024,-0.092,0.008335246290787428,1.1383486641156952,0.009234408775887626,0.01020756476048689
1.117,-0.0018,0.908,0.008363217373311813,1.1383486641156952,0.00930193182272204,0.01020756476048689
1.118,-0.0054,-0.092,0.00831916744180848,1.1341558917154486,0.009195593943758676,0.01008903647580617
1.119,-0.0065,-0.092,0.0083238664719962,1.1341558917154486,0.009206937546036678,0.01008903647580617
1.12,0.0037,0.908,0.008308290638606962,1.1295298495807837,0.009169337008892301,0.00995825979948329
1.121,0.0103,0.908,0.008298367081238826,1.1295298495807837,0.009145381238558833,0.00995825979948329
1.122,0.0017,-0.092,0.008305293514028287,1.1295298495807837,0.009162101858693235,0.00995825979948329
1.123,-0.0084,-0.092,0.008299499865330937,1.1295298495807835,0.009148115813927458,0.009958259799483284
1.124,-0.0047,-0.092,0.008304277587423326,1.124884783200089,0.009159649380864845,0.009826945314036993
1.125,0.0066,-1.092,0.008298796392846206,1.124465190318206,0.009146417609880768,0.009815083562478306
1.1260000000000001,0.008099999999997269,-1.092,0.008317893253979294,1.124465190318206,0.009192518015453403,0.009815083562478306
