time_sec,bts_raw,diy_raw,bts_rms,diy_rms,bts_norm_rms,diy_norm_rms
0.0,-0.0036,1.674,0.005316434065027987,1.0854194880729422,0.005935062202940772,0.03142967081887429
0.001,0.001,1.674,0.0053232276570823285,1.0839050337354823,0.005970026733520341,0.031300428212870296
0.002,0.0034,-1.326,0.0053527226258608465,1.0761670247171393,0.006121828273788115,0.03064007126048413
0.003,0.0108,0.674,0.0053717012035463165,1.0637503368862997,0.006219505180869442,0.029580438722544875
0.004,0.0041,1.674,0.005400931460448037,1.0622049878880742,0.006369944330455375,0.029448559585104974
0.005,-0.0003,-0.326,0.005409320717068078,1.0700439679578087,0.006413121256194365,0.03011753334520202
0.006,-0.0024,0.674,0.005418130703462444,1.0575553921663225,0.0064584635487882425,0.029051765932711283
0.007,-0.0091,1.674,0.005436880965276025,1.0638856713186982,0.0065549653842402154,0.02959198808015349
0.008,-0.0065,-2.326,0.005502747017463161,1.062340519186679,0.006893957713692929,0.029460125743155128
0.009000000000000001,-0.018499999999999957,-2.326,0.005596274171613382,1.0607931163871724,0.0073753132344760415,0.02932807133557125
0.01,0.0053,0.674,0.005661794040414846,1.0592434530564707,0.00771252386442757,0.029195824015639082
0.011,0.0084,-0.326,0.005749227559643317,1.0528852637898505,0.00816251731889024,0.028653220036133915
0.012,-0.0003,-0.326,0.0057824385525992675,1.0528852637898505,0.008333444093635883,0.028653220036133915
0.013000000000000001,0.0021999999999999962,0.674,0.005856930235626228,1.0513239442600026,0.00871682989429716,0.028519977983302594
0.014,0.0,0.674,0.005995412529151871,1.0528852637898505,0.009429555702378616,0.028653220036133915
0.015,0.0021,0.674,0.006070391542226536,1.0528852637898505,0.00981544964103508,0.028653220036133915
0.016,-0.0036,0.674,0.006088647936736991,1.0417687055073257,0.00990940969324716,0.027704539757903483
0.017,-0.0054,-2.326,0.006090231000478041,1.0401907002290471,0.00991755723583444,0.02756987375351616
0.018000000000000002,0.005799999999999984,-0.326,0.006127948595472576,1.0386102974222722,0.010111678106358522,0.02743500314551473
0.019,0.0014,-1.326,0.006130067095283216,1.0401907002290467,0.010122581373852274,0.027569873753516123
0.02,0.0049,-0.326,0.006262043246234368,1.0337153276922144,0.010801822065491476,0.027017269425471113
0.021,0.0059,-0.326,0.006284528906112146,1.0223903539130288,0.01091754884686275,0.02605080309634842
0.022,0.0005,1.674,0.006383348171871657,1.0158015168512182,0.011426141239791465,0.025488515775205188
0.023,-0.0059,-0.326,0.006397892018727552,1.0091696623958044,0.011500993950120539,0.024922557376027273
0.024,-0.0119,1.674,0.006427015161069618,1.007540601945474,0.011650881813985076,0.024783534354513224
0.025,-0.011,-0.326,0.006427306039893326,1.007540601945474,0.011652378877901357,0.024783534354513224
0.026000000000000002,-0.001199999999999949,0.674,0.006468499710363695,0.9992113927993724,0.011864390040674294,0.024072724745159157
0.027,0.0135,-1.326,0.0065697298230845535,0.9992113927993721,0.012385390322040888,0.02407272474515913
0.028,0.0229,1.674,0.006574070302019105,1.000854010548728,0.0124077294332538,0.024212904738272187
0.029,0.0137,-1.326,0.006575378321707618,1.000854010548728,0.012414461408625867,0.024212904738272187
0.03,0.0089,-0.326,0.006575412329411542,1.000854010548728,0.012414636435827133,0.024212904738272187
0.031,0.0045,-1.326,0.006575593801483615,1.0008540105487276,0.012415570416814299,0.02421290473827215
0.032,-0.0045,-0.326,0.006575627808073125,1.0024939368210095,0.012415745438280014,0.024352855042379447
0.033,-0.0055,0.674,0.006600385658883116,1.0041311848032106,0.01254316648811729,0.024492576782850904
0.034,0.0089,-1.326,0.006630493070211955,0.995773457783302,0.012698120081983165,0.023779333475604895
0.035,0.0031,0.674,0.006643228194430129,0.9823411288156911,0.012763663852730547,0.02263302674483304
0.036000000000000004,-0.0022999999999999453,-2.326,0.006750943401460167,0.9891528736752772,0.013318040921586135,0.023214336880973407
0.037,0.0056,-0.326,0.006751005055609781,0.9891528736752772,0.013318358236547393,0.023214336880973407
0.038,-0.0049,-0.326,0.006769410816887974,1.0008540105487276,0.013413087033611442,0.02421290473827215
0.039,-0.0037,0.674,0.006831486824078374,0.9924686863387107,0.01373257316617651,0.02349730630371741
0.04,-0.0122,-0.326,0.006836775098604066,1.0008540105487276,0.013759790290032005,0.02421290473827215
0.041,-0.011,2.674,0.006838620312586957,0.9924686863387107,0.013769287039353218,0.02349730630371741
0.042,-0.0101,0.674,0.0068405187218256065,0.9924686863387107,0.013779057568308497,0.02349730630371741
0.043000000000000003,-0.005599999999999947,-1.326,0.006852863552763127,1.0174173502396373,0.013842592619480535,0.025626410007353388
0.044,0.002,-1.326,0.006861349770567704,1.0239957903750472,0.0138862685746394,0.026187810061162622
0.045,-0.0005,-0.326,0.006866705308041642,1.0239957903750472,0.013913831880219087,0.026187810061162622
0.046,0.0038,-0.326,0.006866895796639764,1.0174173502396375,0.01391481226649498,0.025626410007353405
0.047,0.0045,-0.326,0.006918221408254797,0.9924686863387108,0.014178969416714515,0.02349730630371742
0.048,0.0009,-0.326,0.006920861573805781,0.9924686863387108,0.014192557537461849,0.02349730630371742
0.049,0.0002,-0.326,0.006921204053724757,0.9924686863387108,0.014194320176358051,0.02349730630371742
0.05,-0.0027,-0.326,0.006926819192040694,0.9941224453226574,0.014223219567694132,0.023638437082969737
0.051000000000000004,0.005599999999999992,-0.326,0.006917767904569424,0.9823411288156911,0.01417663537261114,0.02263302674483304
0.052000000000000005,0.0045000000000000075,-0.326,0.006918679610918215,0.9687225647728347,0.014181327645013855,0.02147082682675356
0.053,0.0056,-0.326,0.006911325671645001,0.961766132364249,0.014143479179497846,0.020877169143759845
0.054,0.003,-1.326,0.006890812808647058,0.9600566391788937,0.01403790577741113,0.020731282041880003
0.055,-0.0031,-0.326,0.006886502560846326,0.9549097976443803,0.01401572225655372,0.02029205373624104
0.056,0.0045,-1.326,0.00689992561332028,0.9566284882694248,0.01408480658262785,0.02043872574199325
0.057,-0.0085,-0.326,0.0069262495116468046,0.9687225647728346,0.014220287597774037,0.021470826826753553
0.058,-0.0102,-0.326,0.006869848340451407,0.9549097976443803,0.013930008102153632,0.02029205373624104
0.059000000000000004,-0.00860000000000001,-0.326,0.006840004079888004,0.9265114179005344,0.013776408864409163,0.01786855339449979
0.06,-0.01,0.674,0.006624511285679292,0.8972146306001069,0.01266733367524286,0.01536838350188847
0.061,-0.0062,0.674,0.00676458119119792,0.895381902001304,0.013388230434366592,0.015211979565270208
0.062,0.0093,-0.326,0.006735305853119079,0.895381902001304,0.01323755926581582,0.015211979565270208
0.063,0.0128,0.674,0.006863595553007482,0.895381902001304,0.013897826926710377,0.015211979565270208
0.064,0.0095,-1.326,0.007035426066704071,0.8935454143467242,0.01478218577584206,0.015055254833133256
0.065,0.0047,0.674,0.007044689229112962,0.8917051444107773,0.014829860426118155,0.014898207323419965
0.066,-0.0014,-0.326,0.0070822962138077155,0.8917051444107773,0.015023412019420675,0.014898207323419965
0.067,-0.0068,-0.325999999999889,0.007075459904308386,0.8898610687277152,0.014988227635279157,0.01474083503357775
0.068,0.0016,0.674,0.007091439886237147,0.8898610687277152,0.015070471691492698,0.01474083503357775
0.069,-0.0128,0.674,0.007071621972120952,0.8898610687277152,0.014968474977737097,0.01474083503357775
0.07,0.0053,0.674,0.007070904212812515,0.8804192549965301,0.01496478089114964,0.013935076430073511
0.07100000000000001,-0.011199999999999785,0.674,0.007075325018627999,0.8804192549965301,0.014987533420133632,0.013935076430073511
0.07200000000000001,0.004300000000000025,0.673999999999889,0.00705092256816331,0.8804192549965302,0.014861941506656314,0.013935076430073521
0.073,0.0061,-0.326,0.007050857118593864,0.8651978841316117,0.01486160465783554,0.012636093959043838
0.074,0.0006,-0.326,0.007039300632404362,0.8804192549965302,0.014802126974817024,0.013935076430073521
0.075,-0.0073,-0.326,0.006991138027664935,0.8651978841316117,0.014554248848969407,0.012636093959043838
0.076,-0.0115,-0.325999999999889,0.006986485510475887,0.8670944133352674,0.014530303772752405,0.012797942600221258
0.077,-0.0024,0.673999999999889,0.0069892222227220255,0.8651978841316117,0.01454438878967014,0.012636093959043838
0.078,0.0013,-0.326,0.006879307069094747,0.8554839107997482,0.013978689271739397,0.011807109421834872
0.079,0.0002,-0.326,0.006487352196107735,0.8497038853877216,0.011961417991282126,0.011313845591726567
0.08,-0.0005,-0.325999999999889,0.0063505115592867156,0.8398107142531607,0.011257141285765382,0.010469568423740997
0.081,0.0002,0.674,0.00631158391259674,0.8398107142531607,0.011056792651023247,0.010469568423740997
0.082,0.0057,0.674,0.006295841419557125,0.8317768460574215,0.01097577087713994,0.009783963030281983
0.083,0.0063,-0.326,0.006282433077317491,0.8317768460574215,0.010906762260121288,0.009783963030281983
0.084,0.0041,-0.326,0.006275950048737184,0.8456583616145738,0.010873396104303979,0.010968603069611524
0.085,0.012,-1.326,0.006214197479480704,0.835717301185071,0.01055557460738978,0.010120239058513633
0.08600000000000001,-0.0003000000000000652,0.674,0.006206784836648153,0.833749401540202,0.010517424012693927,0.009952299707576332
0.08700000000000001,-0.005000000000000058,1.674,0.006269130316484266,0.8114329346902669,0.010838297038155425,0.008047826088830694
0.088,-0.0092,-0.326,0.00624396584088692,0.821667855382359,0.010708783215496618,0.008921267954835565
0.089,-0.0027,-1.326,0.0062352674867980394,0.821667855382359,0.010664015460073591,0.008921267954835565
0.09,-0.0016,-0.326,0.006261507082951927,0.8297996015338991,0.010799062597843934,0.009615226193121367
0.091,0.0016,-0.326,0.006145629869325762,0.8297996015338991,0.010202678189286727,0.009615226193121367
0.092,0.0041,-2.326,0.006103137413395651,0.7886676694546253,0.009983982576879453,0.006105052290604984
0.093,0.0034,-1.326,0.006039814319384709,0.8032944888236219,0.009658078071688617,0.007353296100959429
0.094,0.0027,-0.326,0.006013933538436068,0.7928224130950245,0.009524877645512951,0.006459615569326436
0.095,0.0005,0.674,0.006160562999982372,0.7843073788819312,0.010279534423708114,0.005732947762518126
0.096,0.0084,0.674,0.0064529806052946335,0.7948916414438081,0.011784517976026553,0.006636202249821977
0.097,0.0019,-0.326,0.006670274182708883,0.8053368107232015,0.012902861242956951,0.007527586601552143
0.098,-0.0007,-0.326,0.006659737124266565,0.8073739664103813,0.012848630241275048,0.007701436220741428
0.099,-0.0028,0.674,0.00665939409391782,0.8094059948929493,0.012846864769485974,0.007874848287428038
0.1,-0.0006,0.674,0.006676554644999292,0.8114329346902668,0.012935184852330363,0.008047826088830683
0.101,0.0015,-0.326,0.006679239791713434,0.8134548238417869,0.012949004477301407,0.008220372871213006
0.10200000000000001,0.0012000000000001137,0.674,0.006669576131576292,0.813454823841787,0.012899268588294096,0.008220372871213017
0.10300000000000001,0.009399999999999915,-0.326,0.0066546805685437135,0.8154716999153842,0.01282260570288877,0.008392491840594417
0.10400000000000001,0.003300000000000014,-1.326,0.006644981192526984,0.8256565571903808,0.012772685995224995,0.009261661325233381
0.105,0.0043,0.674,0.006639217643808853,0.8174836000154987,0.0127430227811565,0.008564186163445123
0.106,-0.0065,1.674,0.006633326538009054,0.8194905607911012,0.012712703069987957,0.008735458967365843
0.107,-0.0022,-0.326,0.006635268352284313,0.809228102673855,0.01272269699132796,0.007859667074356843
0.108,-0.0011,-0.326,0.0065934358376204885,0.8092281026738551,0.012507397893813135,0.007859667074356853
0.109,-0.0072,-0.326,0.006630994731246737,0.8194905607911013,0.01270070197716482,0.008735458967365852
0.11,-0.0147,-0.326,0.006578781062780001,0.8194905607911013,0.012431974271236403,0.008735458967365852
0.111,-0.0056,-0.326,0.006510821628979731,0.8194905607911012,0.012082207949933478,0.008735458967365843
0.112,0.0132,-0.326,0.0064814188559273005,0.8495344315750083,0.011930880912735406,0.011299384507089899
0.113,0.0156,-0.326,0.006424342917969247,0.8514658497925129,0.011637128599948731,0.011464210555349998
0.114,0.0036,-0.326,0.00630031090665715,0.8514658497925129,0.010998773953735325,0.011464210555349998
0.115,-0.0076,0.674,0.0062363748548159926,0.8415933913085939,0.010669714742959118,0.01062170099228984
0.116,-0.0018,-0.326,0.006219504796691127,0.8396392638287505,0.01058288973809162,0.010454936949484453
0.117,-0.0072,-2.326,0.006218777279005735,0.8396392638287505,0.0105791454281368,0.010454936949484453
0.11800000000000001,-0.0023999999999999803,-0.326,0.006183982701757503,0.8495344315750089,0.010400068431686659,0.011299384507089946
0.11900000000000001,-0.0009999999999999098,-0.326,0.006199636752655285,0.8475986122570398,0.010480635021044916,0.011134182871610585
0.12,0.0055,-0.326,0.006073285755180167,0.8475986122570398,0.009830345265693078,0.011134182871610585
0.121,-0.0007,-0.326,0.006097706768817229,0.8554839107997485,0.009956032718113992,0.0118071094218349
0.122,0.0004,-0.326,0.005999343710694978,0.8554839107997486,0.009449788285698067,0.01180710942183491
0.123,-0.0043,1.674,0.005985442047229849,0.8554839107997494,0.00937824069593327,0.011807109421834976
0.124,-0.0086,-0.326,0.0059750203723800905,0.8861614050354518,0.00932460353814399,0.0144251079990285
0.125,-0.0107,0.674,0.005988005719899314,0.8861614050354519,0.009391435131326287,0.01442510799902851
0.126,-0.0023,-0.326,0.006033589386415885,0.901028701894248,0.00962604025466881,0.01569387401114119
0.127,-0.0055,-0.326,0.0059741903412931525,0.9028499679175096,0.009320331623214584,0.015849299738580187
0.128,0.001,-1.326,0.005986437518024869,0.9028499679175105,0.009383364078199256,0.015849299738580264
0.129,0.0035,-0.326,0.006001808289465642,0.9120596042130338,0.009462472715246287,0.016635244461865054
0.13,-0.0055,-0.326,0.006008717926964289,0.9120596042130338,0.009498034496066022,0.016635244461865054
0.131,0.0007,0.674,0.006026963149637285,0.9120596042130342,0.00959193705026389,0.016635244461865088
0.132,0.0018,-0.326,0.006027950846329625,0.9120596042130342,0.009597020421612425,0.016635244461865088
0.133,-0.0047,1.674,0.006022367659119034,0.9193922099813601,0.009568285472796737,0.01726100454908424
0.134,0.0015,-0.326,0.006002470142739929,0.9211771700958632,0.009465879070656335,0.01741333195249641
0.135,-0.0007,-0.326,0.0059936366696640535,0.9229586781851269,0.00942041589933037,0.01756536476218799
0.136,0.0091,-1.326,0.005936313923593268,0.9156546333089043,0.009125393341033532,0.01694204204401584
0.137,-0.0,-1.326,0.005944924426665106,0.9426385196382667,0.009169708954269148,0.019244830383723443
0.138,0.0036,-0.326,0.0059775779188975765,0.9284377700433107,0.009337766444115384,0.018032947107044048
0.139,0.0068,-1.326,0.005915681883402628,0.9302053729012799,0.00901920657056009,0.01818379325280979
0.14,-0.0022,-0.326,0.006007240028290504,0.9229586781851269,0.009490428205761904,0.01756536476218799
0.14100000000000001,-0.008299999999999908,0.674,0.006082793220994227,0.9247367542001618,0.009879277270519224,0.017717104680766014
0.14200000000000002,-0.0049999999999998665,1.674,0.006710699423062983,0.9247367542001621,0.013110917532066056,0.01771710468076604
0.14300000000000002,-0.00019999999999961975,-0.326,0.0066993763885340955,0.9046675673970294,0.013052641353003198,0.01600441256542093
0.14400000000000002,0.013500000000000158,0.674,0.006819874898069768,0.8972146306001051,0.01367281015144616,0.015368383501888317
0.145,0.0192,-1.326,0.0072251424295595515,0.9064815223883311,0.01575859759413282,0.016159214373868323
0.146,0.0173,-1.326,0.0073634046485605755,0.904667567397027,0.016470190746266693,0.016004412565420734
0.147,0.0025,0.674,0.007400619620673205,0.9319696232741724,0.016661724771277562,0.018334353299551496
0.148,0.0006,0.674,0.007405117770178213,0.931969623274172,0.01668487536446321,0.018334353299551458
0.149,-0.0048,0.674,0.007405488466817078,0.9337305401652097,0.016686783226145464,0.018484628868992447
0.15,-0.0033,0.674,0.007407201681923873,0.9319696232741712,0.016695600617815696,0.018334353299551392
0.151,0.0043,-0.326,0.007423233749801117,0.9302053729012679,0.016778112744399658,0.018183793252808767
0.152,0.0007,0.674,0.007432947854067519,0.9302053729012675,0.016828108253838393,0.01818379325280873
0.153,0.0043,-1.326,0.007562886492181967,0.9302053729012676,0.017496862493050755,0.01818379325280874
0.154,-0.0012,0.674,0.007784673792448611,0.9319696232741677,0.01863833357054615,0.018334353299551086
0.155,0.0013,0.674,0.007834363173531094,0.9808143008964295,0.018894069545041133,0.022502728184933245
0.156,-0.0048,-0.326,0.007822587003706706,0.98763657636811,0.01883346121786436,0.02308493699706287
0.157,-0.0041,-0.326,0.007798702104398175,0.9740920496119932,0.01871053298114026,0.021929055375707843
0.158,-0.0124,-1.326,0.00782600636397169,0.9740920496119934,0.018851059614352003,0.021929055375707853
0.159,-0.0022,-0.326,0.00786902299014835,0.9740920496119921,0.019072452969936638,0.02192905537570775
0.16,-0.0033,0.674,0.007925789797569964,1.0093123153471948,0.0193646142828505,0.024934731291566238
0.161,0.0003,-2.326,0.007809238753045444,1.009312315347195,0.018764761873732976,0.024934731291566255
0.162,0.0036,0.674,0.007866665144770508,1.0175588469371695,0.019060317864361263,0.025638485248895955
0.163,0.0025,0.674,0.00775556321822476,1.030532237653403,0.018488510390923786,0.026745626470259052
0.164,0.0032,-0.326,0.007617510439178209,1.030532237653403,0.017777995161873044,0.026745626470259052
0.165,-0.0011,-0.326,0.0076089992791457915,1.030532237653403,0.01773419083673243,0.026745626470259052
0.166,0.001,-0.326,0.007592404506005368,1.030532237653403,0.017648782639082622,0.026745626470259052
0.167,0.0017,-1.326,0.007864571861578606,1.030532237653403,0.01904954437905489,0.026745626470259052
0.168,-0.0047,-0.326,0.007906980537209132,1.0174173502396078,0.01926780880000654,0.02562641000735087
0.169,0.0029,0.674,0.007955457447778003,1.030392522503639,0.01951730456136966,0.026733703264912353
0.17,0.0076,-1.326,0.007991912486445842,1.0432063248917922,0.0197049274424737,0.027827225316057674
0.171,-0.0025,0.674,0.00798008284165116,1.0447797754673722,0.019644043896058103,0.027961502624905106
0.17200000000000001,-0.0014000000000001,0.674,0.008157019205051859,1.0447797754673724,0.020554680984549177,0.027961502624905127
0.17300000000000001,-0.004999999999999972,-2.326,0.008276381108141273,1.0463508599686182,0.021169000018901325,0.028095578014417397
0.17400000000000002,-0.004000000000000178,-0.326,0.008287095308629937,1.0351641315393676,0.021224142716258627,0.027140909458823814
0.17500000000000002,-0.010399999999999927,1.674,0.008398019230666685,1.036749787632998,0.021795034055190465,0.02727622837910941
0.176,-0.0078,0.674,0.00869074164188477,1.0351641315393674,0.023301586349836926,0.027140909458823796
0.177,0.0045,0.674,0.009109222166483345,1.036749787632998,0.025455377007598114,0.02727622837910941
0.178,-0.0045,-1.326,0.009223645317197517,1.0383330222469476,0.026044277801192235,0.02741134065180147
0.179,-0.0029,-0.326,0.009223097437346058,1.0318459918763594,0.026041458031964552,0.026857741451360707
0.18,0.0047,-0.326,0.009394615520812461,1.0318459918763594,0.026924208898713727,0.026857741451360707
0.181,0.0011,0.674,0.009708935324690311,1.057419247549656,0.028541916336331834,0.029040147434473224
0.182,-0.0051,-1.326,0.009883577854289751,1.0808697591727874,0.02944074776716095,0.031041399739896804
0.183,-0.004,0.674,0.009964619224876976,1.088574339842174,0.02985784279692454,0.03169890393744801
0.184,0.0025,0.674,0.009953589209748205,1.0778259369821324,0.029801074698666927,0.030781641817586095
0.185,0.0087,0.674,0.009984634708290313,1.1023330098335005,0.029960856339137937,0.0328730604113965
0.186,0.0032,-2.326,0.009984445894093712,1.1023330098335005,0.029959884570492114,0.0328730604113965
0.187,-0.008,-0.326,0.009948221617021753,1.0962247718563067,0.029773449348407224,0.03235178712190984
0.188,-0.0033,0.674,0.009948244028580962,1.088574339842174,0.029773564693815226,0.03169890393744801
0.189,-0.0108,0.674,0.009972327881661898,1.100711033480474,0.02989751688446584,0.03273464194240945
0.19,-0.0097,0.674,0.009953830960684855,1.0930920007744391,0.029802318916445903,0.03208443835567791
0.191,-0.0284,-0.32600000000011103,0.009961542190819815,1.0930920007744391,0.029842006248229035,0.03208443835567791
0.192,0.0013,-1.325999999999778,0.009960715123669191,1.091588191226734,0.029837749587769,0.03195610416951481
0.193,0.0132,0.673999999999778,0.009958791974759181,1.087064280726495,0.02982785173132792,0.031570036416980016
0.194,0.024,-1.325999999999889,0.009974013537931268,1.0885743398421743,0.029906192439268894,0.03169890393744803
0.195,0.0142,-0.32600000000022206,0.009924911030948976,1.087064280726495,0.02965347692541658,0.031570036416980016
0.196,0.0112,-2.325999999999778,0.009753355168178783,1.0793489210458431,0.028770531620200678,0.0309116123452064
0.197,0.0032,-0.325999999999889,0.00960055241341448,1.0793489210458431,0.027984102798913897,0.0309116123452064
0.198,0.001,0.673999999999889,0.009620545449458576,1.0793489210458431,0.02808700081141606,0.0309116123452064
0.199,0.0032,-0.326,0.009638971920703447,1.0793489210458431,0.02818183619631427,0.0309116123452064
0.2,0.0049,-0.326,0.009662684732971338,1.0778259369821326,0.028303878753923893,0.030781641817586112
0.201,-0.0041,-0.325999999999889,0.0096582699335039,1.0840378519999125,0.028281157137767493,0.03131176284224491
0.202,0.014,0.674,0.009662171689206148,1.085552121042559,0.028301238275326834,0.03144098963530296
0.203,0.0207,0.673999999999556,0.009681855416147633,1.085552121042559,0.028402544368930974,0.03144098963530296
0.20400000000000001,0.009399999999999728,-3.325999999999778,0.009673396140212084,1.0793489210458431,0.028359007075292552,0.0309116123452064
0.20500000000000002,-0.00040000000000005,-1.325999999999889,0.009681302969053876,1.0793489210458431,0.028399701093510733,0.0309116123452064
0.20600000000000002,-0.0022000000000001307,-0.326,0.009717560267296385,1.0900823071191639,0.02858630626541278,0.03182759294168288
0.20700000000000002,-0.006900000000000039,-0.326,0.009925890624176275,1.091588191226734,0.029658518590720807,0.03195610416951481
0.20800000000000002,-0.0083000000000001,-0.32599999999966695,0.0099263075575816,1.091588191226734,0.02966066441883111,0.03195610416951481
0.209,-0.0119,2.673999999999667,0.009851648548756775,1.083905033735459,0.02927641744370876,0.031300428212868305
0.21,-0.0057,-0.32600000000011103,0.00985821729697577,1.0960934303333334,0.029310224772164068,0.03234057851674709
0.211,0.011,-1.326,0.009864850783861333,1.0960934303333334,0.029344365290641515,0.03234057851674709
0.212,-0.001,1.674,0.009911291964338789,1.0729756925551182,0.029583383774819942,0.03036772492752321
0.213,0.0056,-0.326,0.009992432742912147,1.0714436494201278,0.030000990426939315,0.030236981304305903
0.214,-0.0003,-0.326,0.010418926673964051,1.0714436494201278,0.03219602362513312,0.030236981304305903
0.215,-0.0057,0.674,0.010480744591993767,1.079215525718245,0.03251418145210097,0.030900228469614315
0.216,-0.0206,-0.326,0.010679015196680495,1.0869318322783146,0.03353461932431155,0.03155873334749776
0.217,-0.0109,1.674,0.01082937061839002,1.0945937443126927,0.03430845247445003,0.03221259622985923
0.218,-0.0091,1.674,0.010828812315707266,1.0884420751474595,0.03430557906211269,0.03168761654937403
0.219,-0.0077,1.674,0.010982309251735127,1.0960934303333336,0.03509558062103565,0.03234057851674711
0.22,-0.0034,0.674,0.011186774127556653,1.0945937443126927,0.03614789850322893,0.03221259622985923
0.221,0.0169,-0.326,0.011201962642797778,1.0869318322783146,0.03622606912362513,0.03155873334749776
0.222,0.014,0.674,0.011203456132737944,1.0854194880729204,0.03623375565738599,0.03142967081887243
0.223,0.006,0.674,0.011213256702620846,1.0839050337354592,0.03628419617878129,0.031300428212868325
0.224,-0.0161,0.674,0.011337846199907485,1.0605216409632139,0.03692542003398585,0.029304903789088937
0.225,-0.0248,-0.326,0.011353123116708743,1.0605216409632139,0.037004045630045564,0.029304903789088937
0.226,-0.0274,0.674,0.011585374382562278,1.0558646324965464,0.038199371522757986,0.028907477537582233
0.227,-0.0155,0.674,0.011594238055725289,1.079348921045843,0.03824499012465171,0.030911612345206382
0.228,0.0001,0.674,0.011599909124028083,1.0855521210425587,0.038274177370442426,0.03144098963530294
0.229,0.0182,-0.326,0.011595885785511042,1.0855521210425587,0.0382534704834987,0.03144098963530294
0.23,0.0251,-2.326,0.011592798641742102,1.0855521210425587,0.038237581903223454,0.03144098963530294
0.231,0.0185,-2.326,0.011648222093026104,1.1172642643055577,0.03852282937492091,0.03414728452706979
0.232,0.0128,-1.326,0.011665198509789388,1.1172642643055577,0.0386102017750155,0.03414728452706979
0.233,0.0001,0.674,0.011736831676414514,1.1097588833731646,0.038978875670201044,0.03350677991312277
0.234,0.008,-2.326,0.01193111647315489,1.1202009293680606,0.039978799813781794,0.03439789772566601
0.23500000000000001,0.00029999999999990006,-0.326,0.01208861305820121,1.1187335604269917,0.04078938633707925,0.03427267335856417
0.23600000000000002,-0.003299999999999903,0.674,0.012086488191558616,1.117264264305558,0.040778450301458005,0.03414728452706981
0.23700000000000002,0.00020000000000021094,-0.326,0.012121003900541216,1.0945937443126927,0.040956092048643346,0.03221259622985923
0.23800000000000002,0.007799999999999697,1.674,0.01211781128479809,1.102202396185504,0.04093966063652934,0.03286191392263867
0.23900000000000002,-0.003100000000000039,-0.326,0.012152031977731506,1.1082776891619894,0.04111578402677026,0.03338037570593394
0.24,-0.0045,-0.326,0.01211137170179938,1.1082776891619894,0.04090651808176933,0.03338037570593394
0.241,-0.0082,-0.326,0.012102363404065085,1.1187335604269917,0.04086015514165148,0.03427267335856417
0.242,-0.0046,-1.326,0.011770478747699967,1.1202009293680604,0.039152046806098344,0.03439789772566599
0.243,0.0055,0.674,0.011854961487144287,1.1127153567235808,0.03958685350380976,0.0337590835388828
0.244,0.0092,-0.326,0.011852497523498486,1.1112381032690857,0.03957417224012018,0.0336330156334565
0.245,0.0056,-0.326,0.011614650281597543,1.1036917436895555,0.03835004557837909,0.03298901392685009
0.246,-0.002,-1.326,0.011527801695972147,1.115663995543155,0.037903062597416756,0.034010718570577116
0.247,-0.0067,0.674,0.011486383394408788,1.0929602827850464,0.03768989532743909,0.0320731976231014
0.248,-0.006,0.674,0.011540456305436934,1.0929602827850469,0.03796819198347127,0.032073197623101436
0.249,-0.0083,-0.326,0.011540232357776525,1.0929602827850475,0.03796703939368401,0.03207319762310149
0.25,0.0015,-1.326,0.011541658414121298,1.1005802273410865,0.03797437886745226,0.03272347902655416
0.251,0.0051,0.674,0.011563313897771129,1.10207176705765,0.03808583298689795,0.032850766112839276
0.252,0.0062,0.674,0.011600236547866311,1.1035612908565549,0.038275862520317866,0.03297788116194555
0.253,-0.0015,0.674,0.011698316247368333,1.1035612908565549,0.0387806485929938,0.03297788116194555
0.254,-0.0041,0.674,0.011542756758995102,1.1035612908565575,0.03798003171098774,0.03297788116194577
0.255,-0.0085,1.674,0.011546744268554924,1.0540345793201764,0.038000554197299176,0.028751301919876494
0.256,-0.0208,0.674,0.011668090611421537,1.0476447777111724,0.03862508653335066,0.02820600016242549
0.257,-0.0042,-0.326,0.011712201166852117,1.0476447777111721,0.038852110006632176,0.028206000162425474
0.258,0.0024,-0.326,0.011939513595078707,1.0492115721802278,0.04002201721982225,0.02833970944321701
0.259,0.0042,1.674,0.012119300647084046,1.0507760304309959,0.040947325926522435,0.028473219352570134
0.26,-0.0049,0.674,0.012061254093749283,1.0169927420262634,0.04064857815466956,0.025590174202370863
0.261,-0.0096,0.674,0.012072486336243204,1.0299732633408134,0.04070638705502955,0.026697923944628908
0.262,0.0132,-0.326,0.012022197485383907,1.0218269257209551,0.04044756579381506,0.026002720479369783
0.263,0.0296,0.674,0.012023310612490627,1.021826925720955,0.040453294716960665,0.026002720479369766
0.264,0.0118,-1.326,0.012046848333613734,1.0234332460203508,0.04057443613425497,0.026139802870324674
0.265,0.0205,-1.326,0.012198676821721544,1.0234332460203508,0.041355850704460566,0.026139802870324674
0.266,0.018,-1.326,0.01218815522622201,1.0299732633408134,0.04130169928579328,0.026697923944628908
0.267,0.0013,0.674,0.012019369862587134,1.038055673008682,0.040433012888230736,0.027387671837602174
0.268,-0.0189,-1.326,0.012443771890880681,1.025177494096842,0.04261727970578542,0.026288655933336968
0.269,-0.0215,-0.326,0.01275891228183357,1.0121354694604143,0.044239210452905894,0.025175657535242462
0.27,-0.0096,-0.326,0.01277194244824437,1.007254773999913,0.044306272715149954,0.02475914197262402
0.271,-0.0031,-0.326,0.012781124706155392,1.0318459918763891,0.0443535309748381,0.026857741451363246
0.272,-0.0049,-0.326,0.01267471396242301,1.039913846441111,0.043805867577703744,0.02754624722074466
0.273,-0.0175,0.674,0.012597417621000863,1.0510500230490236,0.04340804706217596,0.028496601714853274
0.274,0.0071,-0.326,0.012666204043006524,1.0494859732363933,0.043762069637632066,0.028363126661360778
0.275,0.0253,-1.326,0.01267265205401104,1.0479195890375015,0.04379525556874795,0.028229452392773857
0.276,0.009,-2.326,0.012569068676977038,1.0479195890375015,0.04326214375913819,0.028229452392773857
0.277,-0.0058,-1.326,0.012299923219345976,1.0463508599686397,0.041876934799221374,0.028095578014419233
0.278,-0.0033,-1.326,0.012254332427814922,1.0447797754673935,0.04164229300561888,0.027961502624906927
0.279,-0.0011,-0.326,0.012333038194128286,1.0447797754673935,0.04204736739793442,0.027961502624906927
0.28,-0.0123,2.674,0.012199335611670555,1.0463508599686393,0.041359241293876796,0.028095578014419198
0.281,-0.0064,0.674,0.012009872385546117,1.022108678640071,0.04038413229254982,0.026026765100996906
0.28200000000000003,0.013900000000000438,-0.326,0.012167685193636969,0.9972773835526361,0.04119634631867966,0.023907677580050662
0.28300000000000003,0.02179999999999988,1.674,0.012183221427322793,0.9888617308183205,0.04127630653905412,0.023189490927799518
0.28400000000000003,0.01959999999999938,-0.326,0.012183410881354443,0.9888617308183205,0.041277281600734315,0.023189490927799518
0.28500000000000003,0.008399999999998995,-0.326,0.012174344835333552,0.9631736870737534,0.041230621447931846,0.02099728900095848
0.28600000000000003,-0.009699999999999879,0.674,0.012393174639636,0.9987790447669013,0.04235687120256123,0.024035828428753216
0.28700000000000003,-0.007500000000000122,-1.326,0.01249937696763846,1.010368706560579,0.04290346194798146,0.025024883070989642
0.28800000000000003,-0.009699999999999228,-1.326,0.01277487841195988,1.0234332460203357,0.044321383218149,0.026139802870323386
0.289,0.0042,0.674,0.013058838175471356,1.0119932144675219,0.04578283685787992,0.02516351758123808
0.29,-0.0085,1.674,0.013165255929578748,1.013615118799893,0.04633053633526012,0.025301929904026486
0.291,-0.0037,0.674,0.013248450422457992,1.0152344320358402,0.04675871282378936,0.02544012110423236
0.292,-0.0142,-0.326,0.013226964367033476,1.0152344320358402,0.04664813069935273,0.02544012110423236
0.293,-0.013,-0.326,0.013243866569235206,1.0331580755430028,0.04673512113990572,0.026969713868209327
0.294,-0.0043,-0.326,0.01346115927928268,1.0331580755430028,0.04785345994276589,0.026969713868209327
0.295,-0.001,1.674,0.013904048374189723,1.0412157634843546,0.050132874010959644,0.02765735202417639
0.296,0.0055,0.674,0.014137824797543826,1.0665643816786121,0.051336049420634626,0.029820587582351645
0.297,0.0116,-0.326,0.014411279493116488,1.0665643816786121,0.052743436703974245,0.029820587582351645
0.298,0.0007,0.674,0.014399791495887033,1.072841504791203,0.052684311512585895,0.03035627342590096
0.299,-0.0037,-1.326,0.014387346056126467,1.0790821139004323,0.052620258658719526,0.030888843186757414
0.3,0.0086,0.674,0.014366820923758829,1.0790821139004323,0.052514622109957464,0.030888843186757414
0.301,0.0101,0.674,0.014378597861013979,1.0790821139004323,0.052575234386864525,0.030888843186757414
0.302,0.0206,0.674,0.014370750487366047,1.077558752740848,0.05253484636625809,0.03075884047800611
0.303,0.0082,0.674,0.014392183360271309,1.0837721991939009,0.05264515477661152,0.03128909219441356
0.304,-0.0099,0.674,0.01439190434730224,1.0837721991939009,0.05264371878260259,0.03128909219441356
0.305,-0.0168,0.674,0.014537284808179505,1.0822554397249158,0.053391947338181915,0.03115965286989642
0.306,-0.0104,-0.326,0.014525343406743564,1.0822554397249158,0.05333048861467745,0.03115965286989642
0.307,-0.0242,0.674,0.01439427664261156,1.0884420751474757,0.052655928257534707,0.03168761654937541
0.308,-0.0224,0.674,0.014418779642631652,1.1127153567235943,0.05278203766867402,0.033759083538883954
0.309,-0.001,-0.326,0.014505150209064642,1.1202009293680764,0.053226560431752085,0.034397897725667356
0.31,0.0077,1.674,0.014534090957609035,1.1082776891620054,0.053375509570791034,0.03338037570593531
0.311,-0.0003,-0.326,0.014526203744440613,1.1067945127090488,0.05333491650841564,0.033253802335446385
0.312,0.0019,1.674,0.014499533483867526,1.1053093460346055,0.05319765287322623,0.03312705912067421
0.313,-0.0094,0.674,0.014485032999887987,1.106794512709049,0.053123023338296015,0.0332538023354464
0.314,-0.0192,-0.326,0.014187985550360913,1.106794512709049,0.05159421140059138,0.0332538023354464
0.315,-0.0026,-1.326,0.014144424465327475,1.0992176473721091,0.05137001588258738,0.032607197286178384
0.316,0.0039,-1.325999999999889,0.013996658266012013,1.0930920007744556,0.050609508664422806,0.03208443835567931
0.317,0.034,-0.326,0.013890356151130339,1.0869318322783308,0.05006240434660053,0.03155873334749914
0.318,0.0296,-0.32600000000011103,0.013892535867633338,1.0869318322783308,0.0500736226775975,0.03155873334749914
0.319,0.0096,-1.326000000000111,0.01376496757343024,1.080736551562293,0.04941706787007158,0.03103003188396744
0.32,0.0059,-2.325999999999889,0.01360265428448907,1.080736551562293,0.04858169125203822,0.03103003188396744
0.321,-0.0039,-1.325999999999667,0.013583381799530746,1.080736551562293,0.048482501694543524,0.03103003188396744
0.322,-0.001,1.6739999999997779,0.013688218452346735,1.080736551562293,0.04902206372946169,0.03103003188396744
0.323,-0.0145,-0.326,0.013956894015716115,1.080736551562293,0.050404854288015825,0.03103003188396744
0.324,-0.0166,-0.326,0.014006557898756256,1.0792155257182614,0.05066045903192263,0.030900228469615716
0.325,-0.0188,-0.326,0.014007467957926123,1.0792155257182614,0.05066514282680162,0.030900228469615716
0.326,-0.009,-0.326,0.013778175304484308,1.0792155257182614,0.04948504400296751,0.030900228469615716
0.327,0.0113,-0.325999999999889,0.013764451811725378,1.055728269842948,0.04941441340307427,0.02889584043220589
0.328,0.0139,0.674,0.013757836325235705,1.0493487816776708,0.049380365527102815,0.028351418817728607
0.329,0.0019,0.674,0.013815314042164541,1.0666993590871787,0.04967618567278228,0.029832106471765023
0.33,0.0131,0.674,0.013816072806354466,1.074505551286534,0.04968009079889363,0.03049828213507677
0.331,0.0269,0.673999999999889,0.01379414629723897,1.04149227119136,0.049567241794664416,0.027680949022613123
0.332,0.0142,-0.325999999999889,0.013782420212816797,1.0399138464410993,0.0495068912416612,0.02754624722074366
0.333,-0.0007,0.674,0.013713364002810932,1.0414922711913595,0.04915148015027601,0.027680949022613085
0.334,-0.0065,0.6740000000002221,0.013539037323152555,1.0286571173566568,0.04825427430203039,0.02658560485209067
0.335,-0.0232,2.673999999999889,0.013397311003914874,1.030252788406768,0.04752485249052362,0.02672177844263114
0.336,-0.0166,1.674,0.013373194831305144,1.0318459918763707,0.04740073396119035,0.02685774145136167
0.337,-0.0264,1.673999999999889,0.013341863891436847,1.0302527884067665,0.04723948324193179,0.02672177844263101
0.338,-0.0282,0.674,0.013398315124462887,1.0221086786400595,0.04753002039041011,0.02602676510099592
0.339,-0.017,0.674,0.0133670430640434,1.0269187795271686,0.04736907270558047,0.02643725616593933
0.34,-0.0155,0.674,0.013361473942154159,1.0253179198737112,0.0473404101466514,0.02630063978316579
0.341,-0.0032,-0.326,0.013399771163366929,1.0138991537045194,0.047537514175197054,0.025326169268900033
0.342,0.0081,-2.326,0.01344321514732791,1.0122777044622324,0.04776110700996718,0.025187795783220796
0.343,0.0247,0.674,0.013402637683854215,1.0122777044622324,0.04755226727524088,0.025187795783220796
0.34400000000000003,0.035999999999999456,-1.326,0.013348591907121343,1.0138991537045208,0.0472741102710879,0.025326169268900148
0.34500000000000003,0.0262000000000001,-2.326,0.01343041801726299,1.0269187795271693,0.04769524411418148,0.02643725616593939
0.34600000000000003,0.027999999999998634,-1.326,0.013445349635419759,1.0138991537045208,0.04777209256423099,0.025326169268900148
0.34700000000000003,0.0033999999999998,-1.326,0.01343599777823689,1.012277704462234,0.04772396142920984,0.025187795783220928
0.34800000000000003,-0.00019999999999981683,-1.326,0.013407792730455875,1.0462132572977458,0.04757879871591337,0.028083835086726038
0.34900000000000003,0.003100000000000161,-0.326,0.013446259842918898,1.0572830854019055,0.04777677712251516,0.029028527440143195
0.35000000000000003,0.005999999999999561,-1.326,0.013447416552693594,1.0493487816776594,0.04778273035225953,0.028351418817727642
0.35100000000000003,-0.0018999999999993395,-0.326,0.013444914284591849,1.0557282698429367,0.04776985194730647,0.028895840432204927
0.352,0.01,-1.326,0.013516865389359145,1.0792155257182408,0.04814016217240488,0.030900228469613954
0.353,-0.0012,0.674,0.013360622221993038,1.077692353141603,0.047336026604722393,0.03077024185441586
0.354,0.0209,-0.326,0.013340191805988468,1.083905033735455,0.04723087753197396,0.031300428212867965
0.355,0.0061,1.674,0.01333450040548326,1.1067945127090286,0.047201585642585676,0.03325380233544466
0.356,-0.0073,-1.326,0.013250716584624575,1.1053093460345853,0.04677037606405135,0.03312705912067248
0.357,-0.0094,-2.326,0.013224418858052681,1.1067945127090288,0.04663502974688346,0.03325380233544468
0.358,-0.016,-1.326,0.013038874060159283,1.1067945127090288,0.04568008769149791,0.03325380233544468
0.359,-0.0101,-0.326,0.012875253733123378,1.1128447364749448,0.04483798415005401,0.03377012472765741
0.36,-0.001,-0.326,0.0128793325821835,1.1128447364749448,0.04485897673270414,0.03377012472765741
0.361,0.0038,-0.326,0.01291673994357291,1.1023330098334965,0.045051500926199875,0.03287306041139616
0.362,0.0115,0.674,0.012932496684320003,1.103822181105267,0.045132596028655124,0.03300014537605262
0.363,0.005,0.674,0.012934771846441744,1.0932237028936829,0.04514430558892057,0.03209567773390562
0.364,0.004,-0.326,0.012903054159489422,1.103822181105267,0.044981064401270955,0.03300014537605262
0.365,0.0022,0.674,0.012809617794549435,1.1113676549947706,0.04450017614465269,0.033644071498414384
0.366,-0.0053,0.674,0.013048947993432229,1.1038221811052673,0.045731935130255044,0.03300014537605264
0.367,-0.0028,0.674,0.013315802661647579,1.096224771856304,0.047105354101026765,0.032351787121909614
0.368,-0.002,0.674,0.012902882230342007,1.1038221811052684,0.044980179534784386,0.03300014537605273
0.369,-0.0042,-0.326,0.012574857621269772,1.1038221811052682,0.043291937676424905,0.03300014537605272
0.37,-0.0063,-0.326,0.012538085761595846,1.0977222296021958,0.043102684214964125,0.032479579249194555
0.371,-0.0172,-0.326,0.012525720781169756,1.073109863539446,0.04303904546056651,0.030379174997185752
0.372,-0.0277,-0.326,0.012525720781169758,1.0652934441538027,0.04303904546056652,0.029712126552057305
0.373,-0.0211,-0.326,0.01253691632937843,1.0543077251095454,0.04309666550671677,0.028774612014320328
0.374,-0.0073,-0.326,0.012491326989317614,1.0543077251095454,0.04286203118338555,0.028774612014320328
0.375,-0.0019,-1.326,0.012385055632634066,1.0558646324965517,0.04231508516855681,0.028907477537582688
0.376,-0.0066,0.674,0.01224517392065854,1.0558646324965517,0.04159515698376607,0.028907477537582688
0.377,0.0039,0.674,0.012214674635402933,1.0808697591727927,0.04143818653522505,0.031041399739897262
0.378,0.013,-2.326,0.012168800298464297,1.08857433984218,0.04120208542054545,0.03169890393744852
0.379,0.0018,-1.325999999999778,0.012089965022000637,1.08857433984218,0.04079634447928581,0.03169890393744852
0.38,0.0095,-0.326,0.012134939281008979,1.0870642807265007,0.04102781316945919,0.03157003641698051
0.381,0.0029,-0.32599999999977797,0.01206404187918597,1.0932237028936926,0.04066292602960384,0.03209567773390645
0.382,0.0019,0.674,0.011770628007345572,1.0917200747614677,0.03915281499962561,0.03196735902962937
0.383,0.0008,-0.32599999999977797,0.011690989212136576,1.0932237028936937,0.03874293859431135,0.03209567773390655
0.384,-0.0017,0.674,0.011733379475038913,1.0917200747614682,0.03896110825060939,0.031967359029629404
0.385,-0.0025,0.673999999999778,0.011749856170185296,1.0917200747614668,0.03904590873711016,0.03196735902962929
0.386,-0.0032,-0.326,0.011658383837449566,1.0717123581940142,0.038575128750684695,0.03025991274656481
0.387,-0.0144,-0.3259999999995559,0.011629119430133195,1.0607931163871498,0.03842451383940925,0.029328071335569316
0.388,-0.0032,1.674,0.011346088223720519,1.0497603025657576,0.036967839197712966,0.02838653775838325
0.389,-0.0017,-0.32599999999977797,0.010990387733812562,1.0481943283149062,0.035137158085707304,0.028252898474511123
0.39,0.0132,0.674,0.010887807924084957,1.0481943283149062,0.034609211328619466,0.028252898474511123
0.391,0.0114,-0.326,0.01105676216015124,1.0466260110374306,0.03547876686069064,0.02811905923818129
0.392,0.0096,-0.326,0.011055489307818016,1.0466260110374306,0.03547221588088904,0.02811905923818129
0.393,0.0049,0.6740000000002221,0.0110419430863694,1.0207823925024133,0.035402497641953114,0.025913580653966727
0.394,0.0154,1.674,0.010795299251380674,1.019171894192308,0.03413309761885126,0.025776141714135673
0.395,0.0064,-0.326,0.010183001788223456,1.012562114526494,0.03098179073979421,0.025212067163987932
0.396,-0.0023,-0.326,0.0098916899263031,0.9874907921437069,0.029482498108910297,0.023072495860601984
0.397,-0.0077,2.673999999999778,0.009493953482796295,1.0059089032497883,0.02743547086170962,0.024644286186755696
0.398,-0.0102,1.674,0.009530521404225445,0.9992113927993512,0.027623674715696368,0.02407272474515735
0.399,-0.0041,-0.32600000000022206,0.009628630693833832,1.004131184803191,0.028128613079556487,0.024492576782849235
0.4,0.0082,-1.326,0.009741523684070637,1.0057657675749727,0.028709638607403918,0.02463207107589515
0.401,0.0172,-2.325999999999556,0.009857181399315875,1.005765767574973,0.02930489332524807,0.024632071075895167
0.402,0.0022,-0.326,0.009855376113390064,1.005765767574973,0.029295602073366445,0.024632071075895167
0.403,-0.0036,-1.326,0.009806667367616527,0.9974217373594221,0.02904491312744969,0.02391999664554782
0.404,-0.0091,-2.326,0.009812881889325477,0.9957734577832823,0.029076897360914386,0.02377933347560322
0.405,-0.0077,-0.326,0.009726540423312157,0.9957734577832824,0.028632524368753576,0.023779333475603227
0.406,-0.0062,0.674,0.009933747768848354,0.9908121670788229,0.029698956899785814,0.023355939964206124
0.40700000000000003,-0.00989999999999994,0.674,0.009963397372714056,1.0091696623957835,0.02985155429932675,0.024922557376025493
0.40800000000000003,-0.0087999999999997,-1.326,0.00994524498463893,0.9840119086140475,0.029758129536275314,0.02277561006996688
0.40900000000000003,-0.003400000000000505,-0.326,0.009815932942728341,1.0024939368209898,0.029092600195166286,0.02435285504237776
0.41000000000000003,-0.012499999999999662,0.674,0.009881379904157345,1.00249393682099,0.029429435593276772,0.024352855042377778
0.41100000000000003,-0.006399999999999817,0.674,0.009940950684111953,1.0041311848031913,0.029736028091135198,0.024492576782849256
0.41200000000000003,-0.0030999999999999665,0.674,0.010170281828816307,1.017275833860752,0.030916325017668916,0.025614333086216187
0.41300000000000003,-0.002499999999999234,1.674,0.010119943436255762,1.0156597753311265,0.030657248780542667,0.025476419640655272
0.41400000000000003,0.011300000000000759,-1.326,0.010150116872703525,1.022249525978294,0.03081254218540561,0.026038784926613563
0.41500000000000004,0.025000000000000102,-0.326,0.010150517005795799,1.022249525978294,0.030814601547467506,0.026038784926613563
0.41600000000000004,0.02679999999999899,-0.326,0.010275207359795195,1.0335760428213594,0.031456344481178566,0.027005382939863088
0.417,0.0086,-1.326,0.010307440496948166,1.0335760428213594,0.03162223853260904,0.027005382939863088
0.418,0.0064,-0.326,0.010308671443142525,1.0335760428213594,0.03162857383439198,0.027005382939863088
0.419,-0.0002,0.674,0.010319420369221101,1.0400522825471004,0.031683895253689115,0.027558061273278665
0.42,-0.002,-0.326,0.01046362685433005,1.0400522825471004,0.032426081716760875,0.027558061273278665
0.421,-0.0039,-0.326,0.010450875883996413,1.0400522825471004,0.03236045639092684,0.027558061273278665
0.422,-0.0054,0.674,0.010471281262471691,1.0416304975195605,0.03246547660320624,0.027692745172839067
0.423,-0.0098,-0.326,0.010222800008610321,1.05430772510955,0.031186619949820117,0.028774612014320727
0.424,-0.0033,0.674,0.010257001156746558,1.0558646324965564,0.031362642748996236,0.028907477537583087
0.425,0.0029,-0.326,0.01029537316479231,1.0558646324965564,0.03156013168238867,0.028907477537583087
0.426,-0.0025,-2.326,0.010339135267537124,1.0494859732363817,0.03178536177677879,0.028363126661359792
0.427,0.004,-1.326,0.01032702987575978,1.04791958903749,0.03172305904538265,0.028229452392772872
0.428,0.0015,0.674,0.01032366141865514,1.0463508599686284,0.03170572263181835,0.028095578014418268
0.429,0.0106,-0.326,0.01024227901924881,1.0463508599686284,0.031286872431523664,0.028095578014418268
0.43,-0.0006,-1.326,0.010413832382128545,1.038333022246961,0.03216980487057162,0.027411340651802608
0.431,-0.005,-0.326,0.010378451969874289,1.046350859968631,0.03198771276137716,0.028095578014418494
0.432,-0.0039,0.674,0.01038128254497439,1.0479195890374935,0.03200228086155945,0.028229452392773174
0.433,-0.01,-0.326,0.010380738116303573,1.0479195890374935,0.031999478854497956,0.028229452392773174
0.434,-0.009,0.674,0.010380546949609692,1.0479195890374942,0.03199849497827158,0.02822945239277323
0.435,-0.018,1.674,0.010430268914180557,1.0463508599686326,0.0322543986499681,0.02809557801441863
0.436,-0.0144,0.674,0.01054649754477539,1.046350859968634,0.032852591693669844,0.02809557801441874
0.437,-0.0068,0.674,0.010551325889595108,1.0479195890374955,0.0328774417006687,0.028229452392773344
0.438,-0.0003,-0.326,0.010469900013027304,1.047919589037497,0.03245836773678477,0.028229452392773476
0.439,0.008,0.674,0.010476455318514823,1.0351641315393851,0.032492105879632235,0.027140909458825312
0.44,0.0247,-0.326,0.010482309431696878,1.0432063248918102,0.03252223520116537,0.027827225316059207
0.441,0.0027,-0.326,0.010461990299930436,1.0416304975195683,0.03241765887419206,0.02769274517283973
0.442,-0.006,-0.326,0.010493226880324912,1.0432063248918102,0.03257842395423626,0.027827225316059207
0.443,-0.0085,-0.326,0.01049301686472775,1.0432063248918102,0.03257734306849711,0.027827225316059207
0.444,0.0035,0.674,0.010588141234281222,1.0543077251095563,0.03306691896612393,0.028774612014321257
0.445,0.0101,0.674,0.010482229121640776,1.0432063248918086,0.03252182186998653,0.027827225316059075
0.446,-0.0037,-2.326,0.010471075510165026,1.0432063248918086,0.032464417659313134,0.027827225316059075
0.447,0.009,0.674,0.010811440619750487,1.0511869925768966,0.03421617228148158,0.02850829061050868
0.448,0.0137,1.674,0.01092055237482113,1.0174173502396306,0.034777736953932,0.02562641000735282
0.449,0.0151,0.674,0.010878199535723634,1.005908903249801,0.03455975990645684,0.024644286186756775
0.45,0.0162,-1.326,0.010880290541138768,1.007540601945465,0.034570521668746176,0.024783534354512447
0.451,-0.0001,-0.326,0.010869998984749723,1.007540601945465,0.03451755419068776,0.024783534354512447
0.452,0.0021,-0.326,0.01073289222478936,0.9823411288156937,0.03381190783115454,0.022633026744833258
0.453,-0.0037,-0.326,0.01074743912820551,0.9840119086140702,0.033886776272659944,0.022775610069968814
0.454,-0.0164,-0.326,0.01074162054541387,0.9754818190134139,0.033856829815127505,0.022047657445602848
0.455,-0.0211,-1.326,0.010736892105894841,0.9564779778735738,0.033832493990009614,0.020425881276954373
0.456,-0.0106,-2.326,0.010711174564534708,0.958193855693374,0.03370013370783119,0.020572313239629048
0.457,0.0072,0.674,0.010707875526190468,0.9651760353560934,0.033683154571293755,0.02116816817752797
0.458,0.0003,-2.326,0.01075743409212422,0.9721080667101161,0.03393821728041873,0.021759743489463697
0.459,-0.0152,-0.326,0.01086478569371765,0.9634725923939368,0.0344907229838309,0.02102279739799193
0.46,0.0109,0.674,0.010862827848137614,0.9634725923939368,0.03448064655429177,0.02102279739799193
0.461,0.0218,1.674,0.010824317507083158,0.9634725923939383,0.03428244566341435,0.021022797397992062
0.462,0.0055,-0.326,0.0108062167394515,0.9754818190134094,0.03418928657492208,0.02204765744560246
0.463,-0.0093,-1.326,0.010810009064050448,0.9737964039234773,0.03420880450422177,0.021903825153645334
0.464,0.0041,-0.326,0.01082170297841219,0.9600566391788918,0.03426898948781005,0.02073128204187984
0.465,0.0161,1.674,0.010819395239170138,0.9513117750574113,0.034257112263117576,0.019985000691392526
0.466,0.0097,0.674,0.010673912655712024,0.9513117750574113,0.033508358113997695,0.019985000691392526
0.467,0.0032,0.674,0.010361763645966608,0.953036954317248,0.03190182308667716,0.020132226433265538
0.468,0.0051,-1.326,0.010362599519921828,0.9459651802033326,0.031906125073054056,0.019528725559751627
0.46900000000000003,0.017799999999998813,-0.326,0.010365660410263206,0.9477000923755017,0.03192187853500552,0.01967678190240455
0.47000000000000003,-0.0036000000000008213,-0.326,0.010366324622874243,0.9459651802033311,0.031925297033196784,0.019528725559751495
0.47100000000000003,-0.01839999999999986,0.674,0.010364597581548484,0.9477000923755001,0.03191640848222645,0.01967678190240442
0.47200000000000003,-0.01590000000000038,1.674,0.010392214850461212,0.9477000923755001,0.032058546078316895,0.01967678190240442
0.47300000000000003,-0.02269999999999938,0.674,0.01061535624208707,0.9459651802033311,0.033206986247915266,0.019528725559751495
0.47400000000000003,-0.0114999999999999,-0.326,0.010841645171745854,0.9737964039234758,0.03437162582850598,0.021903825153645202
0.47500000000000003,-0.0096999999999997,0.674,0.011132900843347551,1.0073976981098918,0.03587062926508749,0.02477133902867092
0.47600000000000003,-0.004299999999999922,-0.326,0.011143231173400712,1.0205002734051256,0.03592379629927966,0.025889504782918602
0.47700000000000004,-0.0028999999999999165,-0.326,0.011218246064117829,0.9939776123649677,0.03630987488913633,0.023626077127027804
0.47800000000000004,-0.001399999999998873,-2.326,0.011316191559255482,0.9871991591090369,0.03681397025319092,0.02304760807596212
0.47900000000000004,0.018899999999999178,-0.326,0.011623374765353607,0.9871991591090384,0.03839494781516926,0.023047608075962255
0.48,0.0041,-1.326,0.011695954478101197,1.0005662724719537,0.03876849329236608,0.02418834934695464
0.481,-0.0038,0.674,0.011703304010367944,0.9938327583005339,0.03880631907637411,0.02361371536984924
0.482,-0.0016,0.674,0.011871212170135302,0.9954842512077532,0.03967049077520217,0.023754652763500955
0.483,0.0005,-0.326,0.01198475920131162,0.9938327583005339,0.04025488245077335,0.02361371536984924
0.484,0.0103,-0.326,0.011957570584579006,0.9938327583005339,0.040114950995725776,0.02361371536984924
0.485,0.0158,0.674,0.011927053409096543,1.0005662724719537,0.03995788847168494,0.02418834934695464
0.486,0.0045,0.674,0.011840085058022596,0.9888617308183213,0.03951028909476378,0.023189490927799584
0.487,-0.006,-0.326,0.011823044489802304,0.9956288649964798,0.03942258652683421,0.023766994015697762
0.488,-0.0049,-0.326,0.011852949892740381,0.9939776123649692,0.0395765004455916,0.02362607712702793
0.489,-0.0039,-1.326,0.011853346345236443,1.0205002734051263,0.039578540864755866,0.02588950478291866
0.49,-0.0115,-0.326,0.01188386289741569,1.044779775467393,0.039735600180846604,0.02796150262490689
0.491,-0.014,0.674,0.01166866255947359,1.0463508599686389,0.03862803017421045,0.02809557801441916
0.492,-0.0096,-0.326,0.011723923419571479,1.0589715803646185,0.03891244083903852,0.02917262256655793
0.493,-0.015,1.674,0.011735839179189455,1.0605216409632343,0.03897376759198584,0.02930490378909068
0.494,-0.0038,0.674,0.011755848526972791,1.0620694392942325,0.03907674955599715,0.0294369919510899
0.495,0.0042,-0.326,0.011753237735389907,1.0683729723368791,0.03906331261403678,0.029974931601901914
0.496,0.027,-1.326,0.011719044323837732,1.0683729723368791,0.038887329632681315,0.029974931601901914
0.497,0.0172,-0.326,0.011715673189552077,1.0430683073906355,0.038869979440489054,0.02781544698700381
0.498,-0.0034,0.674,0.011681112728038076,1.054171161061703,0.038692107365777405,0.028762957722082504
0.499,0.0046,0.674,0.011610752537589815,1.0541711610617028,0.038329985087778615,0.028762957722082483
0.5,0.0067,-1.326,0.011512013469989493,1.0526117488812126,0.03782180545012972,0.028629878441277647
0.501,0.0002,0.674,0.011443638885855154,1.0462132572977618,0.0374699024776363,0.028083835086727404
0.502,0.006,0.674,0.011566128885524616,1.0588356178408527,0.03810032086379733,0.029161019608016543
0.503,0.0006,-0.326,0.011592454267533569,1.0713092697588533,0.03823580951500103,0.030225513426280486
0.504,0.0085,-1.325999999999556,0.011596475474701749,1.0713092697588533,0.03825650543254715,0.030225513426280486
0.505,-0.002,0.674,0.011482368229072634,1.0728415047912068,0.03766923050534571,0.030356273425901283
0.506,-0.0056,-1.326,0.01128884329094335,1.0650231158684185,0.03667321712052574,0.029689056901678643
0.507,-0.0143,-1.326,0.011263485908948524,1.0476447777111708,0.03654271046792076,0.02820600016242536
0.508,-0.0176,-0.326,0.01124291381723732,1.046075636526382,0.03643683223384833,0.02807209061434981
0.509,-0.0027,-0.326,0.011250755812956464,1.0218269257209442,0.03647719257590797,0.026002720479368857
0.51,0.0085,0.6740000000002221,0.01116040824618893,1.02343324602034,0.036012201414271416,0.026139802870323747
0.511,-0.0013,1.674,0.01115847060805306,1.021826925720944,0.036002228986237485,0.026002720479368836
0.512,0.0042,-0.326,0.011003599497603747,1.0087415825004382,0.03520515497386189,0.0248860252998289
0.513,0.0056,-0.326,0.011002615870457698,1.0087415825004382,0.03520009254721751,0.0248860252998289
0.514,-0.0111,-0.326,0.010980359335004531,1.0020630050692,0.03508554499884798,0.024316079590498123
0.515,-0.0177,-0.326,0.01106689457494467,1.0283771585685324,0.035530915285861886,0.026561713340503997
0.516,-0.0079,0.674,0.011058318940982232,1.0235739110935016,0.035486779133216795,0.02615180714155166
0.517,0.0087,0.674,0.011201287920316626,1.0301130353550625,0.03622259653436215,0.02670985200275595
0.518,-0.0069,0.673999999999778,0.01121988276632995,1.0366109104893662,0.0363182984924507,0.02726437668869299
0.519,-0.0012,-0.326,0.011211759064294178,1.0301130353550625,0.03627648829454993,0.02670985200275595
0.52,0.0006,0.673999999999778,0.011070012637214495,1.0301130353550625,0.03554696299415968,0.02670985200275595
0.521,0.0085,-0.326,0.011093721052680538,1.0381943568894054,0.03566898292278136,0.027399507035080296
0.522,0.0223,-0.3260000000004441,0.011062328231564363,1.0366109104893662,0.035507413719756575,0.02726437668869299
0.523,0.0241,-2.326,0.011123265419710484,1.0253179198737232,0.035821038700668766,0.026300639783166813
0.524,0.0255,2.673999999999778,0.011113174540803896,1.0318459918763805,0.0357691040479428,0.026857741451362507
0.525,0.0056,1.674,0.011258662255742844,1.0334367391779553,0.03651788460721759,0.026993494852217213
0.526,-0.0132,-0.32599999999977797,0.011284009878950667,1.0334367391779553,0.03664834103434482,0.026993494852217213
0.527,-0.0154,0.674,0.011295223817518112,1.035025041636278,0.03670605573002018,0.027129039611645533
0.528,-0.0266,0.6740000000002221,0.011385675135203407,1.035025041636278,0.037171580865746984,0.027129039611645533
0.529,-0.0168,1.674,0.011452282136361288,1.0171342977923774,0.03751438663185269,0.025602254484790036
0.53,-0.0042,0.674,0.011299557203069917,1.0253179198737232,0.03672835833377194,0.026300639783166813
0.531,0.0205,0.674,0.011327792628172576,1.0171342977923774,0.03687367738980773,0.025602254484790036
0.532,0.0169,-0.326,0.011327141375373525,1.0171342977923774,0.0368703255917861,0.025602254484790036
0.533,-0.0059,-0.326,0.01133461552335296,1.0171342977923774,0.036908792734571955,0.025602254484790036
0.534,0.0028,-1.326,0.011338984068782526,1.0171342977923774,0.03693127629540966,0.025602254484790036
0.535,0.0108,0.674,0.011351544306058973,1.018748017262859,0.0369959199768121,0.02573996831647559
0.536,0.0129,-1.326,0.01124234603519974,1.0171342977923774,0.03643391003418478,0.025602254484790036
0.537,0.0108,-0.326,0.011233290318591877,1.015518014027412,0.036387303043696854,0.025464321817783103
0.538,0.001,-2.326,0.011227110483204747,1.015518014027412,0.03635549733007119,0.025464321817783103
0.539,-0.0117,-2.326,0.011253223790314995,1.0171342977923774,0.03648989449694354,0.025602254484790036
0.54,-0.0102,0.674,0.01139263196331015,1.0088842959809645,0.03720738552212455,0.024898204380887266
0.541,-0.0117,1.674,0.011355470884126572,1.0088842959809645,0.03701612886745779,0.024898204380887266
0.542,-0.008,0.674,0.01126920553745282,1.0088842959809645,0.03657214763814566,0.024898204380887266
0.543,0.0109,0.674,0.011259630052104924,1.0088842959809645,0.0365228655576818,0.024898204380887266
0.544,-0.0025,-1.326,0.011200540545096291,1.0221086786400706,0.036218750023777356,0.026026765100996867
0.545,-0.0047,0.674,0.011216697849274445,1.0286571173566652,0.036301906703116005,0.026585604852091393
0.546,-0.0024,-0.326,0.01124972634313774,1.0414922711913668,0.03647189421111515,0.027680949022613713
0.547,-0.0006,1.674,0.010946274397228057,1.0334367391779553,0.0349101202986812,0.026993494852217213
0.548,0.0049,1.674,0.010969158789767577,1.0334367391779553,0.035027899234528787,0.026993494852217213
0.549,0.0002,-0.326,0.011562220793347249,1.0446419658496298,0.03808020711434781,0.02794974203649455
0.55,-0.0103,0.674,0.011635285195117995,1.0446419658496295,0.03845624713699807,0.027949742036494533
0.551,-0.0168,1.674,0.01161642247207962,1.0446419658496298,0.0383591664981823,0.02794974203649455
0.552,-0.0081,1.674,0.011621944705783859,1.0430683073906355,0.03838758773803228,0.02781544698700381
0.553,-0.0048,-0.326,0.01206672269942031,1.0414922711913668,0.04067672338751291,0.027680949022613713
0.554,-0.0023,0.674,0.012192972409089285,1.054171161061703,0.04132649184565307,0.028762957722082504
0.555,0.002,-0.326,0.01216773530643845,1.0462132572977674,0.041196604233868825,0.028083835086727876
0.556,0.0074,-1.326,0.012304292657462525,1.0446419658496353,0.04189942295444463,0.027949742036495025
0.557,-0.0024,-0.326,0.012308708754447232,1.0381943568894112,0.041922151248523686,0.02739950703508079
0.558,0.0042,0.674,0.012267048354391553,1.0317064546370958,0.041707737972004826,0.02684583342878719
0.559,0.0053,0.674,0.012140335523152702,1.0317064546370958,0.041055585969465395,0.02684583342878719
0.56,0.0107,-0.326,0.012170595730035632,1.0332974167543725,0.041211325955092915,0.026981605161882385
0.561,0.0115,-0.326,0.012141199267787112,1.033297416754371,0.0410600313976632,0.026981605161882253
0.562,0.0053,-0.326,0.012165472763461953,1.0219678118902975,0.041184959620466005,0.026014743618810402
0.5630000000000001,0.0061000000000009215,0.674,0.012241853650811414,1.0235739110935058,0.04157806857520787,0.02615180714155202
0.5640000000000001,0.014400000000000121,-2.326,0.012258411157047526,1.0251774940968368,0.041663284971553596,0.02628865593333653
0.5650000000000001,0.015500000000000532,-1.326,0.01223507464357041,1.025177494096837,0.041543179108180533,0.026288655933336548
0.5660000000000001,0.020299999999998545,-1.326,0.01219559301904705,1.0251774940968368,0.041339979319771694,0.02628865593333653
0.5670000000000001,0.0071999999999995115,-1.326,0.01234003587786328,1.0235739110935058,0.04208338232567533,0.02615180714155202
0.5680000000000001,0.002799999999999556,0.674,0.01239923823072635,1.0235739110935058,0.04238807864251414,0.02615180714155202
0.5690000000000001,-0.001200000000000766,-0.326,0.012398812588039538,1.021967811890299,0.04238588799040846,0.026014743618810534
0.5700000000000001,-0.00810000000000092,-1.326,0.012398493675239881,1.021967811890299,0.04238424664423304,0.026014743618810534
0.5710000000000001,-0.01640000000000037,-0.326,0.012406465035984606,1.0219678118903004,0.04242527278832446,0.02601474361881065
0.5720000000000001,-0.019700000000000276,0.674,0.012447300645737342,1.0235739110935087,0.0426354411226186,0.026151807141552266
0.5730000000000001,-0.02219999999999991,-1.326,0.012510195750846644,1.0251774940968383,0.04295914290045705,0.026288655933336662
0.5740000000000001,-0.02139999999999899,0.674,0.012815042640602887,1.0004223723992351,0.04452809616019205,0.02417606900284502
0.5750000000000001,-0.012299999999997901,0.674,0.012718193669464369,0.9665786244967858,0.044029644268190594,0.021287864276124124
0.5760000000000001,0.006600000000000888,0.674,0.012713733980137495,0.9544573821825072,0.04400669161772268,0.020253444877695294
0.577,0.0146,-0.326,0.012645823826544318,0.9544573821825081,0.04365717892650147,0.02025344487769537
0.578,0.0124,-1.326,0.012629806377859397,0.9803738397205656,0.04357474204040781,0.022465139497837062
0.579,-0.0032,-1.326,0.012539682711916727,0.9786968492219787,0.043110903227510336,0.02232202615534777
0.58,-0.009,-0.326,0.012478164648114291,0.9650268580791942,0.042794288658102746,0.021155437480044295
0.581,-0.0036,0.674,0.012561154422423185,0.9633231513271066,0.04322141152306202,0.02101004418883704
0.582,0.0044,0.674,0.012444070416320419,0.9633231513271066,0.04261881612448453,0.02101004418883704
0.583,-0.0032,-0.326,0.012371668176497156,0.9650268580791941,0.04224618404589041,0.021155437480044288
0.584,0.0116,0.674,0.012357743040759265,0.9667275623181599,0.04217451565155093,0.02130057453861988
0.585,0.0018,-0.326,0.012354958513247768,0.9580435912196404,0.04216018454415639,0.020559489761433118
0.586,-0.0,-0.326,0.012333461973314586,0.9580435912196373,0.04204954845917564,0.020559489761432855
0.587,-0.0047,-0.326,0.012299318438728012,0.9580435912196373,0.04187382217923454,0.020559489761432855
0.588,-0.0091,0.674,0.012277724481366986,0.9580435912196389,0.041762684716689806,0.020559489761432986
0.589,-0.0182,-0.326,0.012395663092845984,0.9580435912196388,0.04236967850651181,0.020559489761432976
0.59,-0.0069,-0.326,0.012341618189530055,0.9315060662557493,0.042091525997567436,0.018294793627390674
0.591,0.0007,0.674,0.012571533295273394,0.9297409362504412,0.043274828392112996,0.01814415851335714
0.592,-0.0084,-0.326,0.012555472305217552,0.9153401131148026,0.04319216741196381,0.016915201083201686
0.593,-0.0096,-2.326,0.012530525677292893,0.9135437481290132,0.04306377478433003,0.016761900395056054
0.594,0.0071,-1.326,0.01251686795917193,0.9117438438586736,0.04299348270628534,0.01660829766653367
0.595,-0.0096,1.674,0.012534020275681387,0.9171329596129617,0.04308176040831812,0.01706820150576699
0.596,-0.0075,-0.326,0.01255834511859038,0.9153401131148001,0.04320695289955567,0.016915201083201478
0.597,0.0186,-0.326,0.01258820547419823,0.9171329596129608,0.04336063497354777,0.017068201505766913
0.598,0.0367,1.674,0.012713455110860902,0.9117438438586727,0.04400525636325478,0.016608297666533593
0.599,0.0138,0.674,0.012703997291191912,0.9063226842686586,0.04395657987188066,0.016145659225976782
0.6,-0.0011,-1.326,0.012912083432364179,0.9063226842686577,0.04502753529399094,0.016145659225976706
0.601,-0.0036,-0.326,0.013260171197839309,0.9063226842686577,0.04681903605279079,0.016145659225976706
0.602,0.033,-0.326,0.01321842235465856,0.9008689023524411,0.04660416758668645,0.01568023681607329
0.603,0.0175,1.674,0.013198323847124363,0.8878510214525174,0.04650072674483695,0.01456929882967113
0.604,0.0033,-0.326,0.013190286299148918,0.8972146306000917,0.04645935995540887,0.01536838350188717
0.605,-0.0184,-0.326,0.013207460409251809,0.8953819020012886,0.0465477498223697,0.0152119795652689
0.606,-0.0065,0.674,0.013265063919178465,0.8972146306000917,0.04684421738595177,0.01536838350188717
0.607,-0.0101,0.674,0.013300309076098284,0.8896992633613261,0.04702561337750491,0.01472702666266798
0.608,-0.0003,-0.326,0.013325869513258391,0.8915436737238939,0.047157165092645156,0.014884427513854314
0.609,-0.009,0.674,0.013445549834870046,0.8896992633613244,0.047773122929278766,0.014727026662667838
0.61,-0.001,0.674,0.013705421292666798,0.8896992633613244,0.04911060146202128,0.014727026662667838
0.611,-0.0078,0.674,0.01373189614327564,0.8896992633613244,0.04924685938217574,0.014727026662667838
0.612,-0.0143,0.674,0.01374623362875268,0.8896992633613244,0.049320650013904316,0.014727026662667838
0.613,-0.0085,0.674,0.013768859905722974,0.8915436737238939,0.04943710050823803,0.014884427513854314
0.614,0.0081,-0.326,0.013813899455273813,0.8896992633613244,0.04966890522876935,0.014727026662667838
0.615,0.0147,-0.326,0.01467246518541185,0.8591481042803452,0.05408767919780654,0.012119809450235514
0.616,0.0204,-0.326,0.015310631203137196,0.8512967467054824,0.05737212357761603,0.011449779401428379
0.617,0.0149,0.674,0.015231840829296924,0.8512967467054823,0.056966613736360035,0.011449779401428368
0.618,0.0068,-0.326,0.015214760013210683,0.8433723002412193,0.05687870402503292,0.010773511991545125
0.619,-0.0008,-0.326,0.015261715368622497,0.8433723002412193,0.05712036880958849,0.010773511991545125
0.62,-0.0045,0.674,0.015348995627424374,0.8453177980769002,0.05756957347973362,0.010939539585800788
0.621,-0.0132,0.674,0.015380926105617738,0.835372684899975,0.05773390983850846,0.010090829715718964
0.622,-0.0256,0.674,0.01570198969646716,0.835372684899975,0.05938632547525063,0.010090829715718964
0.623,-0.0368,0.674,0.01591938985229624,0.8334039715201621,0.06050521726852977,0.009922820921139726
0.624,-0.0201,0.674,0.01595770586358705,0.8334039715201621,0.06070241800383276,0.009922820921139726
0.625,-0.0045,0.674,0.015857767737753062,0.8314305965107163,0.06018806718193518,0.009754414305941476
0.626,0.0013,-0.326,0.016045953101073894,0.8294525265997758,0.06115659941610927,0.009585607030723907
0.627,0.014,-2.326,0.016836475134215538,0.8294525265997758,0.06522517338706785,0.009585607030723907
0.628,0.0219,-0.326,0.0169040457906156,0.8314305965107163,0.06557293879056623,0.009754414305941476
0.629,0.0113,-0.326,0.01687248747806048,0.82131734411589,0.06541051785396201,0.00889135553793946
0.63,0.015,-0.326,0.016963003336897795,0.8110780003655584,0.06587637516316427,0.008017536210852248
0.631,0.0113,0.674,0.01700187627012696,0.8131007721115548,0.0660764422045375,0.008190158313306849
0.632,0.0103,0.674,0.01749471690425813,0.8110780003655585,0.06861294149461802,0.008017536210852258
0.633,-0.0005,0.673999999999778,0.01789274244987536,0.8253077399421422,0.07066145666153771,0.00923189347481598
0.634,0.001,-0.326,0.01810906448386418,0.8272957201266185,0.07177479969302034,0.009401546486709976
0.635,-0.008,0.673999999999556,0.018077430310935175,0.841251182151463,0.07161198832638423,0.010592497072322066
0.636,-0.0091,-1.326,0.018412460667778185,0.841251182151463,0.07333628661559864,0.010592497072322066
0.637,-0.008,-0.3260000000004441,0.019213833827791234,0.841251182151463,0.07746070800192793,0.010592497072322066
0.638,-0.0171,-2.326,0.019266681929630013,0.8412511821514631,0.0777327009414559,0.010592497072322075
0.639,0.0017,0.673999999999778,0.019524230309802472,0.8549788853548652,0.07905822330756616,0.011764010859547102
0.64,0.026,-0.326,0.019826456931715083,0.8549788853548652,0.08061369085393887,0.011764010859547102
0.641,0.0098,-0.326,0.01993174653712116,0.894899392779372,0.08115558409664234,0.015170802523664558
0.642,0.0011,-0.326,0.01994061388241705,0.894899392779372,0.0812012215978755,0.015170802523664558
0.643,0.0092,-0.3259999999995559,0.020004213112132126,0.894899392779372,0.08152854728867687,0.015170802523664558
0.644,0.007,1.674,0.02037397070302215,0.894899392779372,0.08343157597957983,0.015170802523664558
0.645,0.0091,-0.32599999999977797,0.02082756363194396,0.8873644172828412,0.08576607939207545,0.014527772327731933
0.646,-0.009,0.674,0.020835130395855942,0.8873644172828412,0.08580502320060451,0.014527772327731933
0.647,0.0178,-1.326,0.020848574219707282,0.8967331075232489,0.08587421443057484,0.015327290617299708
0.648,-0.0003,-1.326,0.020837371441098998,0.9060049244882109,0.08581655717177974,0.01611854180084715
0.649,-0.0231,-0.32599999999977797,0.020951406298834928,0.8912206445847523,0.08640345954074033,0.014856860404879664
0.65,-0.0319,0.674,0.020915662246235468,0.8893755643161372,0.08621949588643864,0.014699402384321372
0.651,-0.0131,-1.325999999999556,0.020929875517694832,0.8817933886492204,0.08629264722679018,0.014052344154744137
0.652,0.0035,0.674,0.021049679960957756,0.8817933886492204,0.08690924387941931,0.014052344154744137
0.653,0.0013,-1.325999999999778,0.02081679147713588,0.8817933886492204,0.08571063842164593,0.014052344154744137
0.654,0.0071,-0.326,0.020794946880453566,0.8665961541586991,0.08559821099553797,0.012755421467129125
0.655,0.0125,0.674,0.020869119512193005,0.8665961541586992,0.08597995473726933,0.012755421467129133
0.656,-0.0122,0.674,0.020841912812841774,0.8684896299519422,0.08583993021654066,0.012917009532131249
0.657,-0.0086,0.673999999999778,0.02090509039930507,0.8684896299519422,0.08616508583909936,0.012917009532131249
0.658,-0.0184,-0.326,0.02097334977736892,0.8684896299519422,0.08651639588135172,0.012917009532131249
0.659,-0.0271,0.674,0.02113620011811374,0.87037898657164,0.08735453653997823,0.013078246069384788
0.66,-0.0137,-0.326,0.021153386843459555,0.87037898657164,0.08744299133371763,0.013078246069384788
0.661,0.0131,-0.326,0.02120135896303965,0.8836543007290174,0.08768988909098775,0.014211153252376398
0.662,0.0095,0.674,0.021198979745157324,0.8912206445847523,0.08767764398769974,0.014856860404879664
0.663,0.0127,-0.326,0.02117445206847057,0.8912206445847523,0.08755140757334044,0.014856860404879664
0.664,0.0515,-0.326,0.021158484200748007,0.8912206445847523,0.08746922586522342,0.014856860404879664
0.665,0.0464,0.674,0.02114732563157252,0.8912206445847524,0.08741179613879302,0.014856860404879674
0.666,0.0131,-1.326,0.021105832749949097,0.9005492182011197,0.08719824502816524,0.0156529551663114
0.667,-0.0,0.674,0.021011962048181385,0.9005492182011197,0.08671512137336979,0.0156529551663114
0.668,-0.0123,0.674,0.020968788660875398,0.9079747840880936,0.08649292121642643,0.016286648413145432
0.669,-0.0164,0.674,0.02095842139042447,0.9097821450606919,0.08643956406135903,0.016440887492073546
0.67,-0.0128,-0.326,0.020959997400425232,0.918922308217523,0.08644767530051273,0.01722090342023407
0.671,-0.0356,-0.326,0.02096492677957791,0.9262005844723877,0.08647304530017468,0.01784202706003519
0.672,-0.0328,-0.326,0.020960639674421327,0.9262005844723878,0.08645098088739478,0.0178420270600352
0.673,-0.0248,-1.326,0.020848193451951554,0.9244253240503416,0.08587225473594903,0.01769052742243911
0.674,0.0118,-0.326,0.020717846787466496,0.9316606108893688,0.08520140051039685,0.018307982371810937
0.675,0.0274,-0.326,0.020788391696285068,0.9298957742410372,0.08556447347708221,0.018157372292682182
0.676,0.0514,0.674,0.020786859110065312,0.9370888245457367,0.0855565857267849,0.018771222802071857
0.677,0.021,0.674,0.02094241311001823,0.9370888245457367,0.08635717436157825,0.018771222802071857
0.678,-0.0069,-0.326,0.021229520988278548,0.9081333332453655,0.08783483038048111,0.0163001789011626
0.679,-0.0178,-0.326,0.02138512551016291,0.9226466478637234,0.08863567903612982,0.017538736285585593
0.68,-0.0146,0.674,0.02138355967137356,0.9244253240503417,0.08862762014507558,0.01769052742243912
0.681,-0.0414,-0.326,0.02133205589909845,0.926200584472388,0.08836254605668879,0.017842027060035206
0.682,-0.0378,1.674,0.021302064361343635,0.9244253240503417,0.08820818882849955,0.01769052742243912
0.683,-0.0281,0.674,0.02127795144746029,0.9244253240503417,0.08808408707082956,0.01769052742243912
0.684,0.0045,1.674,0.021283060251601576,0.922646647863725,0.08811038051576917,0.017538736285585724
0.685,0.035,-0.326,0.021293015499506525,0.9244253240503433,0.08816161711741016,0.01769052742243925
0.686,0.0549,-0.326,0.02129455369902336,0.9244253240503465,0.08816953375762254,0.017690527422439525
0.687,0.015,-0.326,0.02131476065968468,0.9171329596129536,0.08827353277438885,0.017068201505766295
0.6880000000000001,-0.03290000000000068,1.674,0.021306600358111417,0.9189223082175263,0.08823153420991595,0.017220903420234353
0.6890000000000001,-0.03899999999999807,-0.326,0.02125697481318534,0.8987232897122672,0.08797612678050062,0.015497131546913257
0.6900000000000001,-0.02159999999999827,2.674,0.02135289039025944,0.8987232897122689,0.08846977478009184,0.015497131546913397
0.6910000000000001,-0.005999999999997336,0.674,0.021231814436716956,0.9005492182011245,0.0878466340547989,0.015652955166311815
0.6920000000000001,0.01800000000000242,-0.326,0.02124076815507561,0.9023714519720082,0.087892716091643,0.01580846348074042
0.6930000000000001,0.039800000000000446,-2.326,0.02124244132865423,0.9023714519720082,0.0879013274018728,0.01580846348074042
0.6940000000000001,0.04379999999999637,0.674,0.02124331799677572,0.9023714519720099,0.0879058393432871,0.015808463480740564
0.6950000000000001,0.011099999999997591,1.674,0.021259763751582072,0.88752664831612,0.08799048058936597,0.01454161702479348
0.6960000000000001,-0.010599999999996902,-1.326,0.02124281109833079,0.8893755643161448,0.08790323049276492,0.014699402384322026
0.6970000000000001,0.01730000000000282,-1.326,0.02122380551361941,0.8875266483161209,0.08780541458882071,0.014541617024793554
0.6980000000000001,0.04269999999999597,-0.326,0.021156917682660474,0.8875266483161208,0.08746116347803018,0.014541617024793545
0.6990000000000001,0.0063999999999984234,-0.326,0.021168184112490933,0.8799285410384611,0.0875191483301053,0.013893199201308899
0.7000000000000001,-0.0077999999999966135,0.674,0.021055654013372546,0.879928541038462,0.08693999049132507,0.013893199201308973
0.7010000000000001,0.02269999999999867,-0.326,0.02081881208130623,0.8780597328215561,0.08572103785036321,0.01373371625216989
0.7020000000000001,0.010699999999997179,-0.326,0.020777685839820228,0.8703789865716554,0.08550937372385135,0.013078246069386094
0.7030000000000001,-0.014700000000000355,-0.326,0.020800179350472802,0.8684896299519574,0.0856251409107479,0.012917009532132548
0.704,-0.0179,-0.326,0.020800105459506984,0.8607234882335449,0.0856247606166541,0.012254251752345399
0.705,-0.015,0.674,0.020862413509576228,0.8703789865716554,0.08594544100260798,0.013078246069386094
0.706,-0.0175,0.674,0.020825202341238535,0.8684896299519574,0.08575392655445778,0.012917009532132548
0.707,-0.0197,0.674,0.02079226473065192,0.906004924488193,0.08558440679475456,0.016118541800845626
0.708,-0.0262,0.674,0.02077684909730913,0.9332678578000092,0.08550506726728427,0.018445143839202177
0.709,-0.0124,0.674,0.020735552644078396,0.9350263297544257,0.08529252711322967,0.01859521075924871
0.71,-0.0143,1.674,0.020561384600184453,0.9350263297544257,0.08439613771451357,0.01859521075924871
0.711,0.0071,-1.326,0.020515920596562386,0.9350263297544248,0.08416214845931572,0.018595210759248634
0.712,0.01,0.674,0.020476991825099617,0.9367815008129933,0.08396179403571367,0.018744995982864318
0.713,0.0021,0.674,0.020479375209762656,0.9350263297544248,0.08397406058414153,0.018595210759248634
0.714,0.0043,-0.326,0.02054965352973133,0.9350263297544248,0.08433576149994132,0.018595210759248634
0.715,0.0064,-1.326,0.01989845592488017,0.9350263297544256,0.08098424754590423,0.0185952107592487
0.716,0.0046,-0.326,0.01938253344956363,0.9421802117807423,0.07832895311247344,0.01920571867174016
0.717,0.0064,-1.326,0.019382378301083598,0.9614666965317987,0.07832815461092506,0.020851615473134317
0.718,0.0017,0.674,0.01941306752540382,0.9597566699994099,0.07848610261746189,0.02070568285574515
0.719,-0.0027,-1.326,0.019374453973484865,0.9597566699994099,0.07828737053198241,0.02070568285574515
0.72,-0.0064,-1.326,0.019542728903953893,0.9597566699994099,0.07915342988690045,0.02070568285574515
0.721,-0.0125,0.674,0.01952489346017313,0.9614666965317973,0.07906163633873263,0.020851615473134195
0.722,-0.0136,-0.326,0.019219423136475712,0.9614666965317972,0.07748947445608854,0.020851615473134185
0.723,-0.0285,-1.326,0.01893884730221484,0.9701200263927869,0.07604543686030248,0.021590085345868846
0.724,-0.0264,-0.326,0.0187759236023854,0.963173687073712,0.07520691864501124,0.020997289000954943
0.725,0.0037,-1.326,0.018747135351494644,0.9718118174522007,0.07505875436453183,0.021734461759158146
0.726,0.0255,-0.326,0.018578313141945843,0.9718118174522007,0.07418987833237335,0.021734461759158146
0.727,0.0375,-0.326,0.01785681516437001,0.9701200263927845,0.0704765499637783,0.021590085345868638
0.728,0.0338,1.674,0.017819780779421285,0.9770169802749129,0.07028594536540421,0.022178667167827477
0.729,0.011,0.674,0.018003876382909192,0.9786968492219235,0.07123342886253352,0.022322026155343053
0.73,0.0023,0.674,0.017916777464742184,0.9786968492219235,0.07078515749690867,0.022322026155343053
0.731,-0.0003,-0.326,0.017858013145289654,0.9786968492219265,0.0704827156034228,0.02232202615534331
0.732,0.0019,0.674,0.017542455305811847,1.0137571461998023,0.06885863637702976,0.02531405043538502
0.733,-0.0047,-0.326,0.017157001371592432,1.0005662724719115,0.06687482343061983,0.02418834934695104
0.734,-0.0066,0.674,0.01692610315195011,1.0332974167543258,0.06568646125095481,0.026981605161878405
0.735,-0.0084,0.674,0.016928989112453337,1.020359184605271,0.06570131440278662,0.02587746435111413
0.736,-0.013,0.674,0.016607045504001102,1.021967811890251,0.0640443695858791,0.026014743618806443
0.737,-0.0054,0.674,0.015674617375810548,1.021967811890251,0.05924544855255987,0.026014743618806443
0.738,-0.009,-1.326,0.01560567198759479,1.021967811890251,0.05889060782687196,0.026014743618806443
0.739,-0.0203,0.674,0.015277138742919208,1.0105111902439943,0.05719974817736977,0.025037042541303227
0.74,-0.0127,0.674,0.014802341607348026,1.0121354694603621,0.05475611322946887,0.025175657535238007
0.741,-0.0116,0.674,0.014646764768384973,0.9770169802749114,0.05395540704930896,0.022178667167827345
0.742,-0.0029,-0.326,0.014635104848454442,0.9770169802749114,0.053895397024611366,0.022178667167827345
0.743,0.0094,-0.326,0.014537455615096017,0.9770169802749115,0.0533928264288909,0.022178667167827352
0.744,0.0109,-0.326,0.013981739819291577,0.9510090475593531,0.05053272800370841,0.019959166112039194
0.745,0.0033,0.674,0.013308142616160352,0.9580435912195856,0.04706593020089606,0.020559489761428438
0.746,-0.0003,-0.326,0.013262207070347184,0.9440745928230951,0.04682951406294923,0.01936738399014711
0.747,0.0058,-1.326,0.013242928685604572,0.9369351752799765,0.04673029414107785,0.018758110467796556
0.748,0.0069,0.674,0.01312959185533139,0.9279724487334384,0.04614698430495871,0.01799323687133106
0.749,0.0076,-0.326,0.012417604773159147,0.9297409362503879,0.04248260559223321,0.01814415851335259
0.75,0.005,-0.326,0.012404697812461287,0.9315060662556962,0.04241617743193157,0.018294793627386143
0.751,-0.0005,0.674,0.012427141230235327,0.9297409362503879,0.04253168680617624,0.01814415851335259
0.752,-0.0103,-0.326,0.012388443099096945,0.9315060662556962,0.04233251941744623,0.018294793627386143
0.753,-0.0012,0.674,0.012612699861032544,0.9404351166028136,0.04348670005526679,0.019056793317609788
0.754,0.0176,-1.325999999999778,0.012655375942894622,0.9492801828798144,0.0437063407339162,0.019811625858705044
0.755,-0.0012,-0.326,0.012602868894944934,0.9510090475593529,0.043436103093946854,0.019959166112039177
0.756,-0.0034,2.6739999999988897,0.012514086034313187,0.9510090475593529,0.04297916499394471,0.019959166112039177
0.757,0.0031,-2.326,0.012425302997236428,0.9492801828798145,0.042522225985834335,0.019811625858705054
0.758,0.0129,0.674,0.012269352448362822,0.9614666965317872,0.04171959643560878,0.02085161547313333
0.759,0.0038,0.674,0.011988289407895593,0.968425279862582,0.04027305133920089,0.021445456714511573
0.76,-0.0008,-0.32599999999977797,0.012106082234919414,0.968425279862582,0.04087929482123282,0.021445456714511573
0.761,0.0035,0.674,0.012663536076264645,0.9546082111599988,0.04374833843269872,0.02026631653029634
0.762,0.01,-0.326,0.013478836607689396,0.9458129729209188,0.04794443971969358,0.01951573628345232
0.763,0.0212,-0.326,0.014640015535957214,0.9528858766309213,0.05392067082409534,0.020119333556004763
0.764,0.0044,-0.32600000000022206,0.014902213841861434,0.9511604233520576,0.05527012492898833,0.01997208442951575
0.765,-0.0113,-1.326,0.015032160633567678,0.9511604233520576,0.055938921132232,0.01997208442951575
0.766,-0.0131,-2.325999999999556,0.015246824157662011,0.9563274437897862,0.05704372832296081,0.02041303479040149
0.767,0.0109,-0.326,0.015574007906110503,0.9580435912195856,0.058727642530092945,0.020559489761428438
0.768,0.0011,0.674,0.0157931141689349,0.985387687360957,0.05985531513177693,0.02289301818597104
0.769,-0.0304,0.674,0.015795014284539062,0.985387687360957,0.059865094442871115,0.02289301818597104
0.77,-0.0097,0.673999999999778,0.01603056483041967,0.9785497331589246,0.06107740071598826,0.022309471360591752
0.771,0.0091,-0.326,0.01694919453027172,0.9716636589521241,0.06580530547901446,0.021721818003464823
0.772,0.0021,-1.325999999999556,0.016903488313380934,0.9699716094797911,0.06557006962655654,0.021577419537375193
0.773,-0.0001,0.674,0.016871806636285368,0.9716636589521243,0.06540701377057354,0.021721818003464833
0.774,0.0056,-1.325999999999778,0.0166741566774412,0.9630241996230644,0.06438977017178528,0.02098453183343348
0.775,0.011,-0.326,0.016565284793566906,0.9767222199389504,0.06382944004266818,0.02215351250120986
0.776,-0.0038,-0.32600000000022206,0.016607397883809,0.9681279036645338,0.06404618317646128,0.02142007881182501
0.777,-0.0176,-1.326,0.016645570169951482,0.9817547166765802,0.06424264420259368,0.022582982691885106
0.778,-0.0266,0.673999999999778,0.016293323847626506,0.9817547166765802,0.06242974062964482,0.022582982691885106
0.779,-0.0019,-0.326,0.01608314889840722,0.9767222199389503,0.06134803475442362,0.022153512501209848
0.78,0.0016,0.6740000000004441,0.016130140763050655,0.9835728793839548,0.06158988744077478,0.022738143584246168
0.781,0.0244,2.674,0.016418281285565803,0.9819013525442513,0.06307285816231757,0.022595496507061105
0.782,0.0095,-0.3259999999993339,0.016513512416974303,0.9819013525442513,0.06356298353040346,0.022595496507061105
0.783,0.0014,2.674,0.016543196114913665,0.9802269753464329,0.06371575640166414,0.02245260618205952
0.784,-0.0055,-0.32599999999977797,0.016666707589552854,0.9887161272404748,0.0643514320055871,0.023177065207605235
0.785,-0.0121,0.674,0.01668989310444097,1.0004223723991863,0.06447076072562564,0.02417606900284085
0.786,-0.0023,-0.326,0.016726558800009516,1.0004223723991863,0.06465946779306112,0.02417606900284085
0.787,0.0031,-0.326,0.016993414814998747,1.0004223723991863,0.06603289369526412,0.02417606900284085
0.788,-0.0082,0.674,0.017256340436691102,0.9987790447668606,0.06738609107100879,0.02403582842874975
0.789,-0.0096,0.674,0.017461937974591137,1.0037009559921939,0.06844423841684422,0.024455861319506486
0.79,0.0028,-0.326,0.01735435788199997,1.0037009559921939,0.06789055674048376,0.024455861319506486
0.791,0.0013,0.674,0.01731066553358913,1.0020630050691575,0.06766568565021455,0.024316079590494488
0.792,-0.0063,-0.326,0.017280550960421796,1.0136151187998548,0.06751069519656683,0.025301929904023225
0.793,0.0003,0.674,0.017358765530874672,1.0136151187998548,0.06791324155473678,0.025301929904023225
0.794,0.009,-1.326,0.01773026918337595,1.0396369189273802,0.06982525668817445,0.02752261439625897
0.795,-0.0012,-0.326,0.018037736959305932,1.0396369189273802,0.07140769884362681,0.02752261439625897
0.796,0.0078,0.674,0.018180912431136894,1.0380556730086314,0.07214457899819525,0.027387671837597855
0.797,-0.0009,-0.326,0.01818291135904632,1.0396369189273802,0.07215486686585883,0.02752261439625897
0.798,0.0023,0.674,0.018173625313421295,1.0315668985229363,0.0721070744427015,0.02683392379544161
0.799,0.003,0.674,0.018172791065134006,1.0315668985229365,0.07210278082313785,0.026833923795441632
0.8,-0.0108,-0.326,0.01824475216240934,1.0571469057162313,0.07247314247660436,0.029016905949137486
0.801,-0.0205,0.674,0.018255795636158176,1.0586996378561844,0.07252997984224352,0.029149415159372426
0.802,-0.026,-1.326,0.018257709858856226,1.0571469057162313,0.07253983175821473,0.029016905949137486
0.803,-0.018,-1.326,0.018236434693600805,1.0571469057162313,0.07243033502067023,0.029016905949137486
0.804,-0.0137,0.674,0.018295107306429307,1.0571469057162313,0.0727323049283444,0.029016905949137486
0.805,-0.0013,0.674,0.018291084245376475,1.0507760304309552,0.07271159946942368,0.028473219352566664
0.806,-0.0092,-0.326,0.018290763339984528,1.0507760304309552,0.07270994786798808,0.028473219352566664
0.807,-0.0016,1.674,0.018300593436279867,1.016992742026242,0.07276054035275449,0.025590174202369025
0.808,0.002,-1.326,0.018318564664890024,0.9903761523769045,0.07285303274371145,0.0233187307364743
0.809,0.0209,0.674,0.018273052343701166,0.9903761523769045,0.0726187948128457,0.0233187307364743
0.81,0.0398,-0.326,0.018273877681623276,0.9887161272405076,0.07262304257349798,0.023177065207608042
0.811,0.0467,-0.326,0.018275835040149353,0.9903761523769051,0.07263311649632007,0.023318730736474357
0.812,0.058,-1.326,0.01833465234763649,0.9887161272405084,0.07293583110293642,0.023177065207608108
0.8130000000000001,0.02789999999999466,-0.326,0.0183814007498158,1.0020630050691905,0.07317643076280266,0.02431607959049731
0.8140000000000001,-0.020200000000000676,-0.326,0.018347002343844423,1.003700955992227,0.07299939273816795,0.02445586131950931
0.8150000000000001,-0.026300000000000646,1.674,0.018343154389075113,1.0037009559922263,0.07297958849747699,0.024455861319509255
0.8160000000000001,-0.03209999999999943,0.674,0.01834147027905981,0.9953396164079488,0.07297092090076844,0.023742309718231634
0.8170000000000001,-0.026999999999997335,2.674,0.01845685889516357,0.9817547166766238,0.07356479064802769,0.02258298269188883
0.8180000000000001,-0.002999999999996614,0.674,0.01842602686720096,0.9834264927528705,0.07340610767502816,0.022725651038767905
0.8190000000000001,0.0275000000000031,0.674,0.018425820277899463,0.981754716676624,0.07340504442337988,0.02258298269188884
0.8200000000000001,0.05539999999999397,0.674,0.018176478587154002,0.9800800889648684,0.07212175936577034,0.022440070988181224
0.8210000000000001,0.0011000000000008549,-0.326,0.01817047740963828,0.9800800889648699,0.07209087314930583,0.022440070988181345
0.8220000000000001,0.008799999999997669,0.674,0.018150824797674256,0.9800800889648699,0.07198972719492881,0.022440070988181345
0.8230000000000001,-0.012200000000000677,-0.326,0.01817663971579352,0.971515477857565,0.07212258864536183,0.021709172319572187
0.8240000000000001,-0.018299999999999345,1.674,0.01818058530431934,0.9698231698538653,0.07214289537699393,0.021564751790574
0.8250000000000001,-0.01240000000000172,-0.326,0.018180824735045013,0.9885705022172123,0.07214412765336002,0.023164637657272228
0.8260000000000001,-0.02789999999999516,1.674,0.018147717029900878,0.9885705022172123,0.07197373246924064,0.023164637657272228
0.8270000000000001,0.015700000000000644,-0.326,0.018143808793209017,0.9885705022172115,0.07195361797601943,0.02316463765727216
0.8280000000000001,0.021499999999999443,-1.326,0.018071198041200946,0.9800800889648782,0.07157991274928752,0.022440070988182056
0.8290000000000001,0.016500000000001576,-1.326,0.01794170456984117,1.005336238276113,0.07091344964655823,0.024595415308489976
0.8300000000000001,0.03069999999999856,-0.326,0.017943408556957773,1.005336238276113,0.07092221954459876,0.024595415308489976
0.8310000000000001,0.017699999999996913,-0.326,0.01798136909740497,1.0037009559922445,0.07111759078070866,0.02445586131951081
0.8320000000000001,-0.010100000000001188,-0.326,0.01784287359021642,0.9699716094798437,0.07040479696596488,0.021577419537379683
0.833,-0.0208,-1.326,0.017870954788119914,0.9716636589521791,0.07054932226200179,0.021721818003469513
0.834,-0.011,1.674,0.018120650934389103,0.9350263297544597,0.071834431593265,0.018595210759251607
0.835,-0.0139,0.674,0.018312644560354332,0.9350263297544604,0.07282256378496081,0.018595210759251673
0.836,-0.0327,0.674,0.018274567716884196,0.9350263297544589,0.07262659397293268,0.01859521075925154
0.837,-0.0305,-0.326,0.0183258386550671,0.9350263297544589,0.07289046973579862,0.01859521075925154
0.838,-0.0282,1.674,0.018356718190991685,0.9350263297544597,0.07304939721767886,0.018595210759251607
0.839,-0.0061,0.674,0.018359016530480072,0.942180211780776,0.07306122606472784,0.01920571867174304
0.84,-0.0031,-0.326,0.01840096159678881,0.9421802117807776,0.07327710443097103,0.01920571867174317
0.841,-0.0055,1.674,0.018404287868364958,0.9561768860070287,0.07329422372858412,0.020400186281393024
0.842,0.0167,-0.326,0.01848789478748998,0.9631736870737649,0.07372452284825858,0.020997289000959464
0.843,0.0373,-2.326,0.01847977781918345,0.9718118174522561,0.07368274730679289,0.021734461759162875
0.844,0.0349,-0.326,0.018486014206415234,0.9786968492219733,0.07371484407538417,0.022322026155347306
0.845,0.023,-0.326,0.018588923870571438,0.9718118174522501,0.07424448849184916,0.02173446175916236
0.846,0.0027,0.674,0.01864825692891259,0.9989231815695274,0.07454985750961685,0.02404812897524822
0.847,0.0001,-0.326,0.01865415462858214,0.9989231815695274,0.07458021115740664,0.02404812897524822
0.848,-0.0067,0.674,0.018653945120277474,1.007254773999886,0.07457913288254607,0.024759141972621728
0.849,-0.0179,-2.326,0.018653189359714762,1.0072547739998858,0.07457524321518094,0.024759141972621707
0.85,-0.0081,0.674,0.018660443776921373,1.0072547739998858,0.07461257947120406,0.024759141972621707
0.851,-0.0027,-0.326,0.0186319592786889,1.008884295980949,0.07446597851231125,0.02489820438088594
0.852,0.0053,-0.326,0.01852025937730229,1.0203591846052982,0.07389109344613022,0.02587746435111644
0.853,-0.0147,0.674,0.018363118639784425,1.0251774940968175,0.07308233836070697,0.026288655933334883
0.854,-0.0172,0.674,0.018417575881851587,1.0299732633407874,0.07336261305048902,0.02669792394462669
0.855,-0.0005,-0.326,0.01864484050799363,1.0412157634843437,0.07453227424103989,0.02765735202417546
0.856,-0.0069,-0.326,0.018844489544872063,1.039636918927406,0.07555980648013816,0.027522614396261167
0.857,-0.0087,-0.326,0.018871784579455944,1.0412157634843429,0.07570028563516316,0.027657352024175384
0.858,0.0004,0.674,0.01887137490873001,1.0283771585685157,0.07569817718583181,0.026561713340502575
0.859,-0.0042,-0.326,0.01889845486395078,1.0218269257209274,0.07583754939347047,0.026002720479367417
0.86,-0.0028,0.674,0.018791704364784133,1.0460756365263555,0.07528813737952546,0.028072090614347556
0.861,-0.0151,-0.326,0.018426395740676886,1.0460756365263555,0.07340800615345104,0.028072090614347556
0.862,-0.0165,1.674,0.018017640719267772,1.0713092697588131,0.0713042696718826,0.030225513426277058
0.863,-0.018,0.674,0.01706181017333025,1.065023115868378,0.06638490358616626,0.029689056901675195
0.864,0.0023,-0.326,0.017148344889742137,1.0665643816785744,0.06683027117874113,0.029820587582348426
0.865,0.011,-0.326,0.01743685353416155,1.0665643816785744,0.06831513651059842,0.029820587582348426
0.866,0.0244,1.674,0.01730970165802225,1.0540345793201342,0.06766072487887835,0.028751301919872893
0.867,0.0023,0.674,0.017053452457959632,1.0603858771879908,0.06634188899354519,0.02929331779162651
0.868,-0.0007,-0.326,0.01710918742036573,1.035025041636235,0.06662873971725825,0.02712903961164186
0.869,-0.0033,-0.326,0.018128672209867427,1.0334367391779125,0.07187571463315105,0.026993494852213556
0.87,-0.0085,0.674,0.017991888787217705,1.0574192475496345,0.07117173239139162,0.029040147434471385
0.871,0.0034,-0.326,0.017294478160646345,1.0558646324965248,0.06758237421618471,0.028907477537580394
0.872,0.0099,-0.326,0.017548794306952192,1.0574192475496345,0.06889126126787434,0.029040147434471385
0.873,-0.0038,-0.326,0.017862764118009744,1.0558646324965248,0.07050716740000192,0.028907477537580394
0.874,-0.0057,-2.326,0.017949023094253228,1.0558646324965248,0.07095111584266713,0.028907477537580394
0.875,-0.001,-0.326,0.017867843908397473,1.0432063248917702,0.07053331152006813,0.027827225316055797
0.876,0.0004,-0.326,0.01811000933562476,1.0432063248917705,0.07177966255467169,0.027827225316055818
0.877,0.0068,-0.326,0.018124451822145553,1.031985510248463,0.07185399359450483,0.026869647863822337
0.878,0.0155,-2.326,0.018060198712875116,1.0400522825470682,0.07152330258657434,0.027558061273275918
0.879,0.0031,-0.326,0.01811328422873488,1.0335760428213272,0.07179651742310914,0.02700538293986034
0.88,-0.0118,-0.326,0.018046525771060876,1.0270589672248724,0.07145293215685872,0.026449219698237925
0.881,-0.01,0.674,0.0182636331146116,1.0351641315393456,0.07257031693532467,0.02714090945882194
0.882,0.0138,0.674,0.018521176544915443,1.0351641315393456,0.07389581382598231,0.02714090945882194
0.883,0.03,-0.326,0.018504108255724707,1.0367497876329763,0.07380796858673674,0.027276228379107554
0.884,0.027,-0.326,0.018515879707531546,1.0367497876329763,0.07386855263172708,0.027276228379107554
0.885,0.0026,0.673999999999778,0.019290240999647525,1.031985510248463,0.07785395223494902,0.026869647863822337
0.886,-0.0139,-0.326,0.019253317076814457,1.0303925225036168,0.07766391615113834,0.026733703264910456
0.887,-0.0111,-0.32600000000022206,0.018974012002677548,1.0303925225036168,0.07622641876719576,0.026733703264910456
0.888,-0.0087,-1.326,0.018799902798551916,1.0384716690887397,0.07533033219868523,0.02742317268839987
0.889,-0.0157,0.6740000000002221,0.018622228699693776,1.0271991357903973,0.0744158982125066,0.026461181597808078
0.89,-0.0045,1.674,0.018681678356154377,1.0384716690887397,0.07472186732496357,0.02742317268839987
0.891,0.0176,-1.326,0.01879006745376566,1.0384716690887397,0.07527971270154897,0.02742317268839987
0.892,-0.0031,-1.326,0.018800773101396787,1.025598713745842,0.07533481137997688,0.02632460256031033
0.893,0.0048,-1.325999999999556,0.01876468973918421,1.033715327692161,0.075149101403369,0.027017269425466547
0.894,0.0215,0.674,0.01839118638306761,1.0091696623957505,0.07322679440994787,0.02492255737602267
0.895,0.0149,-2.325999999999334,0.01805697119625244,1.0107960973566166,0.0715066915503586,0.025061356339873175
0.896,0.0091,0.674,0.017953232567204273,1.0124199194814276,0.0709727807063421,0.025199932325894327
0.897,-0.0001,-1.325999999999556,0.017959881801203028,1.0107960973566166,0.07100700227037193,0.025061356339873175
0.898,-0.0016,0.674,0.017963074649788423,1.0124199194814276,0.07102343488085355,0.025199932325894327
0.899,0.006,0.674,0.01796242414007221,1.0190306214731493,0.07102008690725092,0.02576408558677037
0.9,-0.0032,0.674,0.017892442407479902,0.9941224453226041,0.07065991243553367,0.02363843708296519
0.901,-0.0022,1.674,0.017874177563158934,1.0190306214731493,0.07056590889474358,0.02576408558677037
0.902,-0.0098,1.674,0.017873073506051936,1.0190306214731493,0.07056022665209927,0.02576408558677037
0.903,-0.0229,1.674,0.017867551752350448,1.0206413427014245,0.07053180788267593,0.025901543550301578
0.904,-0.0321,1.674,0.01782635337832986,1.0206413427014245,0.07031977251217546,0.025901543550301578
0.905,-0.0274,-0.32599999999977797,0.017787187907966556,1.0190306214731493,0.07011819987207177,0.02576408558677037
0.906,-0.0137,0.674,0.017859733274310688,1.0190306214731493,0.07049156857888492,0.02576408558677037
0.907,-0.001,-0.32599999999977797,0.01790927450349115,1.0190306214731493,0.07074654206106844,0.02576408558677037
0.908,0.0103,0.674,0.018002873393265964,1.0206413427014245,0.0712282667830664,0.025901543550301578
0.909,0.0059,-2.325999999999556,0.018069330383385696,1.0206413427014245,0.07157030048845833,0.025901543550301578
0.91,0.015,-0.326,0.018111109309701612,1.0206413427014245,0.07178532378321459,0.025901543550301578
0.911,0.0263,-2.325999999999334,0.018113354326657814,1.0206413427014245,0.07179687819557684,0.025901543550301578
0.912,0.0035,0.674,0.018065202655233377,1.0206413427014245,0.07154905634014158,0.025901543550301578
0.913,-0.0328,0.673999999999778,0.01811208588906853,1.0091696623957505,0.07179034993710562,0.02492255737602267
0.914,-0.0375,-0.326,0.018272350609724108,1.0091696623957505,0.07261518320371413,0.02492255737602267
0.915,-0.0158,-0.326,0.018309675052385312,1.0107960973566166,0.07280728063999736,0.025061356339873175
0.916,0.0122,-1.326,0.01828340294363733,1.0107960973566166,0.07267206616989658,0.025061356339873175
0.917,0.0303,-1.326,0.018121883589491457,1.0059089032497552,0.07184077569027222,0.02464428618675287
0.918,0.06,-0.326,0.018120691664800324,1.0059089032497552,0.07183464122017477,0.02464428618675287
0.919,0.0162,-2.326,0.01813860434847466,1.0190306214731493,0.07192683229833839,0.02576408558677037
0.92,-0.0247,-0.326,0.01816042798160745,1.0190306214731493,0.07203915183149921,0.02576408558677037
0.921,-0.0298,0.674,0.018147714042243836,1.0190306214731493,0.07197371709268797,0.02576408558677037
0.922,-0.0345,-0.326,0.018184731696416965,1.0190306214731493,0.0721642355829016,0.02576408558677037
0.923,-0.0214,-0.326,0.018225350210242568,1.0190306214731493,0.07237328659117406,0.02576408558677037
0.924,0.0066,-0.326,0.018224242018932173,1.0206413427014245,0.07236758307105536,0.025901543550301578
0.925,0.032,-0.326,0.01829094902460782,0.9941224453226041,0.07271090352968182,0.02363843708296519
0.926,0.0288,0.674,0.01834815724559783,0.9941224453226041,0.07300533666258237,0.02363843708296519
0.927,-0.0038,-1.326,0.018365593345172977,1.0024939368209567,0.07309507490884548,0.024352855042374937
0.928,-0.0256,0.674,0.018380664826282936,1.004131184803158,0.07317264319053408,0.02449257678284641
0.929,-0.0056,0.674,0.01833207756612621,0.9788439431740051,0.07292257949375357,0.022334579063162212
0.93,0.0416,-1.326,0.018338574777203222,0.9923236120093396,0.07295601864252302,0.023484925749263953
0.931,0.0355,-0.326,0.018318173217601146,0.9939776123649245,0.07285101808481043,0.02362607712702412
0.932,0.0062,0.674,0.01829124416384609,1.005622611526854,0.0727124225206426,0.024619854226389393
0.933,0.0218,-1.326,0.01825211574416014,1.0171342977923337,0.07251104056898929,0.025602254484786303
0.934,0.0552,-1.326,0.01800382131181268,1.0171342977923337,0.07123314542852355,0.025602254484786303
0.935,0.0071,-0.326,0.017819432908098193,1.0187480172628152,0.07028415497860785,0.025739968316471858
0.936,0.0009,0.674,0.017817561575702363,1.0187480172628167,0.07027452380584163,0.02573996831647199
0.937,-0.0165,-1.326,0.017770417526783967,1.026918779527138,0.07003188787379468,0.02643725616593672
0.9380000000000001,-0.011400000000000523,0.674,0.017763333429881276,1.0350250416362357,0.06999542820403507,0.027129039611641915
0.9390000000000001,-0.01610000000000048,1.674,0.017750943557022905,1.0269187795271373,0.06993166133593814,0.02643725616593666
0.9400000000000001,-0.02039999999999867,-0.326,0.017685373915016418,1.0269187795271357,0.06959419453859605,0.026437256165936528
0.9410000000000001,-0.008400000000000398,-0.326,0.01768788692623466,1.0155180140273674,0.06960712823506827,0.025464321817779294
0.9420000000000001,-0.0119999999999989,-1.326,0.017604510375098095,1.0072547739998565,0.06917801474863654,0.024759141972619206
0.9430000000000001,-0.002099999999999678,0.674,0.017621778256188107,0.9989231815694918,0.06926688722605152,0.024048128975245178
0.9440000000000001,0.0007999999999985235,0.674,0.01761531449571904,0.9905215119361829,0.06923362023728152,0.023331135632273434
0.9450000000000001,-0.012499999999999234,0.674,0.017492403604629995,1.0155180140273732,0.06860103565232714,0.025464321817779786
0.9460000000000001,-0.005599999999999755,-0.326,0.01742874113642537,0.9888617308182974,0.06827338449245375,0.023189490927797547
0.9470000000000001,-0.003399999999998901,0.674,0.01741049794509929,0.9871991591090143,0.06817949239297423,0.023047608075960197
0.9480000000000001,0.006500000000000199,-1.326,0.01747086689852592,0.9786968492219492,0.06849019284440817,0.02232202615534525
0.9490000000000001,0.008299999999999112,0.674,0.017504186916624365,1.0039877956841554,0.06866168073805795,0.02448034004321411
0.9500000000000001,0.0003000000000001665,-2.326,0.017512091418642007,1.0106536538398811,0.06870236278082728,0.025049200297359447
0.9510000000000001,0.001800000000000122,-0.326,0.017517788612735053,1.0106536538398811,0.06873168448803177,0.025049200297359447
0.9520000000000001,0.0028999999999987564,0.674,0.017656396200773444,0.9974217373594154,0.06944505514846636,0.02391999664554725
0.9530000000000001,-0.008300000000000467,0.674,0.01786275357471497,0.9974217373594154,0.07050711313690375,0.02391999664554725
0.9540000000000001,-0.0125000000000004,-0.326,0.017778798574377776,0.9924686863386842,0.07007502255019835,0.023497306303715156
0.9550000000000001,-0.01609999999999988,-0.326,0.0176064403436848,0.980667502485637,0.06918794770385783,0.022490200498426774
0.9560000000000001,-0.015000000000000588,-0.326,0.017416893997057713,0.9806675024856377,0.06821241090684729,0.022490200498426833
0.9570000000000001,-0.020299999999999464,0.674,0.017415511487635694,0.9789910150251652,0.06820529555570815,0.02234713008490225
0.9580000000000001,-0.015499999999999722,0.674,0.01830300778083426,0.9806675024856377,0.07277296624222894,0.022490200498426833
0.9590000000000001,-0.012999999999999,-0.326,0.0189591909611055,1.0059089032497708,0.07615013942084677,0.0246442861867542
0.96,-0.004,0.674,0.019268875913458217,0.978991015025166,0.07774399270199123,0.022347130084902318
0.961,0.0073,-0.326,0.01944642558904864,0.9806675024856334,0.07865778631984716,0.02249020049842646
0.962,0.021,0.674,0.019285954971745862,0.9806675024856492,0.07783189336646916,0.022490200498427808
0.963,0.0301,0.674,0.019285913312404594,0.9789910150251773,0.07783167895864189,0.022347130084903282
0.964,0.0119,0.674,0.01900514942385665,0.9773116517102496,0.07638667350523083,0.02220381424772011
0.965,0.005,-0.326,0.01863486499509364,0.9773116517102504,0.074480933341697,0.022203814247720177
0.966,0.0028,-1.326,0.018567930286303318,0.9858259083820043,0.07413644096511425,0.022930415699626602
0.967,0.001,0.674,0.01853017871525797,0.9773116517102489,0.07394214523029774,0.02220381424772005
0.968,-0.0081,1.674,0.018436005027873188,0.9823411288156757,0.07345746220164108,0.022633026744831725
0.969,-0.0095,-0.326,0.0175496082062935,0.9823411288156749,0.0688954501576664,0.022633026744831655
0.97,-0.0051,0.674,0.017506019510449083,0.9564779778735606,0.06867111253530332,0.020425881276953245
0.971,-0.0121,-0.326,0.01760944993458468,0.9564779778735607,0.06920343714334862,0.020425881276953255
0.972,-0.0157,-0.326,0.017792598719417074,0.9547590163102321,0.07014604765582279,0.02027918614949375
0.973,0.0032,0.674,0.01753859069114032,0.9634725923939208,0.0688387463929418,0.021022797397990563
0.974,0.0166,-0.326,0.017522068508229204,0.9634725923939208,0.0687537117948947,0.021022797397990563
0.975,0.0145,-0.326,0.017521982042368957,0.990812167078808,0.06875326678168366,0.023355939964204854
0.976,0.008,-1.326,0.01724898292194849,0.9924686863386761,0.06734822420365055,0.023497306303714462
0.977,-0.0101,0.674,0.01702069577329662,0.9908121670788057,0.06617330040397079,0.023355939964204656
0.978,-0.0079,0.674,0.017097367268399447,1.017275833860735,0.06656790502751321,0.025614333086214747
0.979,-0.0058,1.674,0.016921926270560855,1.0286571173566341,0.06566496412603273,0.02658560485208874
0.98,0.008,0.674,0.01691503227784821,1.0286571173566341,0.06562948286411878,0.02658560485208874
0.981,-0.0011,1.674,0.01640088578684457,1.0205002734050936,0.06298332887617258,0.025889504782915875
0.982,0.0069,1.674,0.016048279802119526,1.033436739177923,0.06116857423137765,0.026993494852214448
0.983,-0.0007,-0.326,0.016037644572547177,1.0318459918763496,0.06111383797305824,0.02685774145135987
0.984,0.0083,0.674,0.015954554541632134,1.049485973236362,0.06068619911815676,0.028363126661358106
0.985,-0.0004,0.674,0.01501996979908701,1.043068307390602,0.055876178653499066,0.02781544698700095
0.986,0.005,-1.326,0.015024499970520355,1.0510500230489896,0.05589949405370928,0.028496601714850377
0.987,-0.0099,-1.326,0.015060949607625088,1.04948597323636,0.05608708913462795,0.028363126661357936
0.988,0.0056,-0.326,0.015024290534425458,1.04948597323636,0.055898416150490196,0.028363126661357936
0.989,0.0037,0.674,0.014981827902848728,1.0494859732363586,0.05567987403486451,0.02836312666135782
0.99,-0.0054,0.674,0.01489522051750781,1.036749787632985,0.05523413243764365,0.027276228379108293
0.991,-0.004,-0.326,0.014846010974523361,1.038333022246936,0.05498086604238125,0.027411340651800484
0.992,-0.0084,-0.326,0.014831451843676022,1.0510500230489905,0.05490593467004509,0.02849660171485045
0.993,0.0006,-0.326,0.014799538010322336,1.0760332349313857,0.05474168397714499,0.03062865372207454
0.994,-0.0056,-2.326,0.01482487269469646,1.0745055512864925,0.05487207381207138,0.03049828213507323
0.995,-0.0002,-0.326,0.014860468740177879,1.0729756925550902,0.05505527571922026,0.030367724927520823
0.996,0.0044,-0.326,0.01485493215542135,1.07297569255509,0.055026780618914334,0.030367724927520802
0.997,0.0145,-0.326,0.014844496625619411,1.0729756925550902,0.054973072153943904,0.030367724927520823
0.998,0.0109,-2.326,0.014864885110291682,1.07297569255509,0.05507800541901082,0.030367724927520802
0.999,-0.008,-1.326,0.014856243672908236,1.066699359087134,0.055033530596379714,0.029832106471761217
1.0,-0.0055,0.674,0.014841439234128603,1.0775587527408037,0.05495733669950111,0.030758840478002338
1.0010000000000001,-0.022200000000001465,-0.326,0.014846560037094548,1.0524749647716776,0.05498369189870391,0.028618205369109695
1.002,-0.0288,1.674,0.014845625363235958,1.0775587527408035,0.05497888141958635,0.030758840478002317
1.0030000000000001,-0.01500000000000122,-1.326,0.014843971522672994,1.0760332349313857,0.054970369610446955,0.03062865372207454
1.004,-0.0205,0.673999999999778,0.014842326617890924,1.0867993676885888,0.05496190379102578,0.031547428900505894
1.0050000000000001,-0.009299999999994937,-0.326,0.014795070484519883,1.0883097943782964,0.054718690994745495,0.03167632778951645
1.006,0.0135,-0.32599999999977797,0.014771829223773085,1.0883097943782964,0.05459907536790344,0.03167632778951645
1.0070000000000001,0.05629999999999871,0.674,0.014730178662574102,1.0898181277034915,0.054384712728956425,0.03180504803208107
1.008,0.0505,-2.325999999999556,0.014594706268843682,1.0898181277034915,0.05368747795015518,0.03180504803208107
1.0090000000000001,0.03489999999999896,-0.326,0.014514778309232515,1.0883097943782964,0.05327611330452542,0.03167632778951645
1.01,0.0302,0.6739999999993339,0.014456547774947046,1.0898181277034915,0.05297641863925804,0.03180504803208107
1.0110000000000001,0.008399999999997357,-2.326,0.0145168956609915,1.0898181277034915,0.053287010663350114,0.03180504803208107
1.012,-0.0035,-0.326,0.01449847177764825,1.101941122444376,0.053192188597586273,0.03283961698152361
1.0130000000000001,0.00010000000000073275,-0.326,0.014355996161844027,1.101941122444376,0.052458910386916226,0.03283961698152361
1.014,0.0034,-0.32600000000022206,0.01404238350270896,1.1004494056532348,0.05084484240597809,0.03271231478380244
1.0150000000000001,0.0005000000000005551,-1.326,0.013994209501937697,1.106534323254245,0.05059690562825671,0.03323159792666243
1.016,0.003,-0.3259999999995559,0.013999020503200586,1.106534323254245,0.050621666373298374,0.03323159792666243
1.0170000000000001,-0.023899999999999203,1.674,0.014015281233083828,1.106534323254245,0.05070535535295758,0.03323159792666243
1.018,-0.0203,-0.32599999999977797,0.014020656072548791,1.1125859619269438,0.05073301799995341,0.0337480410661538
1.0190000000000001,-0.010500000000004598,0.674,0.013999517213375563,1.1081477761935281,0.05062422278792605,0.033369289012738675
1.02,-0.0312,-0.326,0.013984301164099355,1.1081477761935281,0.050545910458312686,0.033369289012738675
1.0210000000000001,-0.03919999999999509,-0.326,0.01398873570194006,1.1141906515582665,0.05056873366181055,0.03388498429689364
1.022,-0.0171,-1.325999999999778,0.013938809393293951,1.1141906515582665,0.05031177829395527,0.03388498429689364
1.0230000000000001,-0.019999999999997024,-0.326,0.013854946326005774,1.1141906515582665,0.04988016085840141,0.03388498429689364
1.024,-0.0066,-2.325999999999334,0.013863313879073006,1.1141906515582665,0.049923226082623756,0.03388498429689364
1.025,-0.0087,0.674,0.013771415403203792,1.1141906515582665,0.04945025286844739,0.03388498429689364
1.026,0.0069,-0.3259999999993339,0.013695351592894195,1.1141906515582665,0.04905877581178942,0.03388498429689364
1.027,0.0166,2.674,0.013677146870408947,1.1186048617872513,0.04896508169961187,0.034261690295438525
1.028,0.0076,1.6739999999997779,0.013647681889604852,1.1171353963968118,0.0488134344982329,0.03413628701863085
1.029,0.0028,0.674,0.013625495692174604,1.1171353963968116,0.048699248958051916,0.034136287018630834
1.03,0.0043,-0.3259999999995559,0.013626905905271746,1.1066644256283147,0.048706506891493355,0.033242700783616345
1.031,0.0108,1.674,0.01362504534127978,1.1066644256283147,0.048696931140392606,0.033242700783616345
1.032,0.0021,-0.3260000000004441,0.013625919305083913,1.096093430333306,0.048701429163516566,0.03234057851674476
1.033,-0.0145,-2.326,0.013627883813732493,1.0839050337354315,0.04871153988582188,0.03130042821286595
1.034,-0.0124,0.673999999999556,0.013680340758891362,1.1082776891619623,0.04898151966212388,0.03338037570593163
1.035,0.008,-1.326,0.013662119452795446,1.1082776891619623,0.048887740199198476,0.03338037570593163
1.036,0.0105,-0.32600000000022206,0.013670185758368706,1.1082776891619623,0.04892925499514508,0.03338037570593163
1.037,0.0127,-1.326,0.013661807587824053,1.1082776891619623,0.04888613512602927,0.03338037570593163
1.038,0.0015,0.673999999999778,0.013643374774189648,1.1007110334804466,0.048791267098801196,0.032734641942407126
1.039,-0.0003,-0.326,0.013638892172317464,1.1022023961854768,0.04876819652450378,0.03286191392263634
1.04,0.0164,0.6740000000002221,0.01363501437991952,1.1007110334804466,0.0487482387187076,0.032734641942407126
1.041,0.0052,1.674,0.013624424705444607,1.1067945127090058,0.048693736918475235,0.03325380233544271
1.042,0.007,2.673999999999334,0.013650908722947634,1.1082776891619623,0.048830042017817,0.03338037570593163
1.043,0.0089,-0.326,0.013628171979753493,1.1157930333904966,0.048713022987776286,0.03402173058147177
1.044,0.0103,-0.326,0.013693867598384315,1.1157930333904966,0.049051138148090215,0.03402173058147177
1.045,0.0118,0.674,0.013771233653844177,1.0930920007744118,0.049449317460346455,0.03208443835567558
1.046,-0.0005,-0.326,0.013806128055673765,1.1007110334804469,0.049628908223239954,0.03273464194240714
1.047,-0.0085,0.674,0.013805812143233492,1.124719562096599,0.04962728231899224,0.03478351507639495
1.048,-0.0041,0.674,0.013734288152278961,1.124719562096599,0.04925917031743271,0.03478351507639495
1.049,0.005,1.674,0.01369646173912102,1.1007110334804466,0.049064489393262245,0.032734641942407126
1.05,0.0039,-0.326,0.01368298603823945,1.1172642643055308,0.04899513410201338,0.0341472845270675
1.051,0.0007,-2.326,0.013673016464123583,1.1172642643055308,0.048943823767767354,0.0341472845270675
1.052,-0.0019,-0.326,0.013500997280146672,1.124719562096599,0.0480584938906827,0.03478351507639495
1.053,-0.008,1.674,0.013203290125192793,1.1128447364749217,0.04652628665187896,0.03377012472765544
1.054,-0.004,0.674,0.013118697908598848,1.106794512709006,0.0460909165089216,0.03325380233544273
1.055,-0.0138,-0.326,0.012959738141702514,1.1053093460345638,0.04527279943828938,0.03312705912067065
1.056,-0.0101,0.674,0.01302614492985908,1.106794512709007,0.045614574769604344,0.03325380233544282
1.057,-0.0038,0.674,0.012975258106082372,1.1082776891619643,0.045352675925545725,0.033380375705931796
1.058,-0.0027,-0.326,0.01169207201886914,1.1143198600183686,0.038748511467808854,0.033896010867776834
1.059,-0.0,0.674,0.010566517621483085,1.090082307119148,0.032955628876157744,0.03182759294168153
1.06,0.0138,0.674,0.00997580128018827,1.0977222296021845,0.029915393399278463,0.03247957924919359
1.061,0.0,1.674,0.00950809939542176,1.1038221811052595,0.02750827552684298,0.033000145376051976
1.062,0.0055,0.674,0.009473401230702052,1.0808697591727754,0.027329694736048828,0.031041399739895784
1.063,0.004,-0.326,0.00947145184351575,1.0930920007744274,0.027319661839262904,0.032084438355676904
1.064,0.0026,-1.326,0.009473798558773365,1.1007110334804622,0.02733173966152984,0.03273464194240845
1.065,0.0062,-0.326,0.009517331838439707,1.1007110334804615,0.027555792073854196,0.032734641942408396
1.066,0.0073,-1.326,0.009593949559509506,1.0930920007744267,0.02795011993897379,0.03208443835567685
1.067,0.004,-1.326,0.009674425966458507,1.0945937443126814,0.02836430727450921,0.03221259622985827
1.068,-0.0025,-1.326,0.009382198754734864,1.0839050337354479,0.026860303619481947,0.03130042821286736
1.069,-0.0069,-0.326,0.009174330640188634,1.0839050337354486,0.025790470313414575,0.031300428212867416
1.07,-0.0062,-1.326,0.009116134973807158,1.0823884604085678,0.025490955102533866,0.031171004773603506
1.071,-0.0026,-0.326,0.008577770453611544,1.0823884604085678,0.022720158360726914,0.031171004773603506
1.072,0.0036,-0.326,0.007704751017806917,1.0823884604085678,0.018226995610360893,0.031171004773603506
1.073,-0.0058,0.674,0.007655098900485268,1.0761670247171038,0.01797145142099148,0.030640071260481096
1.074,-0.0047,-0.326,0.0074170924971868075,1.0761670247171038,0.01674650560444891,0.030640071260481096
1.075,-0.0013,-0.326,0.007406676686081334,1.0589715803646045,0.016692898625549492,0.029172622566556738
1.076,-0.0038,1.674,0.007395851825124903,1.0574192475496624,0.016637186392771418,0.02904014743447377
1.077,0.0046,-0.326,0.007479307952916221,1.0652934441538093,0.01706670943579065,0.029712126552057874
1.078,0.0013,0.674,0.007310397224674609,1.0319855102484938,0.016197377825122764,0.02686964786382497
1.079,0.0061,0.674,0.007380946979106693,1.0319855102484974,0.016560475730691783,0.02686964786382527
1.08,-0.0077,0.674,0.007378836665622726,1.031985510248496,0.01654961459570569,0.026869647863825157
1.081,-0.0019,0.674,0.007404428749810725,1.0319855102484974,0.016681329188373114,0.02686964786382527
1.082,-0.0073,-0.326,0.00734653465449935,1.020641342701461,0.01638336607111506,0.025901543550304683
1.083,-0.012,-2.326,0.007347383101238057,1.0335760428213616,0.01638773276574485,0.027005382939863275
1.084,-0.0044,0.674,0.007213603240385758,1.0090269892765522,0.01569920893353865,0.02491038173937533
1.085,0.0047,0.674,0.0071064864253851225,1.0073976981098853,0.015147911604567828,0.024771339028670368
1.086,-0.0015,-1.326,0.007062548513514417,0.9990672975773492,0.014921776674634263,0.024060427747127355
1.087,-0.0069,-0.326,0.007041492398703957,1.0007101518521333,0.014813407322414067,0.024200627925175647
1.088,-0.0044,0.674,0.006975227205269573,0.9939776123649604,0.014472360735621003,0.02362607712702718
1.089,-0.0018,-0.326,0.007056548097323218,0.9939776123649618,0.014890894376473125,0.023626077127027304
1.09,0.0004,-1.326,0.0071732265172872,1.0023503134889171,0.015491402347834082,0.024340598315145442
1.091,-0.0094,0.674,0.007044471529378184,1.0007101518521304,0.014828739992484088,0.0242006279251754
1.092,-0.0029,-1.326,0.007027015919542147,0.9890073129600727,0.014738901332903826,0.023201914818650696
1.093,0.0134,-0.326,0.0070177434535190495,0.9668764771971263,0.014691178799784484,0.021313282843224604
1.094,0.0156,0.674,0.00696510811673658,0.9668764771971263,0.014420280896616967,0.021313282843224604
1.095,0.0098,-1.326,0.006914538595976318,0.9668764771971263,0.014160015113674287,0.021313282843224604
1.096,0.0043,-2.326,0.006813183763076358,0.9651760353560965,0.013638372935873345,0.021168168177528233
1.097,-0.0037,-0.326,0.0068201099246396665,0.9737964039234788,0.01367401976097592,0.02190382515364546
1.098,0.0039,-0.326,0.006830840756960736,0.9721080667101183,0.013729248057263522,0.021759743489463888
1.099,-0.0052,-2.326,0.00694731456665863,0.9721080667101183,0.014328702962463268,0.021759743489463888
1.1,-0.0017,0.674,0.006946600372318697,0.9583440966062552,0.014325027223673157,0.020585134707156255
1.101,-0.005,-1.326,0.007013290870502793,0.9858259083820186,0.0146682627233135,0.022930415699627813
1.102,0.0058,-0.326,0.007056300636191107,0.9583440966062553,0.014889620770072897,0.020585134707156266
1.103,0.0014,0.674,0.007073742394076344,0.9583440966062553,0.014979388137919202,0.020585134707156266
1.104,-0.0023,-0.326,0.00703869274687619,0.944379543211961,0.014798998374811518,0.01939340826964111
1.105,-0.0161,0.674,0.007032148815309041,0.9426385196382644,0.0147653187700369,0.01924483038372324
1.106,-0.0071,0.674,0.007054542114918178,0.944379543211961,0.01488057020148851,0.01939340826964111
1.107,-0.0024,-1.326,0.007171793238820567,0.944379543211961,0.015484025704024037,0.01939340826964111
1.108,-0.0068,-0.326,0.007261427953017306,0.9426385196382635,0.015945348032543907,0.019244830383723165
1.109,0.0023,-1.326,0.00726219594930096,0.9443795432119602,0.015949300673404592,0.019393408269641033
1.11,0.0012,-1.326,0.007343711060874832,0.9426385196382635,0.01636883390244214,0.019244830383723165
1.111,0.0022,0.674,0.007397018925638032,0.940894274493369,0.016643193100453355,0.019095977570891536
1.112,0.0029,1.674,0.007789421679818295,0.9356420292933321,0.018662769487774882,0.018647754180965325
1.113,0.0021,-1.326,0.0077824120680239734,0.948003876527706,0.018626693169978198,0.01970270665597583
1.114,0.0097,-0.326,0.007774416732651903,0.949735064553778,0.018585543635847423,0.019850445182280765
1.115,0.0121,-0.326,0.007780899682175041,0.9408942744933579,0.01861890938478178,0.01909597757089059
1.116,0.0128,0.674,0.007759743919673168,0.9426385196382525,0.018510027176516394,0.01924483038372223
1.117,0.0037,0.674,0.007725445761999767,0.9354881423987285,0.01833350509906428,0.01863462156759001
1.118,-0.0051,-0.326,0.007715974952664792,0.9549097976443582,0.01828476175387116,0.020292053736239154
1.119,-0.0019,-0.326,0.007740911144237214,0.9461173629992227,0.01841310066880715,0.01954171274638598
1.12,-0.0045,-0.326,0.0077535609188720475,0.9461173629992227,0.01847820517147767,0.01954171274638598
1.121,-0.0107,-0.326,0.007741847141645949,0.9372424486225625,0.018417917959830565,0.018784332986738907
1.122,-0.0147,0.674,0.00789695935475385,0.9372424486225626,0.019216232853497175,0.018784332986738917
1.123,-0.0064,-0.326,0.007970478262895936,0.9389934773103754,0.019594612080767352,0.018933764702970292
1.124,-0.0053,-1.326,0.0079620928253577,0.9389934773103754,0.019551454810668778,0.018933764702970292
1.125,0.0077,-0.326,0.007950821352037164,0.9389934773103753,0.019493444001300143,0.01893376470297028
1.1260000000000001,0.013099999999998224,-1.326,0.007950299691898808,0.9389934773103753,0.019490759176878283,0.01893376470297028
1.127,0.0051,-0.326,0.007987822710958985,0.9265114179005117,0.01968387862486293,0.017868553394497857
1.1280000000000001,0.012699999999996691,1.674,0.007977295141618441,0.9282826888569183,0.019629696460671787,0.018019712573538627
1.129,-0.0022,0.673999999999778,0.00813337502308797,0.9282826888569183,0.020432991646023625,0.018019712573538627
1.1300000000000001,0.007499999999999578,-0.326,0.008133375023087969,0.9265114179005117,0.020432991646023614,0.017868553394497857
1.131,0.0056,0.6740000000002221,0.008107898677206845,0.9265114179005117,0.02030187272285439,0.017868553394497857
1.1320000000000001,-0.002400000000000333,1.674,0.00810584618257572,0.9247367542001361,0.02029130916373569,0.017717104680763825
1.133,-0.0039,0.673999999999778,0.008113430759691367,0.9247367542001362,0.02033034465134988,0.01771710468076383
1.1340000000000001,-0.00030000000000024424,-0.326,0.00805474434496539,0.8972146306000834,0.02002830370955085,0.01536838350188647
1.135,-0.0014,-0.32599999999977797,0.008083350611758838,0.8972146306000833,0.020175531373806555,0.01536838350188646
1.1360000000000001,-0.008999999999999843,0.674,0.008181563373109008,0.904667567397006,0.020681002274923962,0.016004412565418943
