time_sec,bts_raw,diy_raw,bts_rms,diy_rms,bts_norm_rms,diy_norm_rms
0.0,0.012,0.518,0.008802380250063533,0.6212743434560873,0.06053457119515409,0.0
0.0010000000000000009,-0.0004,0.518,0.008795457738569134,0.6231281798932059,0.06045314394905805,0.00043692305119722916
0.0020000000000000018,-0.0084,0.518,0.008796033901926544,0.6413918379187247,0.06045992117081251,0.004741409159440703
0.0030000000000000027,-0.007,0.518,0.00883070886862982,0.6582526014177458,0.06086779150073603,0.008715252852446089
0.0040000000000000036,-0.0059,-0.482,0.008967640448372114,0.6603009368683446,0.062478473036045534,0.009198016572605851
0.0050000000000000044,0.0028,0.518,0.009150005840705508,0.6775633464119456,0.06462357769826936,0.013266522562556875
0.006000000000000005,0.0038,0.518,0.0093162547628197,0.6795534771869968,0.06657910957498026,0.013735568263195056
0.007000000000000006,-0.0052,-1.482,0.009286912128309717,0.6812487409875818,0.06623396173040334,0.014135117984791373
0.008000000000000007,-0.0114,0.518,0.009298535867138837,0.6971462146649265,0.06637068798112329,0.01788192787931977
0.009000000000000008,0.003,0.5180000000000018,0.009312864243520264,0.7126891623604967,0.06653922800170849,0.02154518100984023
0.010000000000000009,-0.0028000000000002,1.518,0.009281585412027933,0.7143057894811813,0.06617130530319314,0.021926197177218817
0.01100000000000001,-0.004599999999999845,0.518,0.009274626336817261,0.7302927646211992,0.06608944797002168,0.02569410130173147
0.01200000000000001,-0.003199999999999512,0.518,0.009300624047062054,0.7318705082173359,0.06639525056085151,0.026065953171847053
0.013000000000000012,0.001200000000000111,0.5179999999999982,0.00929549432485294,0.7334448578717617,0.06633491131070163,0.026437005137862023
0.014000000000000012,0.0022000000000004,-0.482,0.009296007424454586,0.7352837544067682,0.06634094673405469,0.026870407065250967
0.015000000000000013,0.005799999999999389,0.518,0.00932284630108698,0.7371180634406516,0.06665664369089694,0.027302727783452337
0.016000000000000014,0.0003000000000000777,0.518,0.009328360224896165,0.7386812290770111,0.06672150217922573,0.027671143834453266
0.017000000000000015,0.0009999999999984678,0.518,0.009390291798996867,0.7405071222795279,0.06744998309680798,0.028101481060127775
0.018000000000000016,-0.012800000000001532,-0.4820000000000034,0.009386583306884699,0.7809416588039221,0.06740636131299338,0.03763132992826406
0.019000000000000017,-0.026599999999999797,-1.482,0.009400186981292726,0.7824172756244897,0.0675663769005051,0.03797911196055731
0.020000000000000018,-0.02479999999999911,-0.482,0.009386328811234527,0.7838901147073332,0.06740336776362135,0.03832623931932188
0.02100000000000002,-0.016799999999998157,0.518,0.009398561750274727,0.8221938872581028,0.06754725983783608,0.04735389722923954
0.02200000000000002,-0.00019999999999975577,-0.482,0.00939210204640856,0.8354135417678241,0.06747127644700407,0.0504695829868991
0.02300000000000002,0.002000000000001088,1.518,0.009338887910283629,0.8367931073504892,0.06684533591060493,0.050794727099743045
0.02399999999999991,0.0118,0.518,0.00906363256091519,0.8381704022748087,0.06360759696421071,0.051119336050502194
0.02499999999999991,0.0285,-0.482,0.00902463847621591,0.8740987927907398,0.06314892225725395,0.059587149981932784
0.025999999999999912,0.0129,-1.4819999999999964,0.008977961939449546,0.8754173966162975,0.0625998813709714,0.05989792627009254
0.026999999999999913,0.0148,-0.482,0.008970452315428316,0.8769586411310625,0.06251154811161022,0.06026117582250656
0.027999999999999914,0.0057,1.518,0.00894486196289327,0.8782729513053826,0.06221053713672897,0.0605709401577443
0.028999999999999915,0.0043,0.518,0.009038432560665105,0.8795852975890935,0.06331117757600972,0.060880241631717666
0.029999999999999916,0.0148,1.518,0.00918236254620432,0.8808956887595268,0.06500417907735569,0.06118908231311971
0.030999999999999917,0.0057,-0.482,0.009275429636805641,0.882204133528827,0.06609889692592384,0.06149746425527975
0.03199999999999992,-0.0005,-0.482,0.009338334727735157,0.9164077746964298,0.06683882900461469,0.06955877913817866
0.03299999999999992,0.005,-0.482,0.009339879303141044,0.9176655862918089,0.0668569973416107,0.06985522755675573
0.03399999999999992,0.0075,-0.482,0.009311971317844414,0.9505941324103592,0.06652872480806096,0.07761602055528363
0.03499999999999992,0.0101,0.518,0.009427205518367825,0.9518067678437839,0.06788418714456888,0.07790182159088381
0.03599999999999992,0.0025,0.5179999999999931,0.009417893710481845,0.9530178603013996,0.06777465538388575,0.07818725896888995
0.03699999999999992,-0.0,-0.482,0.009284813925566597,0.954227415658178,0.06620928125551187,0.07847233407394993
0.03799999999999992,-0.0025,0.518,0.009316146283201434,0.955435439751903,0.06657783356459297,0.07875704828194688
0.038999999999999924,-0.0003,0.518,0.009206876924874142,0.9568478037231921,0.06529253372240817,0.07908992251150719
0.039999999999999925,-0.0039,-1.482,0.009200154652895486,0.9580525237324535,0.06521346182846138,0.07937385799348692
0.040999999999999925,0.0011,-1.482,0.009192425906555482,0.969421289097054,0.06512255110469435,0.08205331533502419
0.041999999999999926,-0.0028,-0.482,0.009229174321389264,0.970610403042756,0.06555481072907071,0.0823335726883562
0.04299999999999993,-0.0112,-0.48199999999999305,0.009229140362999898,0.9720007173098203,0.06555441128760642,0.08266125011422067
0.04399999999999993,-0.0075,0.518,0.009259988105304446,0.9832082139482338,0.06591726322453309,0.08530269869592481
0.04499999999999993,0.0092,1.518,0.00924975738838447,0.9942893892120876,0.06579692263643065,0.08791437511472458
0.04599999999999993,0.007,0.518,0.009260575645933846,1.005248420552958,0.0659241742734292,0.09049726393692377
0.04699999999999993,0.0183,0.518,0.009283992221238074,1.0065908935511987,0.0661996158153561,0.0908136658517836
0.04799999999999993,0.0125,-0.482,0.009410004353343089,1.0174174288386606,0.06768185544764918,0.09336532722652968
0.04899999999999993,0.0034,-2.482,0.009435004822633705,1.0281299635888166,0.06797592781821739,0.09589012028560319
0.04999999999999993,0.002,-0.482,0.00947487156789348,1.0387320249003646,0.06844486734687584,0.09838887631632491
0.050999999999999934,-0.0023,1.5179999999999791,0.009399645690051417,1.047939109453454,0.06756000986808466,0.10055885603784735
0.051999999999999935,-0.0089,-1.4819999999999862,0.009402656336221508,1.0570660029963055,0.06759542311756767,0.10270993587145616
0.052999999999999936,-0.0201,0.518,0.009365847054490709,1.0568796589370184,0.06716244753572319,0.10266601720995723
0.05399999999999994,-0.0186,1.518,0.009359993821015909,1.0566932820166275,0.06709359785840653,0.1026220908035605
0.05499999999999994,-0.0176,0.518,0.009353177004756482,1.0566932820166275,0.06701341387090476,0.1026220908035605
0.05599999999999994,-0.0038,-0.482,0.009369008569854415,1.0657452086814927,0.06719963541035008,0.10475550200340387
0.05699999999999994,0.0053,-1.482,0.009374784943014764,1.0747208974408404,0.06726758100484291,0.1068709450062539
0.05799999999999994,-0.0059,-1.482,0.009427216660474564,1.065745208681493,0.06788431820553834,0.10475550200340392
0.05899999999999994,0.0035,-0.4819999999999861,0.009364830289815747,1.065745208681493,0.06715048766429836,0.10475550200340392
0.05999999999999994,-0.0008,1.518,0.009376128599204479,1.092991805175267,0.06728338599459509,0.11117713976843946
0.06099999999999994,-0.0073,-0.482,0.009395005813700915,1.1104302775578763,0.06750543251508884,0.11528714128155622
0.061999999999999944,0.0014,-0.482,0.00938421235363002,1.1104302775578763,0.06737847256274614,0.11528714128155622
0.06299999999999994,0.0025,0.518,0.009413485619260335,1.11025289015679,0.0677228044438045,0.11524533357782644
0.06399999999999995,0.0072,0.518,0.009417893433405228,1.1188715912337714,0.06777465212472382,0.11727663962862596
0.06499999999999995,0.0047,-0.482,0.009444275425815269,1.1188715912337714,0.06808497490139447,0.11727663962862596
0.06599999999999995,0.0123,0.518,0.0094393477629063,1.118695542341273,0.06802701240892456,0.1172351473924555
0.06699999999999995,-0.0026,-2.482,0.00946040641560458,1.118519465739635,0.06827471847587749,0.11719364862563239
0.06799999999999995,-0.0091,-0.482,0.009520385546716602,1.118343361415769,0.06898023344304471,0.11715214332507194
0.06899999999999995,-0.0033,-0.482,0.009435122750555924,1.118343361415769,0.0679773149659241,0.11715214332507194
0.06999999999999995,-0.0051,-2.482,0.009052100250358101,1.1097205578226594,0.06347194615445072,0.11511987036919472
0.07099999999999995,-0.0098,-1.4819999999999862,0.008719013925069569,1.1097205578226594,0.0595539602901525,0.11511987036919472
0.07199999999999995,-0.0112,-0.482,0.008588010702180023,1.118343361415769,0.0580130120839656,0.11715214332507194
0.07299999999999995,-0.0022,-0.482,0.008627853020118936,1.118343361415769,0.058481664282011604,0.11715214332507194
0.07399999999999995,-0.0058,-2.482,0.008630392491156613,1.109010383896926,0.05851153525200652,0.11495249241054674
0.07499999999999996,-0.0112,-0.482,0.008552422118996608,1.11763866663591,0.05759439518120853,0.11698605672367936
0.07599999999999996,-0.0003,0.518,0.00806548942485143,1.1178148819797717,0.05186676463116164,0.11702758819008399
0.07699999999999996,-0.0017,-0.482,0.007980774765218732,1.117814881979772,0.050870293705337126,0.11702758819008403
0.07799999999999996,0.0131,-0.482,0.007848308583178885,1.117814881979772,0.049312137187563256,0.11702758819008403
0.07899999999999996,0.0189,-0.482,0.007840530075444514,1.117814881979772,0.049220641136735584,0.11702758819008403
0.07999999999999996,0.0134,-0.482,0.007857301277770175,1.11763866663591,0.049417915322586076,0.11698605672367936
0.08099999999999996,0.0119,-2.482,0.007716999720706543,1.1084774548649774,0.047767593842596864,0.11482688856867139
0.08199999999999996,-0.0019,-0.482,0.00770967694411421,1.1084774548649774,0.04768145840863295,0.11482688856867139
0.08299999999999996,-0.0037,-2.482,0.007722137164402454,1.1084774548649774,0.04782802391807885,0.11482688856867139
0.08399999999999996,-0.015,-0.482,0.007713159000174335,1.117814881979772,0.04772241669898138,0.11702758819008403
0.08499999999999996,0.0017,-0.482,0.007793090897274078,1.1179910695489512,0.04866262954822415,0.11706911311038848
0.08599999999999997,-0.0005,-0.482,0.0077581722756658875,1.143993998211502,0.048251893185081184,0.12319763594218938
0.08699999999999997,-0.0104,-0.4819999999999861,0.007756316282738027,1.1438218159871674,0.04823006174529061,0.1231570550250643
0.08799999999999997,-0.005,0.518,0.007768310466042362,1.143993998211502,0.04837114541361438,0.12319763594218938
0.08899999999999997,0.0062,-0.482,0.007844819200508363,1.1438218159871674,0.04927109271668505,0.1231570550250643
0.08999999999999997,0.0019,-1.482,0.007844760472630621,1.1436496078399294,0.04927040191980339,0.12311646799827719
0.09099999999999997,0.0084,-0.482,0.007894987485793894,1.1350455262799732,0.04986120590255218,0.12108860756104843
0.09199999999999997,-0.0004,0.518,0.007932832337856518,1.126550571061812,0.05030636256063286,0.11908646666048879
0.09299999999999997,-0.008,-1.482,0.007927857105338472,1.13573942063803,0.05024784052235821,0.12125214865564572
0.09399999999999997,0.0011,-1.482,0.0078866438385485,1.1448545208989316,0.04976306229988153,0.12340044897935279
0.09499999999999997,-0.0077,-1.482,0.007900871660248878,1.1537269153653642,0.04993041952853254,0.1254915469770405
0.09599999999999997,0.0068,0.518,0.007885822591634476,1.1448545208989311,0.0497534022401434,0.12340044897935269
0.09699999999999998,0.0165,-1.482,0.007858239043332138,1.1446824681137404,0.04942894595319696,0.12335989856920467
0.09799999999999998,0.0075,-1.482,0.007643630095060594,1.1446824681137404,0.0469045708532842,0.12335989856920467
0.09899999999999998,0.0089,-1.482,0.0076081147155137585,1.1448545208989311,0.04648681502104115,0.12340044897935269
0.09999999999999998,0.0013,-1.482,0.007604321998949615,1.1186955423412728,0.0464422025324536,0.11723514739245545
0.10099999999999998,-0.0024,-1.482,0.007702446626203624,1.1186955423412728,0.04759641053600256,0.11723514739245545
0.10199999999999998,-0.0013,-0.482,0.007699925333163577,1.1181672293565774,0.04756675338786808,0.11711063148768718
0.10299999999999998,0.0062,-0.482,0.007654081215565367,1.1095430569556455,0.047027503976907054,0.11507803592314918
0.10399999999999998,-0.0047,-0.48200000000001386,0.007483751127618654,1.1093655276881114,0.04502396667689388,0.11503619478350237
0.10499999999999998,-0.0061,-1.482,0.007286366124486298,1.100135424757773,0.042702191228961205,0.11286078995574086
0.10599999999999998,-0.005,-1.482,0.007076658789739421,1.100135424757773,0.04023547221110243,0.11286078995574086
0.10699999999999998,-0.0112,0.518,0.0070749546846296885,1.100314443249166,0.04021542737820385,0.11290298208440662
0.10799999999999998,-0.0036,0.518,0.007130197683270849,1.0915492276824879,0.04086523276300919,0.11083714463881887
0.10899999999999999,0.0055,-2.482,0.007109620216748304,1.0825311254970882,0.04062318673218351,0.10871170539080326
0.10999999999999999,0.0066,-2.482,0.007136330071188166,1.0825311254970882,0.04093736604303391,0.10871170539080326
0.11099999999999999,-0.001,0.518,0.007271610172679831,1.0728866646754813,0.042528621778033064,0.10643864226346593
0.11199999999999999,0.0081,-0.482,0.007239446654872714,1.0728866646754813,0.0421502928027885,0.10643864226346593
0.11299999999999999,-0.0031,-1.482,0.007254120884873577,1.0730702290410612,0.042322900986757145,0.10648190579043862
0.11399999999999999,0.0074,-0.482,0.0072669808699437665,1.0825311254970882,0.042474168799017054,0.10871170539080326
0.11499999999999999,-0.0049,-0.482,0.0072379524366512965,1.0825311254970882,0.04213271680093787,0.10871170539080326
0.11599999999999999,-0.0063,-0.482,0.007307339654330893,1.0825311254970882,0.04294889602353474,0.10871170539080326
0.11699999999999999,-0.0107,-0.482,0.007211283819366479,1.091368771423518,0.0418190225492997,0.11079461364865273
0.118,-0.0016,-0.4819999999999861,0.007206572405044971,1.0730702290410612,0.041763603718470994,0.10648190579043862
0.119,-0.0005,0.5179999999999861,0.007240843481491421,1.0730702290410612,0.04216672321896433,0.10648190579043862
0.12,0.0049,-0.482,0.007347647807336805,1.0730702290410612,0.04342302768762011,0.10648190579043862
0.121,0.0075,-1.482,0.007357840913049231,1.0451160504392556,0.04354292586734871,0.0998935009215618
0.122,0.0083,-0.482,0.0073307042472991095,1.0356937192536728,0.043223726114188434,0.09767279061046527
0.123,0.0029,-0.482,0.007247493535961983,1.0356937192536726,0.04224494564190501,0.09767279061046522
0.124,-0.0022,-1.482,0.007296343985806155,1.0456812719624546,0.04281955755906577,0.1000267156472915
0.125,0.0015,0.518,0.007273252123158669,1.0169745153958039,0.04254793550626971,0.09326093878697024
0.126,0.0055,-1.482,0.007222091893908349,1.0171681700585637,0.04194615440690042,0.09330658045439973
0.127,0.003,-0.482,0.007226296521319803,1.0171681700585637,0.04199561206850946,0.09330658045439973
0.128,0.0045,1.518,0.007275090031011962,1.0171681700585637,0.04256955421722353,0.09330658045439973
0.129,0.0067,-0.482,0.007171123694604133,1.0273358402254837,0.04134663209318888,0.09570295663082376
0.13,0.0003,0.518,0.006918560453632777,1.0275275421260286,0.03837581302065584,0.09574813805979412
0.131,0.0046,-0.482,0.006789702535031902,1.0277192082681503,0.03686009932948649,0.09579331106100948
0.132,-0.0044,-0.482,0.006691990112066028,0.9984961759940932,0.03571073995060777,0.08890585531207518
0.133,-0.0033,1.518,0.00678543989638137,1.0082661812532794,0.03680995930058278,0.09120850748924975
0.134,-0.0134,0.518,0.00678057902659753,0.9786636071226622,0.03675278247387042,0.0842315990881262
0.135,0.006899999999999034,-2.482,0.006613905316650214,0.9786636071226623,0.03479225395635157,0.08423159908812623
0.136,-0.0018000000000002775,-0.482,0.006615367848273284,0.9788648410899726,0.034809457239075095,0.08427902709053317
0.137,-0.004300000000000766,0.518,0.006616616585787091,0.9888288304384842,0.03482414573138434,0.08662739857632351
0.138,-0.011199999999998746,-0.482,0.006546454948431488,0.9888288304384842,0.0339988572625853,0.08662739857632351
0.139,9.999999999891198e-05,-0.482,0.006590555128586734,0.9888288304384842,0.03451759330589656,0.08662739857632351
0.14,-0.009699999999999789,-0.482,0.006781016838826445,0.9888288304384842,0.03675793231640034,0.08662739857632351
0.14100000000000001,-0.0077999999999991115,0.5180000000000278,0.006807751346123282,0.9788648410899726,0.03707240161077095,0.08427902709053317
0.14200000000000002,0.0002000000000008438,1.518,0.006768866467560899,0.9790660336963254,0.03661501146000329,0.08432644534474691
0.14300000000000002,0.007800000000000122,1.518,0.006768912768702772,0.9790660336963254,0.03661555608524181,0.08432644534474691
0.14400000000000002,0.008899999999999878,1.5179999999999723,0.0067837570117511275,0.9692049013337517,0.03679016407726695,0.08200231579704405
0.14500000000000002,0.007799999999998878,0.518,0.0067847407780133,0.959037049328713,0.036801735799119016,0.07960589676394506
0.14600000000000002,-0.0022999999999996,-0.482,0.0067699673466529026,0.9489678100002326,0.036627960741896004,0.07723271934519015
0.14700000000000002,0.001300000000000977,0.518,0.006818541224150251,0.9489678100002327,0.03719931942869863,0.07723271934519016
0.14800000000000002,0.010099999999999144,0.518,0.0066489555168032675,0.9495902632524765,0.035204538035025566,0.07737942278069969
0.14900000000000002,0.0023999999999983566,-0.482,0.006612987656511424,0.9392100879354227,0.03478145981927947,0.07493296214335314
0.15000000000000002,-0.012399999999998756,-0.482,0.006553420459758172,0.9392100879354227,0.03408079030169136,0.07493296214335314
0.1509999999999999,-0.0012,-1.482,0.0065598965691329265,0.928713901314835,0.03415696666517298,0.07245915928114874
0.1519999999999999,-0.003,0.518,0.006575375468656579,0.9180977244886178,0.0343390399144306,0.06995707642308942
0.1529999999999999,-0.0121,-0.482,0.006632898242736865,0.9183122306312459,0.03501566155456114,0.0700076324896663
0.15399999999999991,-0.0074,0.518,0.006612315987744168,0.9185266866796474,0.034773559198522014,0.07005817674974187
0.15499999999999992,-0.003,0.518,0.0065959865765886595,0.9187410926689017,0.03458148165819016,0.07010870921158383
0.15599999999999992,0.0035,0.518,0.0065882521000015515,0.9080083240665824,0.0344905035313944,0.06757914731948511
0.15699999999999992,-0.0103,0.518,0.00657605190479748,0.9086588359893234,0.034346996612250165,0.06773246378712665
0.15799999999999992,0.0024,-0.482,0.006530330595213762,0.9084420504389451,0.03380919175193044,0.06768137049635392
0.15899999999999992,0.0071,-0.482,0.0065998500772451694,0.9195982167346073,0.034626926756981896,0.07031072124163365
0.15999999999999992,0.014,-0.482,0.006578142196347721,0.8868194419683091,0.03437158403035871,0.0625852272343747
0.16099999999999992,-0.0026,-0.482,0.006545111799551461,0.8530125944558223,0.0339830582401516,0.05461743100879511
0.16199999999999992,-0.0048,0.518,0.006545065422900177,0.8527816631966805,0.03398251272672049,0.05456300377436341
0.16299999999999992,0.005,1.518,0.006590541739359355,0.8527816631966805,0.034517435812779544,0.05456300377436341
0.16399999999999992,0.0031,0.518,0.006696817595928595,0.8412077545412033,0.035767524069611395,0.05183519705809825
0.16499999999999992,0.0111,-0.482,0.006656704031621698,0.8527816631966805,0.035295681288960164,0.05456300377436341
0.16599999999999993,0.0034,-1.482,0.006646805465916777,0.8530125944558223,0.03517924768732517,0.05461743100879511
0.16699999999999993,-0.0002,-1.482,0.006641976368243583,0.8651117434943111,0.035122444585593215,0.0574690294610314
0.16799999999999993,-0.0115,-0.482,0.006603796674657499,0.8653393842577162,0.0346733492958243,0.05752268117211677
0.16899999999999993,-0.0129,-0.482,0.006602712394473097,0.8999966742131847,0.03466059526147076,0.06569091466368988
0.16999999999999993,-0.0064,-0.482,0.006627804965943715,0.8999966742131849,0.03495575099995871,0.06569091466368991
0.17099999999999993,-0.0075,-0.482,0.00668778662251868,0.91147235615037,0.03566129567332328,0.06839557073052027
0.17199999999999993,-0.0021,-0.4819999999999445,0.0066783128927673605,0.9006529727048391,0.03554985927852173,0.06584559494385284
0.17299999999999993,-0.0087,1.5179999999999445,0.006626836428803013,0.9006529727048392,0.034944358413298085,0.06584559494385286
0.17399999999999993,-0.0004,-0.48199999999997223,0.0066265368955492785,0.9006529727048392,0.03494083510127679,0.06584559494385286
0.17499999999999993,0.0072,0.518,0.006633639272098161,0.8899233785408591,0.035024378041375995,0.0633167812220119
0.17599999999999993,0.0025,0.518,0.0066321774004400175,0.889923378540859,0.03500718252160477,0.06331678122201187
0.17699999999999994,0.0086,-0.482,0.006609520063909818,0.879062831716306,0.03474067165787876,0.060757103808599035
0.17799999999999994,0.0046,1.518,0.006611094294650995,0.8792868606551829,0.0347591888209167,0.06080990426368273
0.17899999999999994,0.0009,0.518,0.006608074443947355,0.8673854626919533,0.03472366730150606,0.05800491294541455
0.17999999999999994,0.0016,0.518,0.006703719708843333,0.8673854626919533,0.03584871137386445,0.05800491294541455
0.18099999999999994,0.0031,-0.482,0.006908908604309435,0.8790628317163061,0.03826228146339232,0.06075710380859906
0.18199999999999994,0.0114,-1.482,0.0068971404652219525,0.879286860655183,0.03812385667950511,0.06080990426368276
0.18299999999999994,0.0027,0.518,0.00695793898531288,0.879510832529426,0.03883900985212533,0.060862691269438614
0.18399999999999994,0.0015,-0.482,0.0069521528507699975,0.8678394916808333,0.0387709494376718,0.05811192116209509
0.18499999999999994,0.0022,0.518,0.007070128429040088,0.8676125068860467,0.040158657706974736,0.058058424053543445
0.18599999999999994,0.0014,-1.482,0.007058895823305,0.8327900723091046,0.04002653222733762,0.049851268308389436
0.18699999999999994,-0.004,-0.482,0.007068959542147622,0.8330265456468724,0.04014490847149447,0.04990700173243675
0.18799999999999994,-0.0091,0.518,0.007070208604870034,0.8451787662785405,0.040159600789126525,0.0527711084092173
0.18899999999999995,-0.0171,-0.482,0.006983317750250352,0.8451787662785403,0.03913753199107002,0.05277110840921725
0.18999999999999995,-0.0063,-0.482,0.006983370682779428,0.8454117743347748,0.03913815461915451,0.05282602511537594
0.19099999999999995,0.0042,0.518,0.006949649440141114,0.8456447181882168,0.038741502634510476,0.05288092668984372
0.19199999999999995,0.0005,0.518,0.006959965441188161,0.8454117743347745,0.03886284639199858,0.05282602511537589
0.19299999999999995,0.0092,0.518,0.006967688136729992,0.833262951875406,0.038953685942199154,0.0499627193397859
0.19399999999999995,0.0016,-0.482,0.006971103708089573,0.8206944038657762,0.0389938621946879,0.047000490183247264
0.19499999999999995,0.0063,0.518,0.006914422364810687,0.8199741098896552,0.03832713803078312,0.04683072707173193
0.19599999999999995,0.0106,0.518,0.006872286270420177,0.8199741098896552,0.0378315048880663,0.04683072707173193
0.19699999999999995,0.0066,1.518,0.006868556520302332,0.8202142781646081,0.03778763305326065,0.04688733134025968
0.19799999999999995,0.0029,-0.482,0.00686918318366893,0.8202142781646081,0.037795004290161104,0.04688733134025968
0.19899999999999995,-0.0007,-1.482,0.00684386983624435,0.8202142781646081,0.03749725163609563,0.04688733134025968
0.19999999999999996,0.0032,-0.482,0.006862724142043921,0.8555487243129848,0.03771902868905596,0.055215160977435784
0.20099999999999996,-0.0051,-0.482,0.006790100511283472,0.8905871003561897,0.036864780594400695,0.06347321107466446
0.20199999999999996,-0.0088,0.518,0.006987002869936568,0.8795108325294251,0.03918087885265714,0.060862691269438406
0.20299999999999996,-0.0033,0.518,0.007032238517755823,0.8792868606551822,0.03971297103195837,0.06080990426368258
0.20399999999999996,-0.0008,0.5179999999999723,0.006927696509701953,0.8795108325294252,0.038483277470009805,0.06086269126943843
0.20499999999999996,-0.0052,-0.4819999999999445,0.0069026805421219814,0.8795108325294252,0.038189022798116055,0.06086269126943843
0.20599999999999996,-0.003,1.5179999999999445,0.006918915223411036,0.9134151011276943,0.03837998606190902,0.06885344826825492
0.20699999999999996,-0.0081,-0.4819999999999445,0.006925326994122922,0.9131994446737028,0.038455405630672554,0.06880262108954502
0.20799999999999996,-0.0102,1.5179999999999445,0.0068486461680726095,0.9129837372793682,0.03755343407039434,0.0687517819049161
0.20899999999999996,-0.0012,-0.482,0.006859170278025043,0.9242981915854407,0.03767722574509679,0.07141843889744162
0.20999999999999996,-0.0001,0.518,0.00683137684836621,0.9245112590898353,0.037350300692171406,0.07146865589731664
0.21099999999999997,0.001,-0.482,0.006687993256243881,0.9356863313180256,0.03566372623847399,0.07410246250372873
0.21199999999999997,0.0112,-0.482,0.006692116778787301,0.9358968061870618,0.035712229889959056,0.07415206845608696
0.21299999999999997,0.0123,-0.482,0.0066753574291539865,0.9678278123006469,0.03551509512346488,0.0816777553719347
0.21399999999999997,0.001,-1.482,0.006658605622842862,0.9572339071757223,0.03531804908661064,0.079180921639143
0.21499999999999997,-0.0033,0.518,0.0066726590329949115,0.9678278123006467,0.03548335476907365,0.08167775537193467
0.21599999999999997,0.0058,1.518,0.006627378502632785,0.9680312988113621,0.03495073465105151,0.08172571426699092
0.21699999999999997,-0.008,0.518,0.006623506374948454,0.9580565943147232,0.03490518807534376,0.07937481737220546
0.21799999999999997,0.0011,2.518,0.0066259582221630565,0.9477691486462739,0.03493402835487164,0.07695021180264888
0.21899999999999997,0.0058,0.518,0.006533393450598737,0.9479769408279083,0.033845219121388874,0.07699918548349623
0.21999999999999997,0.0102,1.518,0.006413042647848362,0.9481846874724335,0.03242957186080424,0.07704814843189042
0.22099999999999997,0.0066,-0.482,0.006393495718996049,0.9799163052039017,0.032199647708657006,0.0845268423236809
0.22199999999999998,0.0004,-0.482,0.006379521369800487,0.9799163052039017,0.032035271994452726,0.0845268423236809
0.22299999999999998,-0.0028,-0.482,0.006452647558500296,0.979916305203902,0.032895431514323954,0.08452684232368098
0.22399999999999998,0.0038,0.518,0.006507295332764056,0.9692513207486257,0.03353823546881023,0.08201325619716537
0.22499999999999998,-0.0005,0.518,0.0065141447443215735,0.979916305203903,0.03361880286417799,0.08452684232368121
0.22599999999999998,0.0003,0.518,0.0065020032295534085,0.9797152872078256,0.033475986183872576,0.08447946522264192
0.22699999999999998,-0.0033,0.518,0.006535766957012705,0.9894716779964946,0.033873137903616554,0.0867789086615051
0.22799999999999998,-0.004,-0.482,0.006529387527634209,0.9894716779964946,0.033798098755415,0.0867789086615051
0.22899999999999998,-0.0131,-0.482,0.00655500202715507,0.9789108024358937,0.034099393763418924,0.08428985953027536
0.22999999999999998,-0.0167,1.518,0.006555475613120642,0.9789108024358937,0.03410496440075155,0.08428985953027536
0.23099999999999998,0.0022,0.518,0.006585565516467661,0.9787095779187659,0.03445890212506251,0.0842424337551429
0.23199999999999998,0.0102,0.518,0.0065846589797457535,0.9789108024358938,0.034448238829117156,0.08428985953027539
0.23299999999999998,-0.0017,0.518,0.0064857545516232365,0.9690480904254436,0.033284858282152795,0.08196535768189044
0.23399999999999999,0.0186,-0.482,0.0064808413686305594,0.9690480904254439,0.03322706611221804,0.08196535768189052
0.235,-0.0056,-0.48199999999997223,0.00650700248886108,0.979715287207825,0.0335347908414413,0.08447946522264176
0.236,0.0042,0.5180000000000278,0.006555016262274454,0.9797152872078256,0.034099561206487855,0.08447946522264192
0.237,-0.0045,1.5179999999999445,0.006567095097432239,1.00070861335942,0.03424164060696877,0.08942729553457067
0.238,-0.0019,-0.48199999999997223,0.006555097709807633,1.000905415145452,0.03410051924727022,0.08947367893448258
0.239,0.0003,0.518,0.006535927682906771,1.0007086133594199,0.033875028469914734,0.08942729553457063
0.24,0.0069,0.518,0.006327762467946482,1.0007086133594199,0.031426448904402646,0.08942729553457063
0.241,0.0087,-0.482,0.006302915660006793,1.0007086133594199,0.031134184002214585,0.08942729553457063
0.242,0.0033,0.518,0.006343343070184765,1.0005117728622568,0.03160971844953923,0.08938090301099215
0.243,0.0081,-0.482,0.00641818341827687,1.010067307264453,0.03249004106755732,0.09163300743791612
0.244,0.0005,-1.482,0.006374906418133078,1.010067307264453,0.031980987822379126,0.09163300743791612
0.245,0.0016,0.518,0.006533264615566623,1.0203057422341484,0.03384370367690399,0.09404606187835897
0.246,0.0005,0.518,0.006637275176001814,1.0496721631383248,0.03506714599375626,0.1009673123011514
0.247,0.0016,0.518,0.006553457371923402,1.0593420464058088,0.03408122448745827,0.10324636713973094
0.248,0.0082,0.518,0.006527259570663767,1.0496721631383248,0.03377306829124687,0.1009673123011514
0.249,-0.0056,-2.482,0.006548288061090173,1.0595279573937646,0.0340204195692281,0.10329018373243694
0.25,-0.0074,2.518,0.0065894095230718324,1.0504224554580488,0.03450411792167129,0.10114414559833979
0.251,-0.0165,-0.482,0.006589076578724082,1.0504224554580488,0.03450020160584249,0.10114414559833979
0.252,-0.0085,-0.482,0.006582701343288128,1.0506099448159973,0.03442521178961991,0.10118833419054872
0.253,-0.0009,0.518,0.006571254354350041,1.0504224554580488,0.03429056459025094,0.10114414559833979
0.254,-0.0045,0.518,0.006562962225374145,1.0502349326292473,0.034193026980190375,0.1010999491175238
0.255,-0.0056,2.518,0.0065626350325618575,1.0502349326292475,0.03418917831779833,0.10109994911752385
0.256,0.0046,-0.482,0.006544983364751459,1.0504224554580492,0.03398154750346658,0.1011441455983399
0.257,0.0009,-0.482,0.006561844009648576,1.0504224554580501,0.03417987377312846,0.1011441455983401
0.258,0.0045,1.518,0.006520950891259422,1.0506099448159991,0.03369886135192807,0.10118833419054914
0.259,0.0035,0.518,0.006487321235992442,1.0408589409379743,0.03330328667967721,0.09889016037040098
0.26,-0.001300000000000244,1.518,0.0065978026453034355,1.050797400721012,0.03460284348247677,0.10123251489837384
0.261,-0.0034999999999995117,0.518,0.006621387284580763,1.0506099448159996,0.03488026190613345,0.10118833419054925
0.262,0.0009000000000000777,2.518,0.006654317350295416,1.0507974007210117,0.035267607534533715,0.10123251489837379
0.263,0.001599999999999234,0.518,0.006568894629311091,1.0509848231909875,0.03426280791384512,0.10127668772603277
0.264,-0.005300000000000289,1.518,0.006460514774852781,1.0511722122438112,0.03298797101570911,0.1013208526777412
0.265,-0.0078999999999994,0.518,0.006502184316531258,1.041993695866276,0.03347811625096196,0.0991576060714928
0.266,-0.0024999999999999224,0.518,0.006527335027850887,1.041993695866276,0.0337739558695413,0.0991576060714928
0.267,-0.0017999999999994338,-0.482,0.006542673683635474,1.0319704549034086,0.0339543794774132,0.09679526981749831
0.268,0.003299999999999267,0.518,0.0064939043300338796,1.0418046558781089,0.033380721468917976,0.09911305201765366
0.269,-0.0033000000000000776,0.518,0.006494474758272998,1.0222343272428038,0.03338743123034552,0.09450060211157647
0.27,-0.004000000000000245,2.518,0.006469055216277261,1.0220416325071064,0.03308842944415703,0.09445518668539064
0.271,-0.006200000000000411,-0.482,0.006413891304503771,1.0118207628558913,0.03243955433239521,0.09204627214229362
0.272,-0.009900000000000245,-0.482,0.006380078062775163,1.0120154037177667,0.032041820192442075,0.0920921462429184
0.273,-0.01209999999999899,-0.482,0.006380769627726256,1.012210007151575,0.03204995484552422,0.09213801152227666
0.274,-0.002999999999999001,1.518,0.006391241461002685,1.012210007151575,0.03217313160672807,0.09213801152227666
0.275,0.006000000000000122,-0.482,0.006437929115799761,1.012210007151575,0.0327223032707816,0.09213801152227666
0.276,0.007100000000000111,-1.482,0.006437758945337628,1.0120154037177667,0.032720301611108,0.0920921462429184
0.277,0.008099999999999921,-0.482,0.006438842718005532,1.040669694819045,0.032733049675710425,0.09884555773445412
0.278,0.007399999999999312,-0.482,0.006444562719734565,1.0498597864873436,0.03280033219143274,0.10101153247316212
0.279,0.0012000000000005884,0.518,0.00643451848398139,1.0500473763116631,0.03268218512050591,0.10105574474387498
0.2799999999999999,0.0065,-0.482,0.006381242485221139,1.0502349326292497,0.0320555169140936,0.10109994911752437
0.2809999999999999,0.0029,0.518,0.006483905050305874,1.0502349326292497,0.03326310320106038,0.10109994911752437
0.2819999999999999,0.0006,0.518,0.006625217252709014,1.0787869373264944,0.034925312572726276,0.10782925314906443
0.2829999999999999,-0.0009,0.5180000000000555,0.006565646765005997,1.0787869373264944,0.03422460434476887,0.10782925314906443
0.2839999999999999,-0.006,1.5179999999999445,0.006606290787630238,1.0787869373264944,0.03470268673368727,0.10782925314906443
0.2849999999999999,-0.0082,0.518000000000111,0.006413498899407075,1.0883791152800533,0.03243493859915969,0.11008999394322527
0.2859999999999999,-0.0042,2.5179999999998888,0.006396460684196019,1.0978874901415467,0.032234523627779635,0.112330983532829
0.2869999999999999,-0.0006,0.5179999999999445,0.006384111429993385,1.0978874901415467,0.03208926337622583,0.112330983532829
0.2879999999999999,-0.0076,-0.482,0.006403432402783284,1.0973491592752218,0.03231652968086845,0.11220410655492585
0.2889999999999999,-0.005,-0.482,0.006567543820939021,1.097349159275222,0.03424691879530337,0.11220410655492591
0.2899999999999999,-0.0029,-0.482,0.006605912354150346,1.097349159275222,0.034698235344025705,0.11220410655492591
0.2909999999999999,0.0083,-0.482,0.0065974156824915,1.097349159275222,0.034598291765062794,0.11220410655492591
0.2919999999999999,0.0098,-1.482,0.0065459288545941605,1.0975286322359856,0.03399266899227382,0.11224640579560008
0.2929999999999999,0.0054,0.518,0.0066196472293041575,1.097349159275222,0.034859794203141045,0.11220410655492591
0.29399999999999993,0.0144,1.518,0.006594638574989182,1.1248808563618222,0.03456562555479946,0.11869293850086197
0.29499999999999993,0.0133,2.518,0.0066021464978177034,1.1163085520772558,0.03465393880358536,0.11667256751838985
0.29599999999999993,-0.0012,1.518,0.006614335133667646,1.1161320989135037,0.03479730975381512,0.11663098000119777
0.29699999999999993,-0.003,0.518,0.006645871502272471,1.124705748093049,0.03516826177743233,0.11865166795641134
0.29799999999999993,0.006,1.518,0.006656103052443926,1.1337358338737018,0.03528861216680029,0.12077993156848493
0.29899999999999993,0.0074,0.518,0.0066057186045626985,1.1335620934882842,0.03469595633078505,0.12073898341481133
0.29999999999999993,-0.0031,-0.482,0.00659466170275076,1.1071363340732048,0.034565897599119676,0.11451080534976772
0.30099999999999993,-0.0042,0.518,0.006559773426029449,1.0791520275557953,0.03415551817298918,0.10791529975692826
0.30199999999999994,-0.0079,-0.482,0.006373258101046731,1.0793345263603593,0.03196159920581374,0.10795831214622723
0.30299999999999994,-0.0003,-0.482,0.006323794723928048,1.0889218806806367,0.03137977762492604,0.11021791607818761
0.30399999999999994,0.0005,0.518,0.006363038712281381,1.0977080758532942,0.0318413918671014,0.11228869812043657
0.30499999999999994,-0.002,0.518,0.006352674725742542,1.0975286322359816,0.03171948367191574,0.11224640579559914
0.30599999999999994,0.0056,1.518,0.006329793889865977,1.0694770947272652,0.03145034385823515,0.10563505480816676
0.30699999999999994,-0.0035,0.518,0.0063597680552343275,1.069477094727265,0.03180292019443149,0.1056350548081667
0.30799999999999994,0.0078,0.518,0.006375877914647191,1.0696612442086644,0.03199241521918447,0.10567845623866964
0.30899999999999994,0.0121,1.518,0.006360090782007065,1.0598996815409063,0.031806716324256155,0.10337779386099029
0.30999999999999994,0.0056,-0.482,0.006352272178831407,1.0598996815409063,0.03171474864382302,0.10337779386099029
0.31099999999999994,0.0067,0.518,0.0064009092259255315,1.0593420464058079,0.03228685037400037,0.10324636713973073
0.31199999999999994,0.0035,0.518,0.006406273562542478,1.0591561027853673,0.03234994931694956,0.10320254285600923
0.31299999999999994,-0.0031,0.518,0.006418234048448389,1.0300600990408153,0.03249063661376038,0.096345025936407
0.31399999999999995,-0.0074,0.518,0.006422896093467249,1.0298688685557096,0.03254547472957553,0.09629995561339393
0.31499999999999995,-0.0066,0.518,0.0064116385241691064,1.0197264554716154,0.03241305561168388,0.09390953217447773
0.31599999999999995,-0.0073,-0.482,0.006393858217206733,1.0197264554716154,0.03220391165694147,0.09390953217447773
0.31699999999999995,-0.0008,1.518,0.006495430352426987,1.0195332867410203,0.033398671572872615,0.09386400503439264
0.31799999999999995,0.0014,1.518,0.006511471142148711,1.0197264554716154,0.03358735415336418,0.09390953217447773
0.31899999999999995,-0.0007,-0.482,0.006563593270076954,1.0291035912662976,0.03420044975332045,0.09611959057060647
0.31999999999999995,-0.0057,-0.482,0.006641724705594888,1.0289121830075851,0.03511948435989405,0.09607447834886647
0.32099999999999995,-0.0003,0.518,0.006746109891381043,0.9987384626087874,0.036347333272628686,0.08896295884334515
0.32199999999999995,-0.001,0.518,0.006732373340521392,0.9987384626087874,0.03618575470273181,0.08896295884334515
0.32299999999999995,-0.0046,-0.482,0.0066662423245016054,0.9989356525371997,0.03540787711879689,0.08900943372293119
0.32399999999999995,-0.0086,0.518,0.006734039531265085,0.9989356525371997,0.036205353561302056,0.08900943372293119
0.32499999999999996,-0.0002,-0.482,0.006769132465497743,0.98847589524399,0.03661814030702391,0.08654421673839774
0.32599999999999996,-0.0012,-2.482,0.006749816037716439,0.98847589524399,0.03639092746383579,0.08654421673839774
0.32699999999999996,0.0043,-1.482,0.006712705855490927,0.9785083120209886,0.03595441248756008,0.0841949982271761
0.32799999999999996,0.0018,0.518,0.006664124900854111,0.9785083120209886,0.03538297055467293,0.0841949982271761
0.32899999999999996,0.0102,0.518,0.006767059013248296,0.9787095779187618,0.036593750964121305,0.08424243375514193
0.32999999999999996,0.0203,1.518,0.006873098217725441,0.9787095779187618,0.0378410555595381,0.08424243375514193
0.33099999999999996,0.0138,2.518,0.006848944553580729,0.9787095779187618,0.03755694388185811,0.08424243375514193
0.33199999999999996,-0.005,0.518,0.006845015542624208,0.9785083120209885,0.03751072820676251,0.08419499822717608
0.33299999999999996,-0.0075,0.518,0.006852312837872853,0.9882766182919895,0.037596563911987076,0.08649724997684423
0.33399999999999996,-0.0097,1.518,0.006859571150082935,0.9880773011495071,0.03768194107243679,0.08645027374296207
0.33499999999999996,-0.0031,1.518,0.006898660123822736,0.9775013609276367,0.03814173192824512,0.08395767408395366
0.33599999999999997,-0.0013,0.518,0.0068518958041625605,0.9772998462087386,0.0375916584803983,0.08391017991236482
0.33699999999999997,-0.0067,-1.482,0.006839778311674447,0.9454804206076187,0.037449124366342304,0.07641079094653269
0.33799999999999997,-0.0147,-0.482,0.006858602866449315,0.9555864080871216,0.037670551467697336,0.07879262938518616
0.33899999999999997,-0.0071,0.518,0.006822861349824057,0.9860819138841019,0.037250135658717376,0.08597998916182827
0.33999999999999997,-0.006,0.518,0.006851448577986949,0.9959737043082898,0.037586397904682156,0.08831134438141676
0.34099999999999997,0.0028,0.518,0.006901770678501496,0.9959737043082898,0.03817832036894724,0.08831134438141676
0.34199999999999997,0.0104,-0.482,0.006903347565116633,0.9959737043082898,0.038196868772164806,0.08831134438141676
0.34299999999999997,0.0057,2.518,0.0068695638191161494,0.9862816342734412,0.037799481580846526,0.08602706043529618
0.344,0.0032,0.5179999999999445,0.006856445716021621,0.9959737043082898,0.037645177610408094,0.08831134438141676
0.345,-0.0043,-0.4820000000000555,0.006713428787222401,0.9854825098610646,0.035962916097854854,0.08583871810392822
0.346,0.0065,-1.4819999999998335,0.00669992825025845,0.9641577113621176,0.035804113682476865,0.08081276444384805
0.347,-0.004,1.517999999999889,0.007108547677008808,0.9535230312704983,0.040610570796856225,0.07830632062760777
0.348,-0.0004,-0.482,0.007284231059068469,0.9838823138546651,0.0426770771504437,0.08546157451799438
0.349,-0.0041,-0.482,0.007269462834923945,0.9832815689662547,0.04250336334400355,0.08531998743707404
0.35,-0.003,-0.4819999999999445,0.007251139727025957,0.9832815689662547,0.04228783459879871,0.08531998743707404
0.351,-0.0056,0.5180000000000555,0.007358136361347182,0.9832815689662547,0.043546401129366745,0.08531998743707404
0.352,-0.0031,1.518,0.007355796516886687,0.983081239091146,0.04351887830172459,0.08527277251642305
0.353,-0.0071,-1.482,0.007350584373245179,0.9935977883854695,0.04345756955513336,0.0877513745730769
0.354,0.0027,-0.482,0.007375087850470764,0.9935977883854695,0.04374579597005097,0.0877513745730769
0.355,0.0016,0.518,0.007437344052080163,0.9935977883854695,0.04447809537519537,0.0877513745730769
0.356,0.0077,-0.482,0.007551151315467318,0.9935977883854695,0.045816773115325,0.0877513745730769
0.357,-0.0046,0.518,0.007531026436979407,0.983081239091146,0.045580050730015274,0.08527277251642305
0.358,0.0001,-0.482,0.0075754602702845925,0.9828808683849867,0.04610271142656441,0.08522554797247044
0.359,0.0015,0.518,0.00753633400004867,0.9828808683849868,0.04564248186423019,0.08522554797247046
0.36,0.008,-1.482,0.0074424123190062795,0.9724509654586541,0.04453771174688464,0.0827673672403303
0.361,0.0044,-0.482,0.00742254042394197,0.9724509654586541,0.044303965123118745,0.0827673672403303
0.362,-0.004,0.518,0.007392400107573423,0.9722484039615142,0.043949434406869284,0.0827196263579022
0.363,-0.0029,-0.482,0.007397973213305702,0.9720458002532363,0.04401498903286719,0.08267187552690534
0.364,-0.0037,-0.482,0.007401251255179301,0.972045800253236,0.04405354757084443,0.08267187552690526
0.365,-0.0063,0.518,0.00736401681133348,0.9718431543074207,0.043615570945636055,0.08262411474111774
0.366,-0.0117,-0.482,0.007350695720869248,0.9716404660976402,0.04345887930093798,0.08257634399431082
0.367,-0.0049,0.518,0.007315388324966257,0.9822795110303132,0.04304356991249861,0.08508381654190679
0.368,0.0089,-1.482,0.007320349269238246,0.9718431543074193,0.0431019238827926,0.08262411474111739
0.369,0.0107,-0.482,0.007319460058447767,0.9610885880826393,0.043091464386130714,0.08008941545743241
0.37,0.0125,-0.482,0.007321120070488145,0.9612935011527113,0.04311099056662801,0.08013771057236994
0.371,0.0045,-0.482,0.007348282043887696,0.9714377355974396,0.04343048800541868,0.08252856328024953
0.372,-0.0031,0.518,0.007659530950616033,0.9712349627803378,0.047091607433793745,0.0824807725926926
0.373,-0.0154,-0.482,0.007659822131832004,0.971032147619824,0.04709503250351743,0.08243297192539184
0.374,-0.0075,-0.482,0.007654926642753701,0.9712349627803378,0.04703744846132958,0.0824807725926926
0.375,-0.0031,-0.482,0.007607801704629678,0.971032147619824,0.046483133176047554,0.08243297192539184
0.376,0.0005,-0.482,0.0076240847563918855,0.9712349627803379,0.04667466540594833,0.08248077259269262
0.377,-0.0006,-0.482,0.0076541433030993585,0.9506267796263058,0.04702823429232998,0.07762371504273619
0.378,0.0139,0.518,0.007643582904266739,0.9404674989462392,0.04690401576335941,0.07522931614980953
0.379,0.0121,0.518,0.007746066810718484,0.9404674989462392,0.048109500547065795,0.07522931614980953
0.38,0.003,-0.482,0.007679488959311447,0.9402580472181228,0.04732636698413085,0.07517995133730784
0.381,-0.0017,-0.482,0.007420306368136173,0.9293499201822105,0.044277686652936625,0.07260905994044566
0.382,-0.0032,-1.482,0.007297663630740195,0.9067059001019317,0.042835080112244676,0.06727218439589945
0.383,0.0033,-0.482,0.007318784067471618,0.9067059001019317,0.043083512924639,0.06727218439589945
0.384,0.0095,-0.482,0.007330539764824478,0.9067059001019317,0.04322179136045763,0.06727218439589945
0.385,0.0017999999999999223,-0.482,0.007367337764292812,0.9060539860474012,0.04365463423272655,0.06711853746560899
0.386,0.0010999999999993118,-0.482,0.007391952427754308,0.8947289558389331,0.043944168495092494,0.06444938788233957
0.387,-0.005099999999999767,-1.482,0.00739410128951083,0.9270157176495755,0.043969444855444705,0.07205892138870999
0.388,-0.003000000000000555,-2.482,0.007386471464385604,0.9270157176495755,0.04387969770968059,0.07205892138870999
0.389,-0.008000000000000089,-1.482,0.007251082225959937,0.9375309165854748,0.04228715823250342,0.07453720518496551
0.39,-0.008799999999999955,-0.482,0.007260466006600062,0.9483449481962548,0.04239753658523175,0.07708591961981029
0.391,-0.008399999999999843,-0.482,0.007264779308598515,0.9483449481962548,0.04244827255058172,0.07708591961981029
0.392,-0.006999999999999589,0.518,0.007260250300054245,0.9481372366665074,0.04239499929944971,0.07703696494747299
0.393,-0.003299999999999234,-1.482,0.007225516198131159,0.9481372366665074,0.041986433381212565,0.07703696494747299
0.394,0.003600000000000999,-0.482,0.007446561462232048,0.915304570023733,0.044586516766104284,0.06929876938648832
0.395,0.012600000000001244,-1.482,0.0075813598557824095,0.9153045700237333,0.046172106327617896,0.0692987693864884
0.396,0.02379999999999916,0.518,0.007569134898104307,0.915304570023733,0.04602830813556376,0.06929876938648832
0.397,0.016199999999998622,-2.482,0.0075442702459292185,0.9047487487351663,0.045735833337451584,0.06681091147575385
0.398,0.0038000000000001665,-1.482,0.007615134186118267,0.8934071731982544,0.04656938276554252,0.06413786239237644
0.399,0.005300000000000844,0.518,0.00767674355361724,0.8934071731982545,0.0472940736719021,0.06413786239237645
0.4,0.01289999999999899,-0.482,0.007684110607946402,0.9043132509846016,0.0473807299304506,0.06670827081007462
0.401,0.0037999999999987566,-0.482,0.007679106782050072,0.9157348406268339,0.04732187155758811,0.06940017808737647
0.402,-0.007399999999999845,1.518,0.007662356663872581,0.9157348406268336,0.04712484537769951,0.06940017808737642
0.403,-0.0060000000000004,-0.482,0.007661837772669846,0.9045310260693634,0.0471187418296308,0.06675959732011817
0.404,-0.009600000000000398,0.518,0.007630656521069001,0.9261654581695102,0.04675196693156974,0.0718585272444904
0.405,-0.013199999999998635,0.518,0.007638527536491313,0.9263780962015972,0.04684455112017484,0.07190864302381147
0.406,-0.0009000000000008882,-0.482,0.007650815961016663,0.9263780962015972,0.046989095852064115,0.07190864302381147
0.4069999999999999,-0.0089,-0.4819999999999445,0.0076135712259726455,0.9375309165854793,0.04655099817484609,0.07453720518496657
0.4079999999999999,-0.0012,0.518,0.007603964842768225,0.9373208086551009,0.04643800142071833,0.0744876857148647
0.4089999999999999,-0.0023,0.5179999999999445,0.007648208986826875,0.9375309165854793,0.04695843086449571,0.07453720518496657
0.4099999999999999,0.0013,-0.482,0.007693697156187939,0.9375309165854794,0.0474934933723758,0.07453720518496659
0.4109999999999999,0.0002,-0.482,0.007656965704609109,0.9381609580455152,0.04706143328123773,0.0746856970538218
0.4119999999999999,-0.0045,-0.4819999999999445,0.007797678171696143,0.9383708778604736,0.04871658816188306,0.07473517218777748
0.4129999999999999,-0.0038,0.5179999999999445,0.007898162064273004,0.970220463012479,0.04989854743434723,0.08224166933356111
0.4139999999999999,0.0001,-0.482,0.007907881915345125,0.970220463012479,0.0500128788740143,0.08224166933356111
0.4149999999999999,-0.0049,-0.48199999999988896,0.007900801159029953,0.970423447812297,0.04992959024567644,0.08228950998244865
0.4159999999999999,-0.0013,1.5179999999999445,0.007957820493383786,0.9702204630124791,0.050600290088416884,0.08224166933356114
0.4169999999999999,-0.0028,0.518,0.00788883684943174,0.970423447812297,0.049788857972019505,0.08228950998244865
0.4179999999999999,0.0008,-0.482,0.0080154047049293,0.9808749101081454,0.051277634397423395,0.08475277195332276
0.41899999999999993,-0.0017,0.518,0.008063721741519508,0.9708292900893644,0.05184597194836078,0.08238516127209357
0.41999999999999993,-0.0085,-1.482,0.00805890703816525,0.970829290089364,0.05178933816231017,0.08238516127209349
0.42099999999999993,-0.0216,-0.482,0.00813724623881134,0.9710321476198283,0.052710816642358625,0.08243297192539283
0.42199999999999993,-0.0012,-0.482,0.008335399696997004,0.981677785295505,0.05504163117658103,0.08494199828935105
0.42299999999999993,-0.0037,0.518,0.008384888855202355,0.981677785295505,0.055623756011987054,0.08494199828935105
0.42399999999999993,-0.0015,-0.482,0.00831525258433027,0.9818784015133675,0.05480464725787374,0.08498928069694273
0.42499999999999993,0.005,0.518,0.008308404341976714,1.0125546696379968,0.05472409361547105,0.09221924359981351
0.42599999999999993,0.0069,-1.482,0.00832086000387452,1.0227682051360536,0.054870605506056186,0.09462642958665189
0.42699999999999994,0.0015,0.518,0.008326811613576344,1.0229607630075466,0.054940612350862464,0.0946718127558788
0.42799999999999994,0.0127,0.518,0.008329802378495335,1.0330714230315807,0.0549757917436697,0.09705475244724938
0.42899999999999994,-0.001,-0.482,0.008224434426876483,1.042895242246435,0.053736382876808805,0.09937008781331631
0.42999999999999994,0.0045,0.518,0.008145066520575174,1.0428952422464355,0.0528028040674773,0.09937008781331641
0.43099999999999994,0.0031,-1.482,0.008206846658729741,1.071826595092472,0.05352950369339052,0.10618879884286203
0.43199999999999994,0.0075,0.518,0.008205339943329733,1.071826595092472,0.053511780691301976,0.10618879884286203
0.43299999999999994,0.0086,0.518,0.008221586262406145,1.0628264639060485,0.05370288084659392,0.10406759510535239
0.43399999999999994,0.0122,-1.482,0.008249048781838937,1.0725613897630981,0.05402591351040109,0.10636197956315926
0.43499999999999994,0.0068,0.518,0.008215442687196484,1.0822087493834367,0.05363061597409621,0.108635725896394
0.43599999999999994,-0.0022,-2.482,0.00821668100737543,1.0823907328030016,0.05364518193069135,0.10867861681673172
0.43699999999999994,-0.0058,-1.482,0.008258639775418922,1.1102934126189747,0.05413872924139335,0.11525488414953021
0.43799999999999994,0.0043,-1.482,0.008258452327122296,1.1016076000720956,0.054136524348184875,0.11320776087364494
0.43899999999999995,-0.008,1.518,0.00827319549470341,1.0743961778450792,0.054309943422437626,0.10679441318622773
0.43999999999999995,-0.0065,0.518,0.00827585137633095,1.0652328704015248,0.05434118369225337,0.10463475111079727
0.44099999999999995,0.0011,-0.482,0.008251235863049,1.0749460035812892,0.05405163943372644,0.10692399934252586
0.44199999999999995,0.0076,-0.482,0.008208802592237182,1.0751292163415251,0.053552510701639876,0.10696718000108761
0.44299999999999995,0.0189,-0.482,0.008180507270730726,1.0751292163415251,0.0532196820585185,0.10696718000108761
0.44399999999999995,0.0146,0.518,0.008186635526641601,1.066156965114732,0.053291766735098396,0.10485254717608407
0.44499999999999995,-0.0003,-0.482,0.008279654481356901,1.066156965114732,0.054385918376930714,0.10485254717608407
0.44599999999999995,-0.0021,0.518,0.00818498730987817,1.0854797829189093,0.05327237929859877,0.10940666227690261
0.44699999999999995,-0.0111,0.518,0.007837469673315719,1.0852983174730926,0.04918464262412988,0.10936389343565772
0.44800000000000006,-0.009699999999999024,-0.482,0.007679407770497604,1.067449353727357,0.04732541198657968,0.1051571449090094
0.44899999999999995,-0.0053,-1.482,0.007703936827219738,1.0584120016347442,0.04761393928477675,0.10302716872988896
0.45000000000000007,0.0011999999999992006,1.518,0.007685885113656327,1.0582258945937342,0.04740160286265993,0.10298330593024856
0.45099999999999996,-0.0024,0.518,0.007577551614382216,1.0680027558111553,0.046127311225444716,0.10528757395989582
0.45200000000000007,0.0029999999999989566,0.518,0.007573215433877394,1.0680027558111553,0.0460763061476823,0.10528757395989582
0.45299999999999996,-0.0017,-2.482,0.007552191920612136,1.058412001634744,0.04582901341442518,0.1030271687298889
0.45400000000000007,0.004399999999998002,0.518,0.007589354092886355,1.05859807595717,0.046266139932696036,0.10307102381822139
0.45499999999999996,-0.0046,0.518,0.007546241446861171,1.0585980759571703,0.04575901993143856,0.10307102381822145
0.45600000000000007,0.0015000000000002442,1.518,0.007436154532248177,1.0681871594603538,0.0444641034411735,0.1053310352941573
0.45699999999999996,0.0026,-0.482,0.007574034064348999,1.068371531281013,0.04608593543106116,0.10537448912688181
0.4580000000000001,-0.008199999999996292,0.518,0.007548690824221684,1.0775081473640837,0.04578783115887791,0.10752786042582865
0.45899999999999996,0.0085,0.518,0.007550675886637671,1.0775081473640837,0.045811180800982995,0.10752786042582865
0.4600000000000001,-0.0026999999999959812,1.518,0.007568734265294618,1.0869304158278656,0.04602359562242238,0.10974855595428305
0.46099999999999997,0.0154,0.518,0.007567741510120954,1.0964513538152298,0.046011918166934666,0.1119925064951218
0.4620000000000001,0.013199999999998158,2.518,0.007590565287911209,1.0966309737094824,0.04628038682494588,0.11203484036594295
0.46299999999999997,0.0049,-0.482,0.007594166670072367,1.1060684133138063,0.04632274870932264,0.1142591115178359
0.4640000000000001,-0.001600000000002176,0.518,0.007588980482342034,1.1060684133138066,0.04626174527365341,0.11425911151783595
0.46499999999999997,-0.0114,-0.482,0.007603422155886419,1.106246471698906,0.04643161797183366,0.1143010773630158
0.4660000000000001,0.005299999999995492,0.518,0.00759612624168034,1.1150727935567806,0.046345798511362606,0.11638131669793007
0.46699999999999997,-0.015,1.518,0.007597084500500112,1.1057122105227069,0.046357070197484675,0.11417515955356548
0.4680000000000001,-0.012499999999999512,-0.482,0.007636938105130634,1.1055340660889894,0.04682585515720482,0.11413317342794234
0.469,-0.0103,-0.4819999999999445,0.007656424486608404,1.1057122105227069,0.04705506711032265,0.11417515955356548
0.4700000000000001,-0.016800000000000398,0.5180000000000555,0.007663513750083641,1.1055340660889894,0.047138455805611185,0.11413317342794234
0.471,-0.0186,1.5179999999999445,0.007618150467338642,1.096810564188168,0.04660486229828509,0.11207716730393069
0.47199999999999986,-0.0096,0.518,0.007421868798289874,1.096990125265731,0.04429606500951086,0.11211948731248927
0.473,-0.011,0.518000000000111,0.007428275297237057,1.097169656956608,0.04437142256822468,0.11216180039502126
0.47399999999999987,-0.0067,2.5179999999999443,0.007469992743504039,1.1064245014288314,0.0448621312895361,0.11434303645457608
0.475,-0.0055,1.5179999999999445,0.007468798347563635,1.1066025025174102,0.04484808199944044,0.11438498879577569
0.47599999999999987,0.0032,0.5180000000000555,0.007452558193103645,1.1337358338737062,0.04465705435652192,0.12077993156848597
0.477,-0.0023,1.518,0.007423342304119335,1.1519256164667642,0.044313397378246765,0.12506700628125084
0.47799999999999987,0.0043,1.5179999999999445,0.007433257077766365,1.1519256164667642,0.04443002162862129,0.12506700628125084
0.479,-0.004,0.518000000000111,0.007325351263393051,1.1519256164667642,0.04316076070947666,0.12506700628125084
0.47999999999999987,0.0105,2.518,0.007366964750315704,1.1520965875689813,0.04365024659090958,0.12510730175400753
0.481,0.0007,-0.482,0.007572426394361387,1.1609136351614826,0.046067024933068,0.12718535527563032
0.4819999999999999,0.0061,0.518,0.007873516705593374,1.161422503635571,0.04960865211413646,0.12730528838402383
0.483,0.0075,1.518,0.008507531645981642,1.1873036993047026,0.05706636318060945,0.13340512046951555
0.4839999999999999,0.0059,1.518,0.008526363743741083,1.1871377987272054,0.057287879007633144,0.1333660200477825
0.485,0.0023,0.518,0.008460260226831055,1.1790182337853763,0.05651032488676211,0.1314523533306194
0.4859999999999999,0.0084,2.518,0.008480004049090193,1.204521414516945,0.056742565031870175,0.13746309263715226
0.487,0.0051,0.518,0.008500600754281067,1.1798532119196743,0.056984837360879954,0.13164914587758622
0.4879999999999999,0.0058,-0.482,0.008583033226921919,1.1803539152832263,0.05795446366507073,0.13176715458480953
0.489,0.0083,-0.482,0.008574470322886244,1.1721873603464403,0.05785374101624973,0.1298424129898626
0.4899999999999999,0.0061,1.518,0.008616934745803632,1.1634557518617537,0.0583532361803991,0.1277844962585901
0.491,0.001,0.518,0.008592953945810347,1.1634557518617537,0.05807115784738178,0.1277844962585901
0.4919999999999999,0.0017,0.518,0.00870262490575519,1.1634557518617537,0.059361181598479036,0.1277844962585901
0.493,0.0046,0.518,0.008680590508485318,1.1636250288456136,0.05910199816620541,0.12782439245159
0.4939999999999999,0.0129,-0.482,0.008475495306009209,1.163794281207685,0.05668953015677662,0.12786428284158227
0.495,0.0016,2.518,0.008349067133633566,1.1636250288456136,0.055202396778401684,0.12782439245159
0.4959999999999999,0.003,-0.482,0.008351134905836301,1.163794281207685,0.055226719308766416,0.12786428284158227
0.497,0.0041,1.518,0.00835703077256832,1.163794281207685,0.05529607046719005,0.12786428284158227
0.4979999999999999,-0.0072,0.518,0.008283288431104763,1.163794281207685,0.05442866334321343,0.12786428284158227
0.499,0.0004,-0.482,0.00823307906363999,1.1639635089587081,0.053838066921063917,0.12790416743109828
0.4999999999999999,-0.0008,1.518,0.00822180777455326,1.1556811379524121,0.0537054864217715,0.125952129625194
0.501,0.0028,-0.482,0.008239902154080414,1.1468238624144622,0.05391832470971151,0.12386459494530026
0.5019999999999999,-0.0048,0.518,0.008248563092303002,1.1556811379524121,0.054020200502715825,0.125952129625194
0.503,-0.0096,0.518,0.008256070493056827,1.1556811379524121,0.054108507610507256,0.125952129625194
0.5039999999999999,-0.0052,0.518,0.00827336592866307,1.13893572140047,0.05431194818154673,0.12200547157761826
0.505,-0.0031,1.518,0.008261766159260801,1.147853866438479,0.05417550387538123,0.12410735233851361
0.5059999999999999,-0.0144,0.518,0.008253332862889507,1.147853866438479,0.054076305759266606,0.12410735233851361
0.507,-0.0064,-1.482,0.008252025167342168,1.1387627743591955,0.054060923762828166,0.12196471040394824
0.5079999999999999,-0.0021,0.518,0.008258235469863153,1.165316446255489,0.054133973526937086,0.12822303563325038
0.509,-0.0057,1.518,0.008217862283721893,1.165316446255489,0.053659076899280234,0.12822303563325038
0.5099999999999999,0.0004,1.518,0.008178125078547135,1.1651474150071162,0.053191661108414154,0.12818319735663222
0.511,0.0059,0.518,0.008174377293561533,1.182354608361435,0.0531475771353381,0.13223868967104335
0.5119999999999999,0.0051,1.518,0.00803817793317769,1.182354608361435,0.0515455084576519,0.13223868967104335
0.513,0.0026,0.518,0.007953391054164899,1.164640174066864,0.05054818803880156,0.1280636478349648
0.5139999999999999,0.0047,0.518,0.007941382047009136,1.1646401740668635,0.05040693000234577,0.1280636478349647
0.515,-0.0036,-1.482,0.007942556300474364,1.1646401740668642,0.050420742363072014,0.12806364783496485
0.5159999999999999,0.0018,-0.482,0.007861695400828449,1.1735308165881295,0.04946960195971652,0.13015904664130878
0.517,0.0083,-0.482,0.007850499007030755,1.173362968678595,0.04933790242929455,0.13011948726093273
0.5179999999999999,-0.0055,0.518,0.007707476732809862,1.1644710446527777,0.047655578040288686,0.1280237864220752
0.519,-0.0037,-0.482,0.00764626714848897,1.1644710446527782,0.04693558965313084,0.12802378642207532
0.5199999999999999,0.0018,0.518,0.007577295731605176,1.1728592808256966,0.04612430135975151,0.13000077515174505
0.521,-0.0131,0.518,0.007457283479320372,1.1728592808256963,0.0447126363579321,0.130000775151745
0.5219999999999999,-0.0033,0.518,0.007363681282206444,1.1641327121094112,0.04361162422589112,0.12794404622266647
0.523,-0.0087,1.518,0.007320691713280279,1.163963508958702,0.04310595194042852,0.1279041674310968
0.5239999999999999,-0.0007,0.518,0.007293279103551854,1.1726913367989051,0.04278350634820418,0.12996119311788984
0.525,0.0008,2.518,0.007284752332304373,1.1463085133400763,0.042683208717592055,0.12374313445099563
0.5259999999999999,0.002,2.518,0.00726426900971278,1.13720506740184,0.04244227007113697,0.12159758088645056
0.527,-0.0041,0.518,0.0072647143021280815,1.1372050674018392,0.042447507900660944,0.1215975808864504
0.5279999999999999,0.0013,0.518,0.0072719503294510915,1.1280281569592614,0.042532622931248494,0.11943471277637754
0.529,0.0079,0.518,0.007285614927331034,1.118952010444216,0.04269335514170042,0.11729559330010356
0.5299999999999999,0.0181,1.518,0.007281644185066652,1.1275042169524858,0.0426466485948341,0.1193112275207093
0.531,0.0218,1.518,0.00721153582370186,1.100038179154873,0.04182198679414797,0.11283787054133954
0.5319999999999999,0.0331,2.518,0.00732896207176106,1.100038179154873,0.04320323347125184,0.11283787054133954
0.533,0.0103,-0.482,0.007314521343316025,1.100038179154873,0.04303337188996714,0.11283787054133954
0.5339999999999999,-0.006,0.518,0.00731555138919113,1.0905485560793957,0.04304548798381982,0.11060130048271359
0.535,-0.0089,2.518,0.007294823203971869,1.0809756291125816,0.04280166909809621,0.10834509687408792
0.5359999999999999,-0.0063,0.518,0.00734160971992284,1.0903679342089523,0.04335200363367608,0.11055873046026342
0.537,-0.0132,1.518,0.007295359392969406,1.0716848000859869,0.042807976114486404,0.10615537976357461
0.5379999999999999,-0.0019,0.518,0.007282680569616224,1.0811578200943184,0.04265883924844823,0.10838803671389644
0.539,-0.0117,0.518,0.0072870850896981166,1.0901872824131373,0.042710648182378276,0.11051615338482605
0.5399999999999999,0.0011,0.518,0.007246534996288292,1.0903679342089525,0.042233670652189845,0.11055873046026347
0.541,-0.0138,-0.482,0.007222682007346412,1.0809756291125818,0.041953095718906125,0.10834509687408797
0.5419999999999999,0.0044,0.518,0.007225623902346821,1.0903679342089525,0.041987700270791795,0.11055873046026347
0.543,0.0022,0.518,0.007274851698342362,1.0991425701516546,0.04256675078772314,0.11262678815535833
0.5439999999999999,0.0001,-0.482,0.007272615649038901,1.0989633607649658,0.04254044886867784,0.11258455103536895
0.545,0.0019,0.518,0.007157830408656623,1.0989633607649658,0.04119026750395725,0.11258455103536895
0.5459999999999999,0.0038,0.518,0.007201601429799509,1.0707654760294423,0.04170513175710595,0.10593870807464784
0.547,-0.0009,0.518,0.007200054483780465,1.0804288718319552,0.04168693553536014,0.10821623390940972
0.5479999999999999,0.0034,0.518,0.0071959591022212575,1.0707654760294423,0.04163876289709892,0.10593870807464784
0.549,-0.0031,0.518,0.007199759372320527,1.0705815164856909,0.041683464235457844,0.10589535140976447
0.5499999999999999,0.0056,0.518,0.007433164935485347,1.0705815164856909,0.04442893778900638,0.10589535140976447
0.551,0.0045,1.518,0.007511996375692072,1.0705815164856909,0.04535620632254546,0.10589535140976447
0.5519999999999999,-0.0046,0.518,0.007508361656670983,1.0707654760294423,0.04531345230755254,0.10593870807464784
0.553,-0.0056,1.518,0.007600025837309696,1.0707654760294423,0.04639166818355363,0.10593870807464784
0.5539999999999999,-0.0002,1.518,0.007585778040558818,1.0707654760294425,0.04622407599489508,0.10593870807464788
0.555,-0.0027,0.518,0.007570006370342834,1.0707654760294425,0.04603855897942149,0.10593870807464788
0.5559999999999999,-0.0002,-0.482,0.007636336990847964,1.0611996906524246,0.046818784445850074,0.10368418763781756
0.557,-0.0041,2.518,0.007534639175754784,1.088560067149963,0.045622546198543036,0.11013264174188632
0.5579999999999999,0.001,0.518,0.007522072287077684,1.0795169943124048,0.04547472598361096,0.10800131726402357
0.559,-0.0026,-0.482,0.007630909517895389,1.0889218806806322,0.04675494285076619,0.11021791607818657
0.5599999999999999,-0.0011,2.518,0.007615059432485635,1.088921880680632,0.0465685034629302,0.11021791607818651
0.561,0.004,0.518,0.00761536661918332,1.0795169943124048,0.0465721167999178,0.10800131726402357
0.5619999999999999,0.0062,-1.482,0.007594934028794466,1.0889218806806322,0.046331774899825734,0.11021791607818657
0.5630000000000001,0.0022,-0.48199999999988896,0.007578299817287275,1.1073142207344768,0.04613611209231641,0.11455273072206815
0.564,-0.0021,0.518000000000111,0.007575832187928437,1.1071363340732003,0.04610708617257059,0.11451080534976668
0.5650000000000001,0.0016,1.517999999999778,0.007607681003056821,1.116308552077248,0.04648171340279256,0.11667256751838802
0.566,-0.0032,-0.482,0.007614135572356041,1.1076699083537094,0.046557636397387345,0.11463656126760954
0.5670000000000001,-0.0017,-0.482,0.007658084431167465,1.1170140859916802,0.04707459249705921,0.11683885189194147
0.568,-0.0079,-0.482000000000111,0.007671994063327927,1.1170140859916802,0.04723820696587618,0.11683885189194147
0.5690000000000001,0.0012,-1.481999999999778,0.0077209518187153015,1.126105851827254,0.04781408108316198,0.11898165262134346
0.57,-0.0101,0.518,0.007817262218232339,1.1347777175746043,0.04894694891724611,0.12102548883366553
0.5710000000000001,-0.0144,0.517999999999889,0.007815374795215043,1.134604136731429,0.04892474777555916,0.12098457828184392
0.572,-0.0054,-0.48199999999977794,0.007705666838504978,1.1346041367314292,0.04763428884357289,0.12098457828184396
0.5730000000000001,-0.008999999999999267,1.517999999999778,0.007754683917593814,1.1344305293284005,0.04821086076622053,0.12094366147024022
0.574,-0.0057,-0.482,0.007779699848989833,1.1344305293284005,0.04850511501249422,0.12094366147024022
0.5750000000000001,0.0008000000000005551,-0.48199999999988896,0.007811565920728937,1.1342568953533227,0.04887994522660276,0.12090273839598001
0.576,0.0033,0.517999999999889,0.007811193523237598,1.1071363340732003,0.04887556483630693,0.11451080534976668
0.5770000000000001,0.004000000000000488,-0.482,0.007812312259616365,1.079152027555791,0.04888872416764269,0.10791529975692728
0.578,0.0062,0.518,0.007801766841757697,1.079152027555791,0.048764681854985205,0.10791529975692728
0.5790000000000001,-0.0031999999999986458,-1.482,0.007804665374377001,1.079152027555791,0.04879877634931728,0.10791529975692728
0.58,0.0029,-0.482,0.0077749524377476835,1.078969497883058,0.04844927276162236,0.10787228009243705
0.5810000000000001,0.01309999999999798,-0.482,0.0075808469420143845,1.0975286322359772,0.04616607309016516,0.11224640579559808
0.582,0.004,0.518,0.007261948182687542,1.0975286322359772,0.0424149709393864,0.11224640579559808
0.5830000000000001,0.007599999999998779,-0.482,0.006464506056815849,1.0692929135323512,0.033034919164355504,0.1055916459032366
0.584,0.0021,-0.482,0.006390615254703868,1.0694770947272603,0.03216576574616693,0.10563505480816561
0.5850000000000001,0.008599999999997734,1.518,0.006387861322216234,1.07842172349909,0.03213337213604668,0.10774317741087419
0.586,-0.0016,1.518,0.0063421579176893665,1.049859786487336,0.03159577788707397,0.10101153247316035
0.5870000000000001,-0.0027000000000007994,1.518,0.0063911908516504235,1.049672163138319,0.03217253630541515,0.10096731230115004
0.588,-0.0063,-1.482,0.006298070365457571,1.0399123659480742,0.03107719038190979,0.09866706602157214
0.5890000000000001,-0.0030999999999989565,0.518,0.006348535470940943,1.0399123659480742,0.03167079496700615,0.09866706602157214
0.59,0.0016,0.518,0.006245854715416881,1.0397229475374508,0.030462994711831316,0.09862242277890768
0.5910000000000001,0.0022999999999975796,1.518,0.006249090884196253,1.0489213341354304,0.03050106071025104,0.10079035251532376
0.592,-0.0086,-1.482,0.00610051371548347,1.0491090917632007,0.02875339590813142,0.10083460433493867
0.5930000000000001,-0.0041999999999992,-0.482,0.00609065543349799,1.0767767283763787,0.028637436150756444,0.1073554753062933
0.594,-0.0006,-0.482,0.0060870164508128296,1.103751040373538,0.028594631983672934,0.11371293946319784
0.5950000000000001,0.008099999999998778,-0.482,0.0061013789229458805,1.1302559518507984,0.028763573061469885,0.11995977255077969
0.596,0.0026,1.518,0.006139482580564025,1.138723265004558,0.029211773964934257,0.12195539860737686
0.5970000000000001,0.003300000000000955,-0.482,0.0061310188980115655,1.1385502856909238,0.029112218426075923,0.1219146298275677
0.598,0.0076,-0.482,0.006137746342126599,1.1385502856909238,0.029191351158176903,0.1219146298275677
0.5990000000000001,0.018499999999998313,-0.482,0.006128416805979415,1.1383772800926446,0.029081610865736313,0.12187385485283918
0.6,0.0109,1.518,0.006122625028439414,1.1383772800926446,0.029013484074547184,0.12187385485283918
0.6009999999999999,-0.0015,0.518,0.006097111399083826,1.1467846307827874,0.02871337556941554,0.12385534860410662
0.602,-0.0127,0.518,0.006081392093950235,1.137858105470035,0.028528474507336057,0.12175149273087801
0.6029999999999999,-0.0084,0.518,0.0060897974793627215,1.1378581054700352,0.028627344315940696,0.12175149273087806
0.604,-0.0018,0.518,0.0061179156734857765,1.1286865046381764,0.028958089467391427,0.11958987602102024
0.6049999999999999,-0.0105,0.518,0.0061464072726958256,1.128162870380458,0.029293226861157214,0.11946646282608415
0.606,-0.0073,-2.482,0.006177016797695851,1.128162870380458,0.02965327672558529,0.11946646282608415
0.6069999999999999,-0.0047,-0.482,0.006206198276474183,1.128162870380458,0.029996528947824633,0.11946646282608415
0.608,-0.013,1.518,0.006195719930502754,1.1007132680484066,0.029873275579912508,0.1129969794536935
0.6089999999999999,-0.0029,1.518,0.006196333076715695,1.1094060825623278,0.029880487818940836,0.11504575299426399
0.61,0.0008,0.518,0.006191945586670707,1.1094060825623278,0.029828879203783427,0.11504575299426399
0.6109999999999999,0.0019,1.518,0.006234830395793268,1.1085180422291316,0.030333319233826015,0.11483645443685224
0.612,0.0008,2.518,0.006243648437985363,1.1085180422291316,0.030437042989610606,0.11483645443685224
0.6129999999999999,-0.0017,-0.482,0.006295866235871638,1.099818208786807,0.03105126392409653,0.11278602663404327
0.614,0.0084,1.518,0.006296221192593165,1.0998182087868076,0.03105543916430243,0.11278602663404343
0.6149999999999999,0.0048,0.518,0.006299742316608623,1.099818208786807,0.03109685699827401,0.11278602663404327
0.616,0.0084,1.518,0.006331359405683405,1.090326671207998,0.03146875851046593,0.11054900535403639
0.6169999999999999,0.0095,-0.482,0.006323269064335987,1.1180313115448886,0.03137359446250007,0.11707859758016109
0.618,0.0103,1.518,0.006323461810785767,1.1182074650128841,0.031375861676157,0.11712011446329844
0.6189999999999999,0.0128,-1.482,0.006276353852579054,1.1452378348875005,0.030821746120107168,0.12349079066975156
0.62,0.0005,-0.482,0.0063132223429125545,1.1452378348875032,0.03125541815344429,0.12349079066975219
0.6209999999999999,-0.0013,0.518,0.006235148207676074,1.1452378348875032,0.030337057551402577,0.12349079066975219
0.622,-0.0093,-0.482,0.0060683760487256185,1.1535951872413062,0.028375371010352386,0.12546050051968347
0.6229999999999999,-0.0107,1.518,0.0060855479315830695,1.1535951872413068,0.028577358270683768,0.12546050051968363
0.624,0.0071,-0.482,0.006094725240006345,1.1445496990497175,0.02868530795803149,0.12332860677700769
0.6249999999999999,0.0002,0.518,0.00610793916162892,1.1535951872413097,0.028840739010580246,0.1254605005196843
0.626,0.0024,-0.482,0.0061076273514309816,1.1535951872413102,0.028837071288866336,0.1254605005196844
0.6269999999999999,0.0007,0.518,0.006100429370021499,1.1535951872413108,0.028752403779957327,0.12546050051968458
0.628,0.0025,0.518,0.0060875225864116984,1.1537659109377743,0.02860058549173145,0.12550073768240125
0.6289999999999999,0.004,-0.482,0.006077332073640039,1.1537659109377743,0.028480717811919836,0.12550073768240125
0.63,0.0054,2.518,0.006103369626866805,1.145409804250682,0.028786989062758526,0.12353132141851085
0.6309999999999999,-0.0011,1.518,0.006120282832837866,1.1455817477986205,0.02898593359119925,0.1235718460829822
0.632,0.0,-0.482,0.005988519879924483,1.1546191507682761,0.027436048928400104,0.1257018342531027
0.6329999999999999,0.0033,0.518,0.0059898839424810495,1.1544485532517672,0.02745209395159346,0.1256616268292182
0.634,-0.0057,-1.482,0.005943780857345379,1.1544485532517672,0.026909798389907987,0.1256616268292182
0.6349999999999999,-0.0046,0.518,0.005944515974601039,1.1544485532517672,0.026918445334551486,0.1256616268292182
0.636,-0.0101,-0.482,0.005966851431292819,1.1539366093758479,0.027181170030665128,0.1255409688920724
0.6369999999999999,-0.0075,0.518,0.005965528801334034,1.1448938186689257,0.027165612365613205,0.12340971090841367
0.638,-0.0082,0.518,0.00598765186457525,1.1357790337890559,0.02742583874680425,0.12126148491555905
0.6389999999999999,-0.0028,-0.482,0.005956183162290192,1.1357790337890545,0.027055682660048472,0.12126148491555874
0.64,0.0023,-1.482,0.006042010791734843,1.135605606000183,0.028065245086963106,0.12122061043647364
0.6409999999999999,-0.0027,0.518,0.00611442259690832,1.1440333255406165,0.0289170015462901,0.12320690483791727
0.642,0.0027,-2.482,0.00612399431295073,1.1350851636471013,0.02902959052189201,0.12109794952835486
0.6429999999999999,0.0006,-2.482,0.006067781094670386,1.1356056060001745,0.02836837275974486,0.12122061043647166
0.644,0.0042,-2.482,0.0060609777739244995,1.1613837651472054,0.028288347515569558,0.12729615826973945
0.6449999999999999,0.0071,-1.482,0.0061524021272942485,1.161383765147205,0.029363742381585133,0.12729615826973933
0.646,0.002,-0.482,0.0060991312222306695,1.1615533440885335,0.028737134090666323,0.12733612562984756
0.6469999999999999,-0.003,0.518,0.0061461385586793985,1.1527411894902944,0.029290066065777855,0.1252592253178282
0.648,-0.0001,-0.482,0.0061392243949124296,1.1529120396471086,0.029208737011278362,0.12529949228546255
0.6489999999999999,-0.0016,0.518,0.006109417876439968,1.1618924277207263,0.028858132650868527,0.12741604285027883
0.65,-0.0001,-1.482,0.005824483467638114,1.1618924277207257,0.02550654208355601,0.12741604285027866
0.6509999999999999,0.001,0.518,0.005725313018909073,1.153082864489367,0.02434003242291498,0.1253397532868138
0.652,-0.0056,0.518,0.005728401378207768,1.1529120396471042,0.024376359786596687,0.12529949228546153
0.6529999999999999,-0.0081,-0.482,0.005588134162458797,1.1529120396471042,0.022726442252297186,0.12529949228546153
0.654,-0.0059,-1.482,0.005527623084376323,1.1529120396471042,0.02201467016632155,0.12529949228546153
0.6549999999999999,-0.0067,0.518,0.005668396214379635,1.1529120396471044,0.023670538605076032,0.12529949228546158
0.656,-0.006,-0.482,0.005574294636470445,1.1529120396471044,0.022563652419529418,0.12529949228546158
0.6569999999999999,0.002,-0.482,0.0055691865903798096,1.1269401109175055,0.02250356813849519,0.1191782756997895
0.658,-0.0013,-1.482,0.005579576432999878,1.1356056060001654,0.022625780470335744,0.12122061043646952
0.6589999999999999,0.0012,-0.482,0.005442547376177231,1.1523994131879693,0.021013952343905795,0.1251786734730976
0.66,0.0074,-2.482,0.005491633975200689,1.1518865585936429,0.021591342006882175,0.12505780089249285
0.6609999999999999,0.0052,0.518,0.005507765547847509,1.1517155563128203,0.021781092437328068,0.12501749807137943
0.662,0.0102,0.518,0.005505420466723582,1.142827546674122,0.021753508012521017,0.12292271979825066
0.6629999999999999,0.0023,-0.482,0.005534136533632613,1.1157387856438092,0.02209128574665755,0.11653828162154009
0.664,0.003,0.518,0.005537656576409386,1.141965496570894,0.022132690862370942,0.1227195467707679
0.6649999999999999,-0.0065,-0.482,0.005496459987286658,1.1414479540089153,0.021648108813857453,0.12259756930243436
0.666,-0.0003,2.518,0.005477975451141869,1.1412753876674033,0.021430681240808155,0.12255689785431861
0.6669999999999999,0.0018,0.518,0.005414147355586474,1.1321314711922237,0.02067989215958578,0.12040180595611541
0.668,-0.0018,2.518,0.005349508495001572,1.1323054310916403,0.019919566313615942,0.12044280584613655
0.6689999999999999,-0.0069,-1.482,0.005276549663468664,1.1230884857606331,0.01906137536154358,0.11827050207860404
0.67,0.0021,0.518,0.005119367379066393,1.114325656199241,0.017212491388679384,0.11620522698074497
0.6709999999999999,-0.0016,-1.482,0.005184637224887657,1.1414479540089153,0.01798023930829486,0.12259756930243436
0.672,0.0071,-0.482,0.005264253139249547,1.1503466229475774,0.01891673535559687,0.12469485982193534
0.6729999999999999,-0.0096,-0.482,0.005188290446261717,1.1505178286939548,0.018023210960434344,0.12473521059700479
0.674,0.007,1.518,0.005103154738851627,1.1416204942654524,0.01702178738685828,0.12263823460269015
0.6749999999999999,0.0005,-0.482,0.005085608443802239,1.14179300844884,0.016815396037964697,0.12267889375787301
0.676,-0.0014,0.518,0.005089179764577601,1.14179300844884,0.016857404320059804,0.12267889375787301
0.6769999999999999,0.0004,0.518,0.005246802184158353,1.14179300844884,0.01871146545955243,0.12267889375787301
0.678,0.0051,0.518,0.005256013157466266,1.1501753917169064,0.01881981113596401,0.12465450304057803
0.6789999999999999,0.0065,0.518,0.005251962319426888,1.1500041349905583,0.01877216244860617,0.1246141402502499
0.68,0.0054,0.518,0.0052473063605541935,1.1501753917169062,0.01871739592214439,0.12465450304057797
0.6809999999999999,-0.0034,1.518,0.0052748620884635776,1.1232638461482987,0.019041524966877443,0.11831183204391481
0.682,0.0042,-0.482,0.0052746601500363146,1.1227376828166937,0.019039149630985793,0.11818782278200266
0.6829999999999999,0.0016,-0.482,0.005274666751980821,1.1314353641286108,0.019039227287506913,0.12023774335808683
0.684,0.0023,-0.482,0.0052657617470756694,1.1314353641286108,0.018934480617676896,0.12023774335808683
0.6849999999999999,-0.01,-1.482,0.005372340623747277,1.1229130979877096,0.02018813320119386,0.11822916565897494
0.686,-0.001,-0.482,0.00537208071570761,1.1229130979877098,0.020185075987648547,0.118229165658975
0.6869999999999999,-0.0058,-0.482,0.0052874874072383815,1.1229130979877096,0.019190032476001664,0.11822916565897494
0.6880000000000001,-0.0015,-1.481999999999889,0.005259726698349691,1.1227376828166937,0.018863492306829092,0.11818782278200266
0.689,-0.0106,-0.482000000000111,0.005232219210119952,1.1227376828166937,0.018539930689722445,0.11818782278200266
0.6900000000000001,-0.0095,-1.481999999999778,0.0052968300656687,1.1314353641286108,0.01929992712158115,0.12023774335808683
0.691,-0.0041,0.518000000000111,0.005302084986614204,1.1227376828166937,0.019361739043654663,0.11818782278200266
0.6920000000000001,0.0024,1.517999999999556,0.005356493907485064,1.1225622402347417,0.020001733443542113,0.11814647344466007
0.693,0.0031,-2.481999999999778,0.005574951207869605,1.0960509782159369,0.022571375454867426,0.11189814362417731
0.6940000000000001,0.0106,-0.48199999999988896,0.005764815787699341,1.0960509782159369,0.024804690615012302,0.11189814362417731
0.695,-0.0003,0.518,0.0057817146541015415,1.0686980814428486,0.025003466471778958,0.10545145238546355
0.6960000000000001,-0.008,0.518,0.005782948554805177,1.0596713791129488,0.025017980443526686,0.10332398620492007
0.697,-0.0015,0.518000000000111,0.0057993141040562106,1.0688823651344344,0.025210483064495835,0.10549488544741084
0.6980000000000001,0.004599999999999267,1.517999999999778,0.005802128561756569,1.0688823651344344,0.025243588612963247,0.10549488544741084
0.699,0.0013,-0.48199999999988896,0.005802157030026039,1.0690666170595446,0.025243923475936875,0.10553831102244879
0.7000000000000001,0.001999999999999023,0.517999999999889,0.005820698229658075,1.0690666170595446,0.02546201756311539,0.10553831102244879
0.701,-0.0024,-0.48199999999988896,0.005822104681791255,1.0696191824001706,0.025478561201080236,0.10566854286479373
0.7020000000000001,-0.0016999999999992006,0.518,0.005854356361602791,1.0696191824001706,0.02585792719724357,0.10566854286479373
0.703,0.0019,0.518,0.005853405680004578,1.069435025676012,0.025846744639508663,0.10562513972727476
0.7040000000000001,0.012699999999997668,0.518,0.005816023213598496,1.0976670887796183,0.025407026873176586,0.11227903804636985
0.705,0.0022,0.518,0.005873619062055656,1.0982052637996198,0.02608450806338138,0.11240587829349688
0.7060000000000001,-0.006899999999999755,-0.482,0.005837626503098914,1.0980259014346774,0.025661139325291404,0.11236360511869489
0.707,-0.0058,-1.482,0.005849984366039299,1.1074514538583393,0.025806500838621075,0.11458507463008655
0.7080000000000001,0.0043000000000008,-2.482,0.005850332189626072,1.1076292899109819,0.025810592174088147,0.11462698807464815
0.709,0.0079,-1.482,0.005876415740392268,1.0989224205103012,0.026117404478988783,0.1125749019958816
0.7100000000000001,0.004299999999999267,-0.482,0.005880473395301625,1.0989224205103012,0.026165133350966017,0.1125749019958816
0.711,0.001,0.518,0.005833919226695898,1.0812983728662713,0.025617531841467256,0.10842116301605896
0.7120000000000001,0.005699999999998157,-0.482,0.005816274649306166,1.0812983728662713,0.025409984429442454,0.10842116301605896
0.713,-0.0026,-2.482,0.005811096441976265,1.0812983728662713,0.02534907486462203,0.10842116301605896
0.7140000000000001,0.004999999999998534,-1.482,0.005823896811543495,1.0814805094771718,0.0254996414391542,0.10846409004142969
0.715,-0.0016,-0.482,0.005824417886585515,1.0812983728662715,0.025505770675012515,0.10842116301605902
0.7160000000000001,0.000899999999998801,-0.482,0.005886214282763097,1.0814805094771716,0.026232661538750632,0.10846409004142964
0.717,-0.0045,0.518,0.005898935812295068,1.0528144797312262,0.026382300743648463,0.10170791191722765
0.7180000000000001,-0.005299999999998867,-0.482,0.005919254048663757,1.0528144797312262,0.026621297534678637,0.10170791191722765
0.719,-0.0002,-0.482,0.005928123245790132,1.0518786634650164,0.026725623009279584,0.10148735324753835
0.7200000000000001,-0.008200000000000223,2.518,0.0059098306952527395,1.070539490834968,0.02651045370034629,0.10588544655776416
0.721,-0.0092,1.518,0.005970106956404266,1.07035549245166,0.027219463711309233,0.1058420807389462
0.7220000000000001,-0.0027000000000005553,0.518,0.006093662686868426,1.0611572934476736,0.02867280949184311,0.10367419521578339
0.723,-0.0052,0.518,0.006068199444433358,1.0703554924516598,0.028373293671632306,0.10584208073894615
0.7240000000000001,0.005699999999998312,0.518,0.00599640384017937,1.079475316533768,0.02752878538285099,0.10799149440055812
0.725,-0.0019,0.518,0.00596957613892855,1.069803307423456,0.02721321987837921,0.10571193853086483
0.7260000000000001,0.012999999999997824,-0.482,0.005995731053687045,1.069803307423456,0.02752087161465791,0.10571193853086483
0.727,0.0032,-1.482,0.006004182169589433,1.07874523134179,0.027620279336107955,0.10781942363782741
0.7279999999999999,0.0014,-0.482,0.006021012445440316,1.0785626328252316,0.02781824838457873,0.10777638774782042
0.729,-0.0033,0.518,0.0059995140863628536,1.0785626328252316,0.027565370194823746,0.10777638774782042
0.7299999999999999,-0.0076,-0.482,0.005965177175790597,1.0783800033898714,0.027161476308969267,0.10773334457068877
0.731,-0.001,-1.482,0.005946576078123462,1.0781973430199974,0.026942677660729553,0.10769029410272934
0.7319999999999999,0.0001,-1.482,0.00596615671107796,1.0685137659683512,0.027172998263243868,0.10540801183273311
0.733,0.0012,0.518,0.005974268086593261,1.0685137659683512,0.027268409729269787,0.10540801183273311
0.7339999999999999,0.0121,0.518,0.006047491087767676,1.0685137659683512,0.028129708022720707,0.10540801183273311
0.735,0.0046,0.518,0.006049586488924959,1.0686980814428486,0.02815435554347124,0.10545145238546355
0.7359999999999999,0.0035,-0.482,0.00602335802671045,1.0870702222321558,0.027845838692442584,0.10978150634813456
0.737,-0.0052,-0.482,0.006032576231687635,1.1139720937403932,0.027954269432622404,0.11612189730547509
0.7379999999999999,-0.0062,0.518,0.0060081010336640196,1.1227376828166937,0.02766637565673906,0.11818782278200266
0.739,-0.0087,-1.482,0.00601410689545595,1.1402394411705137,0.02773702065119606,0.1223127399042237
0.7399999999999999,0.0033,-0.482,0.00592735816796577,1.1404121642707084,0.02671662364823305,0.12235344829814578
0.741,0.0081,-0.482,0.005855344800588095,1.1319574845585505,0.025869553882814613,0.12036079976520776
0.7419999999999999,0.0157,0.518,0.005879341114098892,1.13195748455855,0.026151814696281302,0.12036079976520767
0.743,0.0147,-2.482,0.005901277848929902,1.1227376828167033,0.02640984935712276,0.11818782278200492
0.7439999999999999,0.0061,-0.482,0.005896896114869489,1.1227376828167082,0.026358308447735564,0.11818782278200607
0.745,0.0072,0.518,0.00580780090878136,1.1229130979877244,0.02531031058193412,0.11822916565897844
0.7459999999999999,0.0048,-1.482,0.005875283723749338,1.1229130979877244,0.02610408893623479,0.11822916565897844
0.747,-0.0035,0.518,0.005840816995736577,1.1314353641286257,0.02569866805014578,0.12023774335809034
0.7479999999999999,-0.0002,0.518,0.005923609750466824,1.131261270434517,0.026672532235108723,0.12019671193455098
0.749,-0.0049,0.518,0.005926007206714994,1.148118625021865,0.026700732731428905,0.12416975219524716
0.7499999999999999,0.0013,1.518,0.005956809051120118,1.1481186250218653,0.02706304478632654,0.12416975219524727
0.751,-0.0062,0.518,0.005981539987511281,1.1481186250218658,0.027353946729261308,0.12416975219524738
0.7519999999999999,-0.0055,-0.482,0.005980297207947262,1.1481186250218662,0.02733932831837323,0.12416975219524748
0.753,-0.0047,2.518,0.005997198985125263,1.1481186250218662,0.027538138413646777,0.12416975219524748
0.7539999999999999,-0.0101,1.518,0.006070863725125702,1.1564551589623298,0.028404632736909404,0.1261345554393449
0.755,-0.0017,-0.482,0.005938319284034641,1.164732025943768,0.02684555568342713,0.12808529602436897
0.7559999999999999,-0.0071,1.518,0.005973304594005479,1.164732025943768,0.02725707648004073,0.12808529602436897
0.757,0.0021,0.518,0.0059331807708437176,1.164732025943768,0.026785113027823933,0.12808529602436897
0.7579999999999999,0.0057,0.518,0.0059226235582180205,1.1562848323293142,0.026660931977166746,0.12609441185887188
0.759,0.0025,-0.482,0.0059393933265699745,1.1562848323293144,0.026858189295651966,0.12609441185887194
0.7599999999999999,0.0,1.518,0.005935485165468076,1.1477754722464613,0.026812218870599615,0.1240888759352632
0.761,-0.0025,0.518,0.005920992777839414,1.1479470614563827,0.02664174963917788,0.12412931708727115
0.7619999999999999,0.0099,0.518,0.005925947031207604,1.1477754722464613,0.0267000249065516,0.1240888759352632
0.763,0.0045,0.518,0.005910304686395157,1.1479470614563827,0.026516029103642074,0.12412931708727115
0.7639999999999999,0.0031,-0.482,0.005921000579019597,1.1220357478946974,0.026641841401917325,0.11802238664010806
0.765,-0.0107,0.518,0.005912302343632419,1.1132646319583546,0.02653952689452414,0.11595515856076999
0.7659999999999999,0.0039,-0.482,0.005910124586825183,1.1220357478946965,0.02651391065110965,0.11802238664010785
0.767,-0.0052,0.518,0.005919907786839334,1.1220357478946963,0.02662898724373123,0.1180223866401078
0.7679999999999999,-0.0037,-2.482,0.00594868019707771,1.1218601955403593,0.02696742772608394,0.1179810114309653
0.769,-0.0051,-2.482,0.0059324005858488555,1.1220357478946965,0.02677593596605546,0.11802238664010785
0.7699999999999999,-0.0087,-0.482,0.0059637964077258274,1.1312612704345186,0.027145234784328606,0.12019671193455135
0.771,-0.0123,-0.482,0.00591272929980457,1.10406712638028,0.026544549040797227,0.1137874364682956
0.7719999999999999,0.0044,-1.482,0.005869355649402596,1.1040671263802784,0.026034358930138248,0.11378743646829523
0.773,-0.0024,-1.482,0.00587243713144291,1.1040671263802784,0.026070605398871485,0.11378743646829523
0.7739999999999999,0.0041,-0.482,0.0059653994726378305,1.1040671263802777,0.02716409111431856,0.11378743646829508
0.775,-0.0056,-0.482,0.005938538449697689,1.1038887164645934,0.026848133657677548,0.11374538777232393
0.7759999999999999,0.0035,-1.482,0.005936009183392193,1.1037102777097312,0.02681838272262071,0.11370333227936609
0.777,-0.0045,-0.482,0.005802722520385785,1.1125567203097249,0.02525057515469903,0.11578831378886653
0.7779999999999999,-0.0001,0.518,0.005837131559709198,1.10371027770973,0.025655317467540694,0.11370333227936583
0.779,0.001,-0.482,0.005932502164343154,1.1125567203097255,0.02677713080077115,0.11578831378886668
0.7799999999999999,-0.0026,-0.482,0.005946761428880735,1.1211577112408462,0.026944857881266385,0.11781544580855338
0.781,-0.0059,-0.482,0.005899267682897865,1.1213333735738753,0.026386204429365394,0.11785684693811949
0.7819999999999999,-0.0052,-0.482,0.005898619111693606,1.1125567203097215,0.026378575497712085,0.11578831378886574
0.783,-0.0095,-0.482,0.005899864576913342,1.103888716464589,0.026393225499092884,0.11374538777232289
0.7839999999999999,0.0028,0.518,0.005910804752633715,1.103888716464589,0.02652191121979376,0.11374538777232289
0.785,0.0083,-2.482,0.0058168173783813585,1.103710277709726,0.02541636837463416,0.11370333227936488
0.7859999999999999,0.0035,-2.482,0.00588405687440744,1.1123796720052768,0.026207284647538843,0.1157465860054225
0.787,0.0021,-1.482,0.005876144286178421,1.1123796720052768,0.02611421145156043,0.1157465860054225
0.7879999999999999,0.0031,-2.482,0.005870345747439657,1.1123796720052768,0.026046005130594286,0.1157465860054225
0.789,-0.003,0.518,0.00588811637991481,1.120982021380831,0.026255035287497237,0.11777403819126567
0.7899999999999999,0.0024,0.518,0.006058410915228329,1.1122025955170265,0.028258154393475655,0.11570485157945455
0.791,-0.0067,0.518,0.006141926571843604,1.1215090083928545,0.029240521837659343,0.11789824158301283
0.7919999999999999,-0.0056,-0.482,0.006132270095080387,1.121684615710709,0.029126935849329027,0.11793962974627971
0.793,0.0021,-2.482,0.005930974263574071,1.1215090083928547,0.026759158602092232,0.11789824158301287
0.7939999999999999,0.0028,0.518,0.00574917073267948,1.1223867702290096,0.024620662932816447,0.11810511764392004
0.795,0.0089,0.518,0.005718556701491327,1.1225622402347517,0.02426056006356636,0.11814647344466243
0.7959999999999999,0.0049,-1.482,0.0056872191863780374,1.1223867702290096,0.02389194708874746,0.11810511764392004
0.797,0.01,-0.482,0.0059365854173116924,1.1137952704229899,0.02682516077437403,0.11608022254829815
0.7979999999999999,0.0049,-2.482,0.0062382742015174445,1.1137952704229899,0.030373827597941605,0.11608022254829815
0.799,0.0062,-0.482,0.006395265780359757,1.1137952704229899,0.032220468363470554,0.11608022254829815
0.7999999999999999,0.0058,0.518,0.006405316968677426,1.1229130979877195,0.03233869721514711,0.11822916565897729
0.801,0.0021,-0.482,0.006448788504183284,1.1137952704229899,0.03285003871637431,0.11608022254829815
0.8019999999999999,-0.0048,0.518,0.006419523945650723,1.1137952704229899,0.03250580925406847,0.11608022254829815
0.803,-0.0096,-1.482,0.006442154567784426,1.1139720937404034,0.03277200588505689,0.1161218973054775
0.8039999999999999,-0.0013,-1.482,0.006440028292906664,1.0956915188211604,0.03274699520679663,0.11181342412444013
0.805,-0.0068,0.518,0.006541891379238687,1.1130876962546996,0.03394517748581076,0.1159134573157417
0.8059999999999999,-0.0002,-0.482,0.006557345788469835,1.1218601955403522,0.03412696266374103,0.11798101143096362
0.807,-0.0046,-0.482,0.00651958300459548,1.1127337404438138,0.03368277134700623,0.115830034932955
0.8079999999999999,0.0062,-2.482,0.0065352874680355885,1.1125567203097217,0.03386749783108339,0.1157883137888658
0.809,0.0076,-0.482,0.006530578880483578,1.1125567203097217,0.03381211225062281,0.1157883137888658
0.8099999999999999,0.0011,0.518,0.006527319082704591,1.1125567203097217,0.03377376831198324,0.1157883137888658
0.811,-0.0026,-0.482,0.006532046812386539,1.103174788270114,0.033829379055078296,0.11357712498558502
0.8119999999999999,-0.0037,0.518,0.006527594441176879,1.1029962340185273,0.03377700726393093,0.11353504227168135
0.8130000000000001,-0.0044,0.517999999999889,0.006505288222004519,1.1029962340185273,0.03351462647922732,0.11353504227168135
0.814,-0.0038,-0.482000000000111,0.006513202763945871,1.1028176508577003,0.03360772265608704,0.11349295274427824
0.8150000000000001,0.0002,-1.481999999999889,0.006545446182894972,1.1116711968147508,0.03398699148241844,0.11557960841465764
0.816,-0.0035,-0.482,0.006469616064336199,1.111671196814751,0.03309502651704807,0.1155796084146577
0.8170000000000001,0.0074,-0.48199999999988896,0.006467883972498629,1.1116711968147508,0.033074652485393104,0.11557960841465764
0.818,0.003,0.518000000000111,0.006454686154388195,1.1114940074565332,0.032919410853208216,0.11553784738683338
0.8190000000000001,-0.0061,1.517999999999889,0.006444119154080455,1.084712262426794,0.03279511467323776,0.10922576854293724
0.82,-0.0026,0.518000000000111,0.006456740402633174,1.0662994952051748,0.03294357430566641,0.10488613950427265
0.8210000000000001,-0.0058,1.517999999999889,0.006405726122844218,1.066484193361799,0.032343509962234285,0.10492967024977262
0.822,-0.0033,0.518,0.006313070105383742,1.075636840887672,0.03125362743301953,0.10708681993324357
0.8230000000000001,-0.01169999999999727,0.517999999999889,0.006352480547353143,1.0756368408876718,0.03171719961481985,0.10708681993324351
0.824,0.0006,-0.482,0.006348372844971004,1.0666688595371687,0.03166888205073486,0.10497319345774284
0.8250000000000001,-0.0007999999999990453,-0.482000000000111,0.006384471806678367,1.0666688595371685,0.03209350236969505,0.10497319345774278
0.826,0.0035,-1.481999999999889,0.006420117544442943,1.0666688595371685,0.03251279156315896,0.10497319345774278
0.8270000000000001,0.0071000000000008,-0.482000000000111,0.006413423028877132,1.057438592601046,0.03243404615884838,0.10279774997613553
0.828,0.0107,-1.482,0.006414134805354557,1.057624838181213,0.03244241855352617,0.1028416454274975
0.8290000000000001,0.005299999999998534,-1.481999999999778,0.00642029943673576,1.057438592601046,0.0325149311029058,0.10279774997613553
0.83,-0.0013,0.517999999999889,0.006420346714620154,1.057438592601046,0.032515487217248194,0.10279774997613553
0.8310000000000001,-0.0005000000000001555,-0.48199999999988896,0.006609492341210427,1.06722266634175,0.03474034556480292,0.10510371789559858
0.832,-0.0012,0.518,0.006611312253734331,1.0674072047580299,0.034761752602563284,0.10514721099255672
0.8330000000000001,0.0038000000000004883,0.518,0.00659109883020753,1.0675917112759483,0.034523988690825166,0.10519069657152183
0.834,0.006,-0.482,0.006534216556643891,1.0677761859120407,0.033854901049480454,0.10523417463639106
0.8350000000000001,0.009999999999998158,-1.482,0.006528411547601302,1.0677761859120407,0.03378661862043961,0.10523417463639106
0.836,0.0017,-0.482,0.006475991370707214,1.0398691008238174,0.03317001716765664,0.09865686904317524
0.8370000000000001,-0.00450000000000071,-0.482,0.006516091998685556,1.0109973240714576,0.03364170778249209,0.09185219925702434
0.838,-0.0077,-1.482,0.006610319384254336,1.0014506636430778,0.03475007380252746,0.08960218630032854
0.8390000000000001,-0.016699999999998646,-0.482,0.006686318156969629,0.9716404660976359,0.0356440225917628,0.08257634399430981
0.84,-0.0106,1.518,0.00668318843552896,0.9714377355974362,0.03560720869868835,0.08252856328024871
0.8410000000000001,-0.007299999999997979,0.518,0.006754640657521208,0.9712349627803345,0.03644767789386117,0.08248077259269182
0.842,0.0018,-0.482,0.007050153992081206,0.9710321476198206,0.03992370491632977,0.08243297192539102
0.8430000000000001,-0.0017999999999992894,2.518,0.007067502737695368,0.9712349627803345,0.04012777255561431,0.08248077259269182
0.844,0.0014,0.518,0.007256493204544153,0.9404674989462356,0.04235080580970915,0.0752293161498087
0.8450000000000001,0.004000000000003042,-0.482,0.0072703806488632425,0.9506267796263024,0.04251415929018089,0.07762371504273538
0.846,0.0177,0.518,0.007246785671303369,0.9504195667845426,0.04223661926067671,0.07757487790410969
0.8470000000000001,0.0194999999999988,0.518,0.00730308588568081,0.9402580472181193,0.04289886032955486,0.07517995133730704
0.848,0.0141,0.518,0.007243042263722763,0.9404674989462356,0.04219258677758868,0.0752293161498087
0.8490000000000001,0.0061000000000003335,1.518,0.007229009050481995,0.9086588359893155,0.042027518664809256,0.06773246378712479
0.85,0.0076,0.518,0.007208002754271107,0.9200264793216395,0.04178042845015026,0.0704116566815102
0.8510000000000001,0.0009999999999980682,0.518,0.007186286170515066,0.9200264793216395,0.04152498335463841,0.0704116566815102
0.852,-0.0077,0.518,0.007201450854337583,0.9202405358756632,0.04170336058703217,0.07046210678640628
0.8530000000000001,-0.00440000000000242,1.518,0.007196544419094888,0.9312553704996737,0.04164564778868081,0.07305814765387131
0.854,-0.0153,-2.482,0.007132487674734177,0.9206684996784897,0.040892169186096845,0.07056297180706775
0.8549999999999999,-0.0048,-1.482,0.007139448008267057,0.9101748890909673,0.040974041320502246,0.06808977607945425
0.856,-0.0011,0.518,0.007112030184950754,0.9101748890909673,0.04065153440254322,0.06808977607945425
0.8569999999999999,0.005,-0.482,0.007159287790415175,0.9215238310338307,0.0412074102105032,0.07076456132061788
0.858,-0.0051,0.518,0.007159287790415175,0.9215238310338307,0.0412074102105032,0.07076456132061788
0.8589999999999999,0.0014,-0.482,0.007135012745955259,0.8890376453281031,0.04092187077574324,0.06310802642028539
0.86,0.0025,-0.482,0.007095572530558313,0.889259161339536,0.040457948378820295,0.06316023461388132
0.8609999999999999,-0.0007,-0.482,0.007121650194022716,0.8890376453281031,0.040764691433309096,0.06310802642028539
0.862,0.0083,0.518,0.007119161372984185,0.8890376453281031,0.040735416242743155,0.06310802642028539
0.8629999999999999,-0.0055,-0.482,0.00713925126078415,0.8890376453281031,0.0409717270439969,0.06310802642028539
0.864,0.0072,-1.482,0.0071278206080818834,0.8888160741091391,0.04083727200244457,0.06305580521505451
0.8649999999999999,-0.004,0.518,0.007135037174060548,0.8888160741091385,0.04092215811558264,0.06305580521505437
0.866,0.0036,-0.482,0.007157624327185604,0.8777174572779908,0.04118784343479245,0.06044001806531465
0.8669999999999999,0.0032,-0.482,0.007177713164585666,0.9108238536506541,0.04142414188053455,0.06824272785549008
0.868,-0.0004,0.518,0.0071572152517783705,0.9215238310338331,0.04118303161412829,0.07076456132061842
0.8689999999999999,-0.0065,-1.482,0.0071797063609617805,0.9213100726397789,0.041447587199761105,0.0707141814878138
0.87,-0.0032,0.518,0.007174083283049518,0.910174889090971,0.04138144476730007,0.06808977607945511
0.8709999999999999,-0.0058,-1.482,0.007182289813766025,0.9206684996784927,0.0414779755129389,0.07056297180706846
0.872,-0.0083,-1.482,0.007182044688884799,0.9095254614822464,0.04147509218886729,0.06793671516930455
0.8729999999999999,0.0008,0.518,0.007182044688884799,0.909308882541426,0.04147509218886729,0.06788567057348496
0.874,-0.0079,-0.482,0.007099595064248831,0.919812372952889,0.040505264131349195,0.07036119483598696
0.8749999999999999,0.0088,-0.482,0.007141153229866388,0.9514551797145839,0.040994099286304014,0.07781895723721215
0.876,0.0019,-0.482,0.0071466360537629624,0.9516621670642722,0.04105859195649877,0.07786774123054307
0.8769999999999999,-0.0046,0.518,0.007174202658802143,0.9413048398033587,0.04138284894536388,0.07542666555715714
0.878,-0.0028,-0.482,0.0071870452581302875,0.9415140586592334,0.04153391225480754,0.07547597548496225
0.8789999999999999,-0.001,-0.482,0.0072058625642779555,0.9310438463728435,0.041755254092923744,0.07300829440627839
0.88,-0.0159,1.518,0.007215655967970761,0.9206684996784994,0.041870450708091124,0.07056297180707002
0.8809999999999999,-0.0061,0.518,0.007224909178930412,0.920454542649719,0.04197929321223138,0.07051254515886739
0.882,-0.0007,0.518,0.007294771766635075,0.9204545426497197,0.042801064057471146,0.07051254515886754
0.8829999999999999,0.004,0.518,0.007297122629268907,0.9204545426497197,0.04282871648829453,0.07051254515886754
0.884,-0.0004,0.518,0.007294700160817742,0.9204545426497197,0.04280022178158405,0.07051254515886754
0.8849999999999999,0.0007,0.518,0.007271485173401391,0.9206684996785006,0.04252715145226826,0.07056297180707032
0.886,-0.008,-0.482,0.007361558654059518,0.9101748890909783,0.04358665644293691,0.06808977607945685
0.8869999999999999,-0.0113,0.518,0.0074791108366262845,0.9103912620118513,0.044969384446600924,0.06814077211928612
0.888,-0.0105,0.518,0.007468465064003413,0.9106075835195356,0.04484416169356592,0.06819175604175338
0.8889999999999999,-0.0022,-0.482,0.007456156906286222,0.8997778016705256,0.04469938484657367,0.06563932949832839
0.89,0.0101,-0.482,0.007266386746592297,0.8999966742131886,0.0424671803197071,0.0656909146636908
0.8909999999999999,0.0213,-0.482,0.007189014676568577,0.8885944476413538,0.041557077881902625,0.06300357098845717
0.892,0.0075,0.518,0.007183811809610516,0.8883727658833795,0.04149587825391474,0.06295132373074365
0.8929999999999999,0.0166,0.518,0.0072204931924304385,0.888372765883379,0.0419273494025633,0.06295132373074351
0.894,0.0053,-1.482,0.007315399063183907,0.8534742695194575,0.04304369622265236,0.05472624129724681
0.8949999999999999,0.0067,-0.482,0.007379248859035586,0.8534742695194547,0.043794740557386025,0.05472624129724616
0.896,0.0103,0.518,0.007442703858019533,0.920454542649707,0.04454114102526113,0.07051254515886456
0.8969999999999999,-0.0035,0.518,0.007295460141662537,0.9308322741788455,0.04280916118852147,0.07295842982993324
0.898,0.0019,0.518,0.007080268918955693,0.9308322741788455,0.04027793698423711,0.07295842982993324
0.8989999999999999,-0.0028,1.518,0.006938759822097116,0.9308322741788462,0.038613411607275924,0.07295842982993339
0.9,0.0015,0.518,0.006965511459781229,0.9308322741788443,0.03892808240080787,0.07295842982993295
0.9009999999999999,-0.0051,0.518,0.006945235482483042,0.9308322741788443,0.03868958268944832,0.07295842982993295
0.902,-0.004,1.518,0.006959856013394062,0.9308322741788443,0.03886155922852806,0.07295842982993295
0.9029999999999999,-0.0008,-0.482,0.006954490920084031,0.930832274178845,0.0387984513848448,0.07295842982993311
0.904,-0.0034,0.518,0.0069425805289850435,0.9308322741788413,0.03865835333691781,0.07295842982993224
0.9049999999999999,-0.0027,0.518,0.006805758173595297,0.8984634467158177,0.03704895657206218,0.06532955460898607
0.906,-0.0082,1.518,0.006890752432971612,0.8874854851208688,0.038048716338526425,0.06274220419340876
0.9069999999999999,-0.0046,-0.482,0.00698377373253264,0.8872635262899439,0.03914289556201467,0.06268989163351614
0.908,0.0019,0.518,0.0069781055992849065,0.8874854851208681,0.039076223158329704,0.06274220419340859
0.9089999999999999,0.0012,0.518,0.007040877916421761,0.8874854851208667,0.039814593462179304,0.06274220419340826
0.91,0.0062,-0.482,0.007156463591194747,0.8984634467158139,0.04117419007571078,0.06532955460898518
0.9109999999999999,-0.0018,-0.482,0.007239076622073735,0.8984634467158139,0.04214594022759806,0.06532955460898518
0.912,-0.0065,0.518,0.0073542621555090166,0.898463446715814,0.04350083010901289,0.0653295546089852
0.9129999999999999,0.0018,-0.482,0.007397148134667605,0.898463446715814,0.044005283901807864,0.0653295546089852
0.914,0.005,-0.482,0.007394273399766847,0.898463446715814,0.043971469332281424,0.0653295546089852
0.9149999999999999,0.0057,-0.482,0.0075143097351760245,0.887485485120865,0.04538341761604217,0.06274220419340786
0.916,-0.0064,-2.482,0.00751227857447022,0.8989017785698132,0.045359525734781164,0.06543286323279451
0.9169999999999999,-0.005,-1.482,0.007526219678549801,0.9323122712714038,0.04552351039752345,0.07330724423043596
0.918,-0.0064,-0.482,0.007519887708210237,0.93252350768171,0.045449029494526075,0.07335702966730998
0.9189999999999999,-0.0054,0.518,0.0075212388886031455,0.93252350768171,0.04546492298902768,0.07335702966730998
0.92,-0.0043,-1.482,0.00753896417222964,0.933156930010312,0.04567341972220675,0.07350631835911031
0.9209999999999999,0.0058,0.518,0.007599722048290843,0.9329458370186952,0.046388094812354536,0.07345656672399468
0.922,-0.0033,-0.482,0.0076644377083542915,0.9329458370186952,0.047149324025555286,0.07345656672399468
0.9229999999999999,-0.0044,-1.482,0.007652348733434252,0.9223783692315591,0.04700712535435634,0.07096596389812704
0.924,-0.0077,-2.482,0.007772130473936966,0.922164808920029,0.04841607892122566,0.07091563075057418
0.9249999999999999,-0.0029,0.518,0.007735186635360755,0.9327346962533114,0.04798152059107168,0.0734068038292773
0.926,0.0072,-0.482,0.007685572604631889,0.9327346962533114,0.04739792692087772,0.0734068038292773
0.9269999999999999,0.0083,0.518,0.007695936496529101,0.9431861387759048,0.047519834002824765,0.07587006113987463
0.928,0.0119,-0.482,0.007682418548567193,0.9429772909053769,0.04736082678755348,0.07582083864807326
0.9289999999999999,0.0065,0.518,0.007681608922822848,0.9431861387759048,0.047351303423846,0.07587006113987463
0.93,0.0039,-0.482,0.0077085202931106295,0.943394940411892,0.04766785309992497,0.07591927273484805
0.9309999999999999,0.0101,-0.482,0.0075425028933598015,0.9325235076817101,0.04571504454530225,0.07335702966731
0.932,-0.0022,0.518,0.007559225903957814,0.9323122712714038,0.04591175186757004,0.07330724423043596
0.9329999999999999,0.0033,0.518,0.00756477846150737,0.9323122712714038,0.04597706479199291,0.07330724423043596
0.934,-0.0014,0.518,0.007568360694998504,0.9323122712714038,0.046019201436806295,0.07330724423043596
0.9349999999999999,-0.0152,0.518,0.007580938373380696,0.9321009869898685,0.046167148567522125,0.07325744751098971
0.936,-0.0133,0.518,0.007623619903315885,0.9321009869898685,0.046669197490748965,0.07325744751098971
0.9369999999999999,-0.0021,0.518,0.007581466263209256,0.9425594563377582,0.04617335796349301,0.0757223609450115
0.9380000000000001,-0.0064,-0.48199999999988896,0.007496618688980157,0.9423504695791124,0.045175323606598775,0.07567310571924345
0.939,0.0001,0.518,0.00755552675261085,0.9421414364628153,0.045868239956131616,0.07562383956763206
0.9400000000000001,-0.0009,0.517999999999889,0.007596828663670855,0.9421414364628153,0.04635406087226027,0.07562383956763206
0.941,0.0068,-0.482,0.007530001903093254,0.9524896666549514,0.04556799947189183,0.07806277119046014
0.9420000000000001,0.0075,-0.48199999999988896,0.007223176321472842,0.9627266714227375,0.04195891017483793,0.08047548855252352
0.943,0.0119,0.518,0.0072181665220977,0.9928045528810963,0.041899981537891415,0.08756442017410768
0.9440000000000001,0.0098,0.5179999999995559,0.007033202304739163,0.9926061449566372,0.03972430774406641,0.08751765823006526
0.945,0.0105,-3.481999999999778,0.007049013284755706,0.982680456822783,0.03991028714790971,0.08517831379932551
0.9460000000000001,0.0098,-1.481999999999778,0.007092213726842326,0.9828808683849687,0.040418439865617925,0.08522554797246619
0.947,0.0084,0.518,0.007280070970784023,0.982680456822783,0.04262814338806671,0.08517831379932551
0.9480000000000001,-1.9095836023550554e-15,0.518000000000111,0.007271741138302687,0.9824800043795684,0.042530162283962315,0.08513106999110401
0.949,-0.0086,1.517999999999889,0.007272374669917126,0.9824800043795684,0.0425376143098232,0.08513106999110401
0.9500000000000001,-0.0053999999999998225,0.518,0.007333844720925173,0.9720458002532186,0.04326066648171466,0.08267187552690118
0.951,-0.0046,0.518,0.007339695635373184,0.9818784015133476,0.04332948888107515,0.08498928069693804
0.9520000000000001,-0.0071999999999987786,0.518000000000111,0.007339484717549068,0.9916135098549637,0.043327007923465444,0.0872837081637785
0.953,-0.0017,1.517999999999778,0.007339484717549068,0.9812764298153316,0.043327007923465444,0.08484740447433
0.9540000000000001,-0.00680000000000111,-0.482,0.007358983095501727,0.9814771280711969,0.043556360987206756,0.08489470621711964
0.955,-0.0118,-0.482,0.007416291178975505,1.0119709459062538,0.044230457291718164,0.09208166816498939
0.9560000000000001,-0.01139999999999838,-0.48199999999988896,0.007462385415341581,1.0117762964917885,0.04477264876821144,0.09203579204864003
0.957,-0.0041,0.518,0.007421189137643429,1.0016473196324556,0.0442880703828837,0.08964853533802936
0.9580000000000001,0.010700000000000489,0.517999999999778,0.007407479220128858,1.0018439370194525,0.04412680509234302,0.0896948752776945
0.959,0.0129,-1.481999999999889,0.0074080150977696045,1.0016473196324545,0.044133108446344785,0.08964853533802909
0.9600000000000001,0.011200000000000399,-0.482,0.007429622561613648,1.0014506636430582,0.044387269999902904,0.08960218630032393
0.961,0.013,-0.482,0.0075238491429012,1.0016473196324533,0.04549562655944037,0.08964853533802883
0.9620000000000001,0.011499999999996314,0.518,0.007533853883335744,1.0018439370194516,0.045613309059808885,0.08969487527769429
0.963,-0.0051,-0.482,0.007524921409415289,1.0018439370194516,0.04550823928090626,0.08969487527769429
0.9640000000000001,0.015199999999995826,-0.482,0.007526065132261688,1.0018439370194505,0.04552169251991565,0.08969487527769403
0.965,-0.0036,1.518,0.007524960535451872,1.0020405158267751,0.045508699507720206,0.0897412061246756
0.9660000000000001,-0.005799999999998534,2.518,0.0075147325797509995,1.012360132457758,0.04538839139893797,0.09217339393548533
0.967,0.0008,0.518,0.007490011359957052,0.9826804568227674,0.04509760374916883,0.08517831379932184
0.9680000000000001,0.001499999999997824,0.518,0.007478132924193964,0.9826804568227607,0.044957881581441164,0.08517831379932025
0.969,-0.0083,1.518,0.0074667607918678875,0.9828808683849464,0.044824114895997386,0.08522554797246094
0.9700000000000001,-0.01010000000000031,-0.482,0.0075340784412380795,0.9826804568227628,0.04561595046121227,0.08517831379932075
0.971,-0.0115,-1.482,0.0075251800376735355,1.0026300209975947,0.04551128144079991,0.08988014416299109
0.9720000000000001,-0.007100000000001444,-0.482,0.00750306892928811,1.0024335577931738,0.04525119568068046,0.08983384056198031
0.973,-0.0136,-0.482,0.007594619467580234,1.0024335577931738,0.04632807481880394,0.08983384056198031
0.9740000000000001,-0.002299999999999667,-1.482,0.007770358386357071,0.9926061449566163,0.0483952344326916,0.08751765823006032
0.975,-0.0008,-0.482,0.007886091367649018,0.9625220634629136,0.04975656376478638,0.08042726534775986
0.9760000000000001,-0.004399999999999179,-1.482,0.007887257325629487,0.9926061449566163,0.049770278548429574,0.08751765823006032
0.977,-0.0007,-0.482,0.007855867762040118,0.9926061449566163,0.04940105334435341,0.08751765823006032
0.9780000000000001,0.0025999999999979794,0.518,0.007833448611109387,0.9924076973652907,0.049137344180189786,0.08747088693709798
0.979,-0.0065,0.518,0.007839617065085177,1.0022370560771148,0.04920990169350344,0.08978752788432066
0.9800000000000001,-0.00030000000000168753,0.518,0.007860873230165464,1.002040515826763,0.049459931034220486,0.0897412061246727
0.981,-0.0079,-0.482,0.007940711531493564,1.0123601324577525,0.05039904294691193,0.09217339393548403
0.9820000000000001,0.0029999999999983126,0.518,0.007877158845676791,1.0123601324577525,0.04965149342066641,0.09217339393548403
0.983,-0.0046,0.518,0.007874152977260365,1.0123601324577525,0.04961613637034231,0.09217339393548403
0.9839999999999999,0.0044,-0.482,0.007877537746411051,1.0121655578877011,0.04965595030648878,0.09212753545890538
0.985,0.0081,0.518,0.0078901869025042,1.0119709459062374,0.04980473820621816,0.09208166816498552
0.9859999999999999,0.0004,-1.482,0.007742524032293476,1.0214192836082798,0.04806782799933361,0.09430850784450692
0.987,-0.0003,-0.482,0.0076271712527028355,1.0307810196619542,0.0467109708559125,0.09651493673929779
0.9879999999999999,-0.0141,-0.482,0.007628385329397918,1.0305899229468436,0.04672525164430987,0.09646989794398222
0.989,-0.0082,-0.482,0.007629232798106413,1.0305899229468443,0.04673522014246855,0.09646989794398238
0.9899999999999999,0.0008,-1.482,0.0076506047875705245,1.0305899229468443,0.04698661188765588,0.09646989794398238
0.991,-0.0006,-1.482,0.007658129198293575,1.0305899229468447,0.04707511907817038,0.09646989794398249
0.9919999999999999,0.007,-2.482,0.007630675852342795,1.0406264611814833,0.04675219431904173,0.09883536817702629
0.993,0.0034,-0.482,0.0075940331009663395,1.0406264611814837,0.04632117757946953,0.0988353681770264
0.9939999999999999,0.0071,-0.482,0.007527583158270603,1.0404371727765889,0.045539548565009705,0.098790755574875
0.995,0.0103,0.518,0.007637183090198212,1.0496293003074144,0.04682873683669407,0.10095721013761133
0.9959999999999999,0.0194,-0.482,0.00766883486070055,0.991613509854961,0.04720104629521281,0.08728370816377787
0.997,0.0005,-0.482,0.007616069787135597,0.9816777852954798,0.046580387935320496,0.08494199828934511
0.9979999999999999,-0.0021,0.518,0.007570082975441494,0.9920106830868278,0.04603946006022515,0.08737731628197348
0.999,0.0099,0.518,0.0076330584676135,0.9920106830868273,0.04678022024578188,0.08737731628197336
0.9999999999999999,0.0033,-1.482,0.0075949052192415345,0.9816777852954809,0.046331436022446,0.08494199828934537
1.001,0.0051,-1.481999999999556,0.007577030478237932,0.9814771280711964,0.04612118127086037,0.0848947062171195
1.0019999999999998,-0.004,0.518,0.007590121029263789,0.9814771280711964,0.0462751611552965,0.0848947062171195
1.0030000000000001,-0.0054,0.5180000000004441,0.007571719692282636,0.9812764298153328,0.046058712226887656,0.08484740447433028
1.004,-0.0098,2.518,0.007618643811047766,0.9706263901623627,0.04661066533951446,0.08233734062652948
1.005,-0.0087,-0.48199999999977794,0.007604002682466728,0.9706263901623627,0.046438446516756764,0.08233734062652948
1.0059999999999998,0.0025,0.518,0.007516445667682641,0.9812764298153362,0.045408541893842434,0.08484740447433109
1.0070000000000001,0.001,0.517999999999778,0.007431991806096088,0.9912161774786451,0.04441513865041932,0.08719006253748453
1.008,0.0021,-0.482,0.007425555686335562,0.9910174515514952,0.04433943267173398,0.08714322564470164
1.009,0.0058,-0.48199999999977794,0.007348460851834367,0.9910174515514963,0.04343259126500725,0.08714322564470191
1.0099999999999998,0.0134,0.518,0.007249130724926061,0.9812764298153396,0.042264203361995704,0.08484740447433188
1.0110000000000001,0.0043,0.518,0.007178492383205628,0.9814771280712026,0.0414333075751501,0.08489470621712097
1.012,0.0054,0.518,0.007197252903465952,0.9814771280712026,0.041653981459384634,0.08489470621712097
1.013,-0.0022,-0.48199999999977794,0.0071301906582192254,0.9814771280712026,0.04086515012961698,0.08489470621712097
1.0139999999999998,-0.0048,0.518,0.007122421425956724,0.9814771280712026,0.040773763183141284,0.08489470621712097
1.0150000000000001,-0.0041,1.517999999999556,0.0069639658472926205,0.9914148635718244,0.03890990186494587,0.08723689004196346
1.016,-0.002,-0.482,0.00695505358802073,0.9808749101081268,0.038805069864364695,0.08475277195331837
1.017,-0.0027,-1.481999999999556,0.006931400027776037,0.949382824180063,0.038526840745835865,0.07733053232270583
1.0179999999999998,-0.0049,0.518,0.006935057366899441,0.949382824180063,0.03856986083371858,0.07733053232270583
1.0190000000000001,-0.0114,-0.4820000000004441,0.006936112219087834,0.949382824180063,0.03858226871614806,0.07733053232270583
1.02,0.0023,-2.482,0.006886572164080508,0.9383708778604539,0.03799954519825184,0.07473517218777284
1.021,0.0005,-0.482,0.006811939471431772,0.9385807507254534,0.0371216651635222,0.07478463625628669
1.0219999999999998,-0.0122,-0.482,0.006766437644037262,0.9280774465787393,0.036586442000646945,0.07230915589375383
1.0230000000000001,-0.017,-0.48199999999977794,0.006740129038707699,0.9280774465787393,0.036276982452281094,0.07230915589375383
1.024,-0.0155,0.518,0.0066580680780700995,0.928289646642614,0.03531172612267843,0.07235916845015634
1.025,-0.0032,-2.482,0.006730030211298722,0.9504195667845312,0.03615819323750296,0.077574877904107
1.0259999999999998,0.0015,-0.482,0.006730410828496169,0.9504195667845312,0.036162670313522265,0.077574877904107
1.0270000000000001,0.0058,-0.482,0.006786819554282415,0.9400485488221619,0.03682618776672944,0.0751305755258547
1.028,0.0123,-1.482,0.006786515913683052,0.9402580472181077,0.036822616141340435,0.07517995133730429
1.029,0.0087,-0.482,0.006816757430769322,0.9710321476198093,0.03717833724864288,0.08243297192538836
1.0299999999999998,0.0119,1.518,0.006785928185742488,0.9710321476198093,0.036815702889164185,0.08243297192538836
1.0310000000000001,0.0011,-0.482,0.006785964107225283,0.9708292900893455,0.03681612542185655,0.08238516127208911
1.032,-0.0004,0.518,0.006739718240841345,0.9708292900893455,0.036272150370891786,0.08238516127208911
1.033,-0.004,-0.482,0.006738988239626485,0.9806740886063368,0.036263563604568484,0.0847054411632059
1.0339999999999998,0.0047,-0.482,0.006732349411654361,1.010217750990646,0.0361854732352693,0.09166846489822146
1.0350000000000001,-0.0008,-1.482,0.006799849361276743,1.0104127006487775,0.036979453138924145,0.09171441177776012
1.036,-0.0,-1.482,0.007008881261871533,1.010217750990646,0.03943822724503115,0.09166846489822146
1.037,-0.0025,-0.482,0.007136007664320817,1.0004668038632545,0.040933573676152045,0.0893703044533956
1.0379999999999998,-0.0065,-0.482,0.0074827096667938325,1.0004668038632545,0.045011716312708755,0.0893703044533956
1.0390000000000001,-0.0057,0.518,0.007434977743578784,1.0004668038632545,0.044450261259667084,0.0893703044533956
1.04,-0.0035,0.518,0.007389901748788681,1.0006636532062672,0.043920047026903795,0.08941669906181583
1.041,-0.002,1.518,0.007411319755227035,1.001253969028529,0.04417198005475844,0.08955582815922072
1.0419999999999998,0.0005,-0.482,0.007431557565998514,0.9914148635718244,0.044410030825705916,0.08723689004196346
1.0430000000000001,0.0064,-0.482,0.007415433563543943,0.9914148635718245,0.044220369440963705,0.08723689004196347
1.044,0.0162,-1.482,0.007431841342034572,0.9914148635718245,0.044413368790712254,0.08723689004196347
1.045,0.0126,0.518,0.0074029751058771786,0.9914148635718245,0.044073824664659665,0.08723689004196347
1.0459999999999998,0.0039,-0.482,0.007369293746910529,0.991216177478648,0.04367764181864407,0.08719006253748521
1.0470000000000002,0.0007,1.518,0.007184205275827746,0.9914148635718245,0.04150050646876521,0.08723689004196347
1.048,0.0098,0.518,0.007230860684391089,1.0208406287367415,0.04204929883088303,0.09417212706840371
1.049,-0.004,0.518,0.007252753273089616,1.0206476708756402,0.042306814215158924,0.09412664962727847
1.0499999999999998,0.0015,-0.482,0.007194519579785948,1.020454676528121,0.04162183026395046,0.09408116358682014
1.0510000000000002,-0.0064,0.518,0.007189487946921698,1.0109973240714467,0.041562644806788875,0.09185219925702179
1.052,-0.0049,-0.482,0.007201651312719467,1.0115816096227281,0.04170571851363249,0.0919899071047719
1.053,-0.0086,-0.482,0.007193768114582424,1.011581609622728,0.04161299102372536,0.09198990710477184
1.0539999999999998,-0.0049,-0.482,0.007174177770377862,1.0216120957304007,0.04138255619094222,0.09435395093701394
1.0550000000000002,0.0027,1.518,0.0071221433123216365,0.9912161774786522,0.040770491823111724,0.08719006253748621
1.056,-0.002,-1.482,0.007077703852801031,0.9914148635718297,0.04024776494722463,0.08723689004196471
1.057,-0.0027,-0.482,0.007121694412150814,0.9914148635718298,0.04076521155673561,0.08723689004196473
1.0579999999999998,-0.0005,0.518,0.007231362958963663,0.9912161774786545,0.042055206922947855,0.08719006253748675
1.0590000000000002,0.0046,0.518,0.007504892816228886,0.9912161774786545,0.045272649468210906,0.08719006253748675
1.06,-0.0048,0.518,0.007688712770386664,0.9912161774786556,0.04743486366701433,0.08719006253748701
1.061,0.014,-0.482,0.007657922746421645,1.0008604638329381,0.047072690652100416,0.08946308454534144
1.0619999999999998,0.006,0.518,0.007646149611768197,1.0104127006487849,0.046934207106999214,0.09171441177776185
1.0630000000000002,0.0039,-0.482,0.007636700625730372,1.0104127006487849,0.04682306176443348,0.09171441177776185
1.064,-0.0027,-1.482,0.007633517496439395,1.0402478499279117,0.046785619652225864,0.09874613485481087
1.065,-0.0008,-0.482,0.007625831124949647,1.0494416357511884,0.046695207370008956,0.10091298025364417
1.0659999999999998,0.001,0.518,0.007645156630333979,1.0494416357511946,0.04692252699008235,0.10091298025364565
1.0670000000000002,0.0024,0.518,0.007713142656038042,1.0494416357511946,0.04772222444823406,0.10091298025364565
1.068,-0.0019,0.518,0.007738430987189286,1.0400584926165994,0.048019682844031124,0.09870150601239062
1.069,-0.0008,-0.482,0.007723204255328623,1.0400584926165994,0.0478405757607912,0.09870150601239062
1.0699999999999998,0.0003,0.518,0.007638378337160037,1.0400584926165972,0.04684279613707729,0.0987015060123901
1.0710000000000002,-0.0084,-0.482,0.0077016743315215744,1.0113868852774286,0.0475873262854116,0.09194401332828377
1.072,0.0039,-0.482,0.00775410672689599,1.0216120957304158,0.04820407146019566,0.0943539509370175
1.073,0.00870000000000031,0.518,0.007657400953877652,1.0317359723176303,0.047066552976500274,0.09674000558556309
1.0739999999999998,0.0101,2.518,0.007488577283327881,1.0317359723176314,0.04508073517326273,0.09674000558556335
1.0750000000000002,0.001100000000001932,-0.482,0.007333586199739542,1.0315450525102872,0.04325762558128128,0.09669500848490842
1.076,0.0098,-0.482,0.007344158711035967,1.0026300209976364,0.04338198658521515,0.08988014416300091
1.077,-0.0003000000000014655,0.518,0.0073686593446984925,1.0028264457130567,0.04367017955222745,0.08992643869269813
