time_sec,bts_raw,diy_raw,bts_rms,diy_rms,bts_norm_rms,diy_norm_rms
0.0,0.0041,0.667,0.004761595801667789,0.6378768684979709,0.00699790512516102,0.003894805600487556
0.0010000000000000009,0.0077,0.667,0.004815000435258308,0.6411383552724196,0.007309901173224251,0.004202028088250215
0.0020000000000000018,-0.0089,0.667,0.004795705049311519,0.682991678051774,0.00719717529615126,0.008144488332498876
0.0030000000000000027,-0.0067,-0.333,0.004718897966450689,0.6860387186774691,0.006748459431914,0.008431510622049073
0.0040000000000000036,-0.0002,0.667,0.004603656564799624,0.6869521076789653,0.006075205830661268,0.008517549186894131
0.0050000000000000044,0.0056,-0.333,0.004657645339155282,0.6899816588005934,0.006390614496656369,0.008802924016460335
0.006000000000000005,0.0002,-0.333,0.004632102030777311,0.6929979658829195,0.006241387533889562,0.009087051296370892
0.007000000000000006,0.0017,-0.333,0.00463979562445251,0.7061039859122142,0.006286334398247273,0.010321599941366628
0.008000000000000007,-0.0059,0.667,0.004642096634619207,0.718971137893844,0.0062997771658555544,0.011533647916905247
0.009000000000000008,0.0006,0.667,0.004647283876404627,0.7218663230550477,0.006330081632501813,0.011806365867113363
0.010000000000000009,0.0043,0.667,0.004622495266074268,0.7227344346860495,0.006185263703043642,0.011888139436462617
0.01100000000000001,0.001,-1.333,0.0046267682328510785,0.7256146045371531,0.006210226869312925,0.012159442988501282
0.01200000000000001,-0.0037,0.667,0.004600324912385657,0.726478237139667,0.0060557419318046975,0.012240794646504587
0.013000000000000012,-0.003,-0.333,0.004602448360513539,0.7636686917270564,0.006068147361439253,0.01574402638390548
0.014000000000000012,-0.0008,-0.333,0.004633053308649043,0.7644893363834862,0.006246945009273926,0.015821328703477234
0.015000000000000013,0.0043,-2.333,0.004625003909743533,0.7653091010591813,0.006199919489595997,0.015898548131444888
0.016000000000000014,0.0022,-0.333,0.004582109731494621,0.7661279885789066,0.0059493267376413035,0.015975684933893012
0.017000000000000015,0.0036,-1.333,0.004576331403597525,0.7669460017523465,0.005915569077545165,0.01605273937548562
0.018000000000000016,-0.0014,-0.333,0.004558383613205779,0.7677631433742176,0.005810716009614258,0.01612971171947683
0.019000000000000017,0.0081,-0.333,0.0045540917631311075,0.7685794162243799,0.005785642524934175,0.0162066022277213
0.020000000000000018,0.0045,0.667,0.00455082890566436,0.7693948230679472,0.005766580534118466,0.016283411160684637
0.02100000000000002,0.0056,0.667,0.004570626610417178,0.7721009551868222,0.005882241015771848,0.016538320868824036
0.02200000000000002,0.0009,-1.333,0.004586852024545482,0.7894484104447517,0.005977031762302102,0.01817240027164282
0.02300000000000002,0.0034,0.667,0.004571931148485364,0.7920860331999237,0.0058898622780941936,0.0184208565986688
0.02400000000000002,0.0042,-0.333,0.0046087079859236145,0.7928772658554032,0.006104716817289738,0.0184953883940205
0.025000000000000022,0.0078,-0.333,0.0046108709493103105,0.7936677097062024,0.006117353099637988,0.018569845886284977
0.026000000000000023,-0.003,0.6669999999999966,0.004615933306420072,0.7962913566446231,0.006146927975560565,0.018816985732365992
0.027000000000000024,-0.0016,-0.333,0.004627248012862666,0.8077230855127189,0.006213029799648573,0.01989382106090361
0.028000000000000025,-0.0005000000000006772,-0.333,0.004585171536351987,0.8189952631568996,0.005967214155852306,0.02095562713213418
0.029000000000000026,-0.006599999999999644,0.667,0.004620631222116502,0.8197605234416869,0.006174373742582563,0.021027712406347213
0.030000000000000027,-0.0034000000000002774,-0.333,0.0046209278832801,0.8308694085093279,0.0061761068714223915,0.022074136795827374
0.031000000000000028,-0.005900000000000277,-1.333,0.004611092005531803,0.8333759447172002,0.006118644535658958,0.022310245154592647
0.03200000000000003,-0.008399999999998789,-0.333,0.004584474272640725,0.8358749646148829,0.005963140660581471,0.022545645498984423
0.03300000000000003,0.0024999999999988343,-0.333,0.004620681224492804,0.8383665354166859,0.0061746658622499236,0.022780344160393567
0.03400000000000003,-0.00799999999999899,-1.333,0.004650728455021163,0.8408507233410832,0.00635020525929874,0.023014347376406088
0.03500000000000003,0.0011000000000001221,0.667,0.004651540120463065,0.8415961107699892,0.006354947102715635,0.023084560685884922
0.03600000000000003,0.002199999999999878,-0.3329999999999931,0.0046575186721407496,0.8423408386057992,0.00638987449330278,0.023154711863628802
0.03700000000000003,0.0011000000000005662,0.667,0.004657790181566888,0.8430849085964415,0.006391460682782451,0.023224801074287423
0.038000000000000034,0.006200000000000078,0.667,0.004619674440800802,0.843828322482138,0.006168784115441815,0.02329482848178461
0.039000000000000035,0.006899999999999311,-0.333,0.004573998262500209,0.8462964782271428,0.005901938597322835,0.023527321513522947
0.040000000000000036,0.0007000000000008437,2.667,0.004607529002911807,0.8570614839455319,0.006097829062132798,0.02454135347694913
0.041000000000000036,0.008299999999999723,-0.333,0.00460672214265155,0.857792784991146,0.006093115291143006,0.024610239890439173
0.041999999999999926,0.0058,1.667,0.004722827178509118,0.8602208746708673,0.006771414343347936,0.024838958816347102
0.04299999999999993,-0.008,1.6669999999999932,0.004791754930535695,0.8626421300030259,0.007174098245255505,0.02506703396676071
0.04399999999999993,-0.0023,0.667,0.004795493466355558,0.8650566083747371,0.00719593920404353,0.025294470747377923
0.04499999999999993,-0.0077,0.667,0.004789133518435723,0.8674643663744631,0.007158783652484261,0.025521274488665917
0.04599999999999993,-0.0092,1.667,0.00481923344061947,0.8681869047903211,0.007334630880279993,0.025589335488134943
0.04699999999999993,0.0013,0.667,0.004893992231847425,0.8689088423818389,0.007771380387821727,0.025657339891713416
0.04799999999999993,-0.0077,-0.333,0.004956409204145297,0.8793970858335839,0.008136027561292185,0.026645301661403616
0.04899999999999993,-0.0088,0.667,0.004985567319882041,0.8801098279717985,0.008306372646862611,0.026712439880252466
0.04999999999999993,-0.0077,0.667,0.004988656524415395,0.8808219933746534,0.00832442013715073,0.026779523772322074
0.050999999999999934,0.0031,-2.3329999999999793,0.004973320564159244,0.8808219933746534,0.0082348256830466,0.026779523772322074
0.051999999999999935,0.0046,0.6669999999999932,0.004937351412405449,0.879164357498529,0.008024689737064506,0.026623379334865735
0.052999999999999936,0.001,-0.333,0.004866717812748364,0.8775035902941392,0.007612040075942161,0.026466939935471417
0.05399999999999994,0.0071,0.667,0.004825216197757877,0.8775035902941392,0.007369582839655229,0.026466939935471417
0.05499999999999994,-0.0052,0.667,0.00490324480680385,0.8758396739486102,0.007825435001190068,0.026310203896218652
0.05599999999999994,0.0027,-1.333,0.004936487647641484,0.8775035902941392,0.008019643523380509,0.026466939935471417
0.05699999999999994,-0.0016,-1.333,0.004990338974534682,0.8791643574985287,0.008334249205397989,0.026623379334865714
0.05799999999999994,-0.0028,0.667,0.00500250419367485,0.8808219933746531,0.008405319823064946,0.026779523772322043
0.05899999999999994,0.0034,-0.3329999999999931,0.004996868437185464,0.8791643574985287,0.00837239508162739,0.026623379334865714
0.05999999999999994,0.0023,0.667,0.004997462063083782,0.877503590294139,0.008375863112804674,0.026466939935471407
0.06099999999999994,-0.0024,-0.333,0.004983167531364652,0.8758396739486102,0.008292352804701468,0.026310203896218652
0.061999999999999944,-0.005,-2.333,0.004991679245007536,0.8808219933746532,0.00834207922056245,0.026779523772322053
0.06299999999999994,-0.0057,-0.333,0.004995619652679051,0.8888265021808838,0.00836509953806331,0.02753352502354097
0.06399999999999995,-0.0007,-0.333,0.004987069951788846,0.8888265021808838,0.008315151196308556,0.02753352502354097
0.06499999999999995,0.0001,-0.333,0.005077745328179864,0.9032427049317905,0.008844887235835769,0.028891489037965984
0.06599999999999995,-0.0014,-0.333,0.00509349779752709,0.8744138800148288,0.008936914984237812,0.026175898289706644
0.06699999999999995,-0.0028,-0.333,0.005135052399415906,0.8841279415593033,0.00917968177611508,0.02709093439451424
0.06799999999999995,-0.0014,-0.333,0.005154883014540416,0.8744138800148288,0.009295534523967437,0.026175898289706644
0.06899999999999995,-0.001,-0.333,0.005204676626421557,0.8841279415593033,0.00958643456542879,0.02709093439451424
0.06999999999999995,0.0055,0.667,0.00517052219194817,0.893736426766412,0.009386900407751825,0.02799602551801193
0.07099999999999995,0.0047,1.6669999999999863,0.005156295699463708,0.8921027878067064,0.009303787592729321,0.02784214151969598
0.07199999999999995,0.0008,0.6669999999999862,0.00512921096820405,0.9000069727391583,0.009145555459153406,0.0285866925562687
0.07299999999999995,0.0058,-0.333,0.005198598264204831,0.8904661517967994,0.009550924070125028,0.027687975208041827
0.07399999999999995,-0.0051,-0.333,0.005192988732029159,0.8904661517967994,0.009518152534162199,0.027687975208041827
0.07499999999999996,0.0025,0.667,0.005187776750386781,0.8921027878067063,0.009487703534409328,0.02784214151969597
0.07599999999999996,0.0036,-1.333,0.005145869860582523,0.8921027878067063,0.009242878635772236,0.02784214151969597
0.07699999999999996,0.0025,-1.333,0.005160657221787148,0.8904661517967994,0.00932926811074741,0.027687975208041827
0.07799999999999996,0.0057,-0.333,0.005158449776488736,0.8921027878067063,0.009316371959924602,0.02784214151969597
0.07899999999999996,-0.0008,-1.333,0.005158266031883666,0.9016262903752312,0.009315298502683523,0.02873922752790487
0.07999999999999996,-0.0001,0.667,0.005116286670967152,0.9016262903752311,0.00907005021942412,0.02873922752790486
0.08099999999999996,0.0006,0.667,0.005141562286389912,0.9032427049317903,0.009217713288975958,0.028891489037965963
0.08199999999999996,-0.0063,0.667,0.005165262553822991,0.9032427049317903,0.00935617299331283,0.028891489037965963
0.08299999999999996,0.0056,0.667,0.005130610792484206,0.9048562319668212,0.009153733394550176,0.029043478551968607
0.08399999999999996,0.0009,-0.333,0.005134517646584112,0.9064668868998417,0.009176557688203727,0.029195197522386137
0.08499999999999996,0.0024,-0.333,0.005093906077024989,0.934532975936471,0.00893930020030027,0.03183894078792767
0.08599999999999997,0.0013,-0.333,0.0051292629908799275,0.934532975936471,0.009145859381644623,0.03183894078792767
0.08699999999999997,0.0049,-0.33299999999998614,0.005148956813386883,0.9360925700107727,0.00926091297119906,0.031985849975222434
0.08799999999999997,-0.0027,0.667,0.00522099368151044,0.9436283519458178,0.009681760689053114,0.03269569853001623
0.08899999999999997,0.0063,-1.333,0.005212076502612235,0.9436283519458178,0.009629665498260406,0.03269569853001623
0.08999999999999997,0.0052,-0.333,0.005190287735763837,0.9436283519458178,0.009502373001489524,0.03269569853001623
0.09099999999999997,0.0106,0.667,0.0051898911359850135,0.9080746850136211,0.009500056019697185,0.029346647388810605
0.09199999999999997,0.0081,0.667,0.005123000108467134,0.9221900382220474,0.009109270898007442,0.03067627225876715
0.09299999999999997,0.0019,0.667,0.005093128934643963,0.9451729382037315,0.00893476004459914,0.03284119402502723
0.09399999999999997,-0.0003,0.667,0.0050730632819987465,0.9329707747812784,0.008817534180358244,0.031691786021259924
0.09499999999999997,-0.0054,-0.333,0.0052626986383399275,0.9451729382037314,0.009925405871889038,0.032841194025027214
0.09599999999999997,-0.0119,-0.333,0.005216635074554891,0.9451729382037314,0.00965629720295153,0.032841194025027214
0.09699999999999998,-0.0097,-1.333,0.00531694823838474,0.9451729382037314,0.010242338311736302,0.032841194025027214
0.09799999999999998,-0.006,-0.333,0.005522524777797945,0.9436283519458166,0.011443340239082568,0.03269569853001611
0.09899999999999998,-0.0053,-0.333,0.0055389041141384095,0.9451729382037314,0.011539030216984235,0.032841194025027214
0.09999999999999998,-0.0013,0.667,0.005600731682405511,0.9436283519458166,0.011900234023916066,0.03269569853001611
0.10099999999999998,-0.0049,-0.333,0.005555777848679314,0.9436283519458166,0.01163760852637207,0.03269569853001611
0.10199999999999998,0.0031,-0.333,0.005550243940208156,0.9144776102395139,0.01160527879284027,0.029949784164427173
0.10299999999999998,0.0021,-0.333,0.005532835943949539,0.9144776102395139,0.011503579264686365,0.029949784164427173
0.10399999999999998,0.0087,-0.33299999999998614,0.00554573892401489,0.9144776102395139,0.011578959967033191,0.029949784164427173
0.10499999999999998,0.008,0.667,0.005501484068138897,0.9128810892513196,0.011320417978958044,0.02979939657015546
0.10599999999999998,0.0073,0.667,0.005488257177283854,0.9112817712409148,0.01124314495230311,0.02964874550459557
0.10699999999999998,-0.0039,0.667,0.005527517651450703,0.9314059534270127,0.011472509184610473,0.03154438443952488
0.10799999999999998,-0.0054,-0.333,0.00556235444034201,0.9360925700107721,0.011676029735741642,0.03198584997522237
0.10899999999999999,-0.001,-0.333,0.005565859947751549,0.9482545629450295,0.01169650931559643,0.03313147403682724
0.10999999999999999,-0.0021,-0.333,0.0055590276343735244,0.9482545629450295,0.011656594150380284,0.03313147403682724
0.11099999999999999,-0.0031,1.667,0.005561186864106343,0.9482545629450295,0.011669208620290618,0.03313147403682724
0.11199999999999999,-0.0042,-1.333,0.005561186864106343,0.9482545629450295,0.011669208620290618,0.03313147403682724
0.11299999999999999,0.0006,-0.333,0.005539672111592496,0.9208360145520802,0.011543516946964164,0.030548727200594362
0.11399999999999999,-0.0096,1.667,0.005583198339360434,0.9208360145520802,0.011797802205333717,0.030548727200594362
0.11499999999999999,-0.0059,0.667,0.005638191351580128,0.9208360145520802,0.012119077745115406,0.030548727200594362
0.11599999999999999,-0.0069,-1.333,0.005647170823493336,0.9224187672705144,0.012171536858908729,0.03069781786423891
0.11699999999999999,-0.0058,-0.333,0.005650939494804515,0.9224187672705144,0.012193553872723533,0.03069781786423891
0.118,0.0073,-1.333,0.005704985339668376,0.9224187672705144,0.012509295951230305,0.03069781786423891
0.119,0.0055,-1.3329999999999862,0.005745065782148024,0.9224187672705144,0.01274345053328694,0.03069781786423891
0.12,-0.0024,-0.333,0.005839660792352787,0.9224187672705145,0.013296085527034492,0.03069781786423892
0.121,0.0019,-1.333,0.005829552970838189,0.9208360145520803,0.013237034464325904,0.030548727200594372
0.122,0.0085,-0.333,0.005811343016536294,0.9083069685846645,0.013130649804500957,0.029368527819883156
0.123,0.0024,0.667,0.005977387496650966,0.9066995823660483,0.01410070086777963,0.029217116752774917
0.124,0.0035,0.667,0.006155654368240316,0.9066995823660483,0.015142156556117998,0.029217116752774917
0.125,0.0042,-0.333,0.0061352939905848156,0.9066995823660482,0.015023208874268931,0.029217116752774906
0.126,0.0049,-0.333,0.006130778070475756,0.9066995823660482,0.014996826346524262,0.029217116752774906
0.127,-0.0005,0.667,0.006120796639905211,0.8988542516427006,0.014938513674333576,0.028478109610072303
0.128,0.0002,-1.333,0.006115909293643809,0.8893010638770517,0.014909961232034924,0.0275782273433651
0.129,-0.0005,0.667,0.006145263159988775,0.8909398401292605,0.01508144991530587,0.02773259525956647
0.13,0.0061,0.667,0.006162598537405279,0.8909398401292606,0.015182725195782548,0.02773259525956648
0.131,-0.0077,-1.333,0.0061730137645714675,0.8988542516427006,0.015243572157872901,0.028478109610072303
0.132,-0.0059,0.667,0.006190464574411756,0.9269232525652107,0.015345521807924228,0.031122127166722843
0.133,0.0032,0.667,0.0061584730964095715,0.9269232525652107,0.015158623892194401,0.031122127166722843
0.134,0.0047,2.667,0.006133242239248607,0.925348204531339,0.01501122230558626,0.030973762261765188
0.135,0.0061,0.667,0.0061325662184514235,0.925348204531339,0.015007272913877165,0.030973762261765188
0.136,0.005,0.667,0.006148294679980942,0.925348204531339,0.015099160405830585,0.030973762261765188
0.137,0.0087,-1.333,0.006146895049830085,0.9269232525652108,0.015090983604559637,0.031122127166722854
0.138,0.0054,0.667,0.006140821710416326,0.9284956287795684,0.015055502453051919,0.031270240394119096
0.139,0.005,-0.333,0.006135139244602863,0.9360925700107725,0.01502230483033909,0.03198584997522241
0.14,0.0003,0.667,0.006110350996425362,0.9407558393012837,0.014877489016619814,0.03242511626437676
0.14100000000000001,-0.0004,1.6670000000000278,0.0060894786909251,0.9407558393012838,0.014755550593074367,0.032425116264376774
0.14200000000000002,0.0018,2.6669999999999443,0.006016122142397864,0.9407558393012838,0.014326993149622134,0.032425116264376774
0.14300000000000002,-0.0066,0.6670000000000278,0.005961367869541445,0.9392039888452168,0.014007112352821552,0.03227893650320662
0.14400000000000002,-0.0142,1.6669999999999723,0.005960675791065898,0.9376495700132698,0.014003069150297667,0.03213251480856197
0.14500000000000002,-0.0033,0.667,0.005999104788693323,0.9360925700107725,0.014227575800464375,0.03198584997522241
0.14600000000000002,-0.0138,1.667,0.005976489440480078,0.9360925700107725,0.014095454319729061,0.03198584997522241
0.14700000000000002,-0.015,-0.333,0.005915427036315461,0.9360925700107725,0.01373872069000929,0.03198584997522241
0.14800000000000002,-0.0088,0.667,0.005835598414524872,0.9269232525652109,0.013272352645768658,0.031122127166722864
0.14900000000000002,-0.0121,-0.333,0.0058541730200794805,0.9284956287795685,0.013380867640400135,0.03127024039411911
0.15000000000000002,-0.003,0.667,0.005837400312544492,0.9284956287795685,0.013282879542469142,0.03127024039411911
0.15100000000000002,-0.0019,-0.333,0.005861049259108199,0.9360925700107725,0.013421039424349596,0.03198584997522241
0.15200000000000002,0.0014,0.667,0.005876872174215286,0.9376495700132698,0.013513478725030942,0.03213251480856197
0.15300000000000002,0.003899999999999711,-0.333,0.005882328560996607,0.9376495700132698,0.01354535556788187,0.03213251480856197
0.15400000000000003,0.001300000000000244,-0.333,0.0059384449590503055,0.9392039888452168,0.013873194057675484,0.03227893650320662
0.15500000000000003,0.0035000000000004,-0.333,0.005907996942433363,0.9392039888452167,0.013695313221928376,0.03227893650320661
0.15600000000000003,0.007099999999999922,-2.333,0.005867826624868565,0.9392039888452167,0.013460633579226236,0.03227893650320661
0.15700000000000003,0.006399999999999667,1.667,0.005822891565548812,0.9392039888452165,0.013198117763936779,0.03227893650320659
0.15800000000000003,0.0033999999999998446,1.667,0.005836980351984271,0.9376495700132694,0.013280426084289162,0.032132514808561934
0.15900000000000003,0.001999999999999467,-0.333,0.005813569956425111,0.9376495700132694,0.013143659844976334,0.032132514808561934
0.16000000000000003,-0.0027999999999999557,0.667,0.005818934553464991,0.9376495700132694,0.01317500044153819,0.032132514808561934
0.16100000000000003,-0.0023999999999998445,-0.333,0.005849066009436016,0.9392039888452166,0.013351031893367492,0.0322789365032066
0.16200000000000003,-0.0010000000000008882,0.667,0.005859122897938708,0.9253482045313388,0.013409785399527854,0.030973762261765167
0.16300000000000003,-0.008999999999999878,-0.333,0.005851775069419851,0.9160713488293742,0.013366858535216651,0.030099909664936985
0.16400000000000003,-0.007899999999999479,-0.333,0.005888392775917688,0.9176623195177873,0.013580783413047711,0.0302497744372491
0.16500000000000004,-0.0031999999999999225,0.667,0.005809978945427174,0.9034762308048688,0.013122680743265827,0.02891348649024638
0.16600000000000004,-0.002499999999998801,-0.333,0.005780534764270874,0.9314059534270127,0.012950664430418129,0.03154438443952488
0.16700000000000004,0.008299999999999844,-0.333,0.00576846628634657,0.9314059534270127,0.012880158986126683,0.03154438443952488
0.16800000000000004,0.0069000000000004,-0.333,0.005739530759104736,0.9600428204230732,0.012711114288295806,0.03424189331467438
0.16899999999999993,0.0105,-0.333,0.00583517943285154,0.9511044283161476,0.013269904906359136,0.033399922995738476
0.16999999999999993,0.0043,-0.333,0.005820927204378405,0.942081233269872,0.013186641738713293,0.03254996448865453
0.17099999999999993,0.001,0.667,0.005878033317551022,0.942081233269872,0.013520262258736319,0.03254996448865453
0.17199999999999993,0.014,-0.333,0.0058756262424211605,0.9467150044387027,0.013506199847342085,0.03298645214126862
0.17299999999999993,0.0158,-0.333,0.0058992305983955,0.9482545629450299,0.013644099225840563,0.033131474036827264
0.17399999999999993,0.0009,-0.33299999999997226,0.0059064296842553975,0.9482545629450296,0.013686157118329403,0.033131474036827244
0.17499999999999993,-0.0009,0.667,0.005918978620994771,0.9467150044387026,0.01375946945860497,0.032986452141268614
0.17599999999999993,0.0009,0.667,0.005916264965258783,0.9482545629450297,0.013743615967840026,0.03313147403682726
0.17699999999999994,-0.0006,-0.333,0.0059003586408758356,0.9497916259173724,0.013650689380519101,0.033276260860404305
0.17799999999999994,-0.0083,0.667,0.0059379139479252925,0.9497916259173724,0.013870091829248041,0.033276260860404305
0.17899999999999994,-0.0047,-1.333,0.005979164427905052,0.9407558393012837,0.014111081905747343,0.03242511626437676
0.17999999999999994,-0.0036,-1.333,0.006124791457943337,0.9407558393012837,0.01496185186349116,0.03242511626437676
0.18099999999999994,-0.0047,-2.333,0.006117069745304736,0.9676100969033823,0.01491674072489604,0.03495470856325419
0.18199999999999994,-0.0,0.667,0.0060707460271297075,0.958742257411276,0.014646112203913746,0.03411938409369372
0.18299999999999994,0.0007,-0.333,0.0060618684633966455,0.9706204884828911,0.014594248449499064,0.03523827862015033
0.18399999999999994,-0.0001,-0.333,0.006054029881146603,0.9706204884828911,0.014548454545112725,0.03523827862015033
0.18499999999999994,0.005,-0.333,0.006052288157299561,0.9436283519458175,0.014538279192890267,0.03269569853001619
0.18599999999999994,-0.0001,0.667,0.006050996566309323,0.9436283519458175,0.0145307335688952,0.03269569853001619
0.18699999999999994,-0.0041,0.667,0.006032265961547961,0.9436283519458173,0.014421307208849609,0.03269569853001617
0.18799999999999994,-0.0005,-1.333,0.005969183090509345,0.9345329759364707,0.014052769777894842,0.03183894078792764
0.18899999999999995,-0.0031,1.667,0.0059710304936706725,0.9420812332698715,0.014063562520897875,0.03254996448865447
0.18999999999999995,0.0013,-0.333,0.005967039398691716,0.9420812332698715,0.014040246082282699,0.03254996448865447
0.19099999999999995,-0.0049,0.667,0.005984010807168403,0.9405315696788628,0.01413939501410372,0.032403990723758436
0.19199999999999995,0.0005,-0.333,0.005983915417904115,0.9405315696788623,0.01413883773898573,0.032403990723758394
0.19299999999999995,-0.0017,-0.333,0.00599599402839084,0.9032427049317906,0.014209402378879117,0.028891489037965994
0.19399999999999995,-0.0068,-0.333,0.005961106581754809,0.9032427049317904,0.014005585879342438,0.028891489037965973
0.19499999999999995,-0.0014,-0.333,0.005790160799577101,0.888826502180884,0.013006900842357352,0.027533525023540995
0.19599999999999995,-0.0083,-0.333,0.005795964055919328,0.8871838222501628,0.013040804137314031,0.02737878939227379
0.19699999999999995,-0.0,-0.333,0.005674051052493894,0.8822374311444275,0.012328574266627177,0.026912853858560657
0.19799999999999995,-0.0076,0.667,0.00551449447071287,0.8822374311444275,0.011396426256028437,0.026912853858560657
0.19899999999999995,-0.0029,-0.333,0.005489976827661722,0.8951314436601002,0.011253191348764867,0.02812743201762047
0.19999999999999996,0.0054,-1.333,0.0053625423658234415,0.896759565293681,0.010508704479227271,0.028280796299998533
0.20099999999999996,0.0065,0.667,0.0054677779671633234,0.896759565293681,0.011123503037445064,0.028280796299998533
0.20199999999999996,0.004,-0.333,0.005515556275224765,0.9062341316839789,0.011402629440831974,0.02917327266375501
0.20299999999999996,0.0084,0.667,0.0055505931107044945,0.9046230623371917,0.011607318687277018,0.029021514656776184
0.20399999999999996,0.0063,-0.33299999999997226,0.005554343332150621,0.9062341316839788,0.011629227914845637,0.029173272663755
0.20499999999999996,0.0041,0.667,0.005584198490635856,0.9062341316839789,0.011803645204796829,0.02917327266375501
0.20599999999999996,-0.001,0.6669999999999723,0.005577525729095705,0.90784234200973,0.011764662159876826,0.029324761359338133
0.20699999999999996,0.0056,-0.333,0.005533697837343969,0.8871838222501627,0.01150861454561303,0.027378789392273777
0.20799999999999996,0.0013,-0.333,0.005511035392297651,0.8725023217327362,0.011376217919730055,0.025995835106397535
0.20899999999999996,-0.0027,-0.333,0.005502265643526672,0.8592688082971001,0.011324984032797471,0.024749276956480177
0.20999999999999996,-0.0063,0.667,0.005542770041904039,0.8592688082971002,0.011561615414257986,0.024749276956480187
0.21099999999999997,0.0046,-0.333,0.005548694242415708,0.8575695122820203,0.01159622527904513,0.024589208256129175
0.21199999999999997,-0.003,-0.333,0.00554505445704459,0.8575695122820203,0.01157496123180357,0.024589208256129175
0.21299999999999997,-0.0066,0.667,0.005557086601365626,0.8575695122820203,0.011645254410981114,0.024589208256129175
0.21399999999999997,-0.0004,-0.333,0.005503098766892047,0.8575695122820203,0.011329851235885861,0.024589208256129175
0.21499999999999997,0.0007,-2.333,0.005460152360934223,0.8885891262907896,0.01107895336361324,0.027511164910950313
0.21599999999999997,-0.0058,-1.333,0.005478677184926775,0.886946006725061,0.011187177528599723,0.027356387867354923
0.21699999999999997,0.0004,-2.333,0.005502487572314894,0.8885891262907895,0.011326280566454223,0.027511164910950302
0.21799999999999997,0.0128,-0.333,0.005460572102613334,0.8885891262907895,0.01108140554306445,0.027511164910950302
0.21899999999999997,0.0037,-0.333,0.005428663213031401,0.8902292131125137,0.010894990118440763,0.02766565627895594
0.21999999999999997,0.0085,-0.333,0.005530756623068113,0.8902292131125137,0.011491431631530888,0.02766565627895594
0.22099999999999997,0.0009,1.667,0.005613259201355679,0.8902292131125137,0.011973421238989174,0.02766565627895594
0.22199999999999998,0.01,0.667,0.005731262813960636,0.8885891262907895,0.012662811996207415,0.027511164910950302
0.22299999999999998,-0.0038,0.667,0.005654018257211941,0.8902292131125137,0.012211540358903886,0.02766565627895594
0.22399999999999998,0.0052,-0.333,0.00547476780885403,0.8902292131125137,0.011164338501289069,0.02766565627895594
0.22499999999999998,0.0038,0.667,0.00549341994979699,0.8918662839213186,0.011273306466629718,0.02781986354739096
0.22599999999999998,0.0023,0.667,0.005521031662583785,0.8997725464595088,0.011434617287256085,0.02856461028833032
0.22699999999999998,-0.0067,0.667,0.005538466767486252,0.8997725464595088,0.011536475187243687,0.02856461028833032
0.22799999999999998,0.007,-0.333,0.005538865096034214,0.8997725464595088,0.01153880226870534,0.02856461028833032
0.22899999999999998,-0.0133,0.667,0.005480514263283923,0.8981498866255745,0.011197909952902218,0.028411760491458736
0.22999999999999998,-0.0053,-2.333,0.0054796684009362955,0.8981498866255745,0.011192968327205677,0.028411760491458736
0.23099999999999998,0.0016,-0.333,0.005541262428320518,0.8885891262907897,0.011552807761280313,0.027511164910950323
0.23199999999999998,-0.0049,1.667,0.005543879662928582,0.8592688082971002,0.011568097948660518,0.024749276956480187
0.23299999999999998,0.0009,0.667,0.005590250418132348,0.8592688082970998,0.01183900126540663,0.024749276956480156
0.23399999999999999,-0.0045,-1.333,0.005594178907565115,0.8592688082971002,0.011861951955177847,0.024749276956480187
0.235,-0.006,0.667,0.005625352371142326,0.8902292131125108,0.012044070935997136,0.027665656278955668
0.236,-0.0016,0.6669999999999723,0.005763642147393913,0.8902292131125105,0.012851975808238466,0.027665656278955637
0.237,-0.0005,-0.3330000000000278,0.00576956315898934,0.9030091186669237,0.012886567043007982,0.028869485896956253
0.238,0.0056,-1.3329999999999722,0.005769770616478853,0.9030091186669236,0.012887779033663426,0.028869485896956242
0.239,0.0045,-0.333,0.005774917236078748,0.8951314436600954,0.01291784618080208,0.028127432017620017
0.24,0.0045,-0.333,0.00576833298139933,0.8805824597365164,0.012879380203202248,0.026756960406194758
0.241,-0.0002,1.667,0.0058364165706106695,0.8805824597365165,0.013277132408278124,0.02675696040619477
0.242,0.0042,-0.333,0.005815945159108466,0.8885891262907849,0.013157536053850605,0.027511164910949876
0.243,-0.0013,0.667,0.005816552258970918,0.8885891262907849,0.013161082801485218,0.027511164910949876
0.244,-0.0006,-0.333,0.0058141212299229455,0.890229213112509,0.013146880448530044,0.0276656562789555
0.245,-0.0042,-0.333,0.005779315722413171,0.890229213112509,0.012943542646848874,0.0276656562789555
0.246,-0.0071,-1.333,0.005777666322292209,0.8918662839213137,0.012933906660515537,0.0278198635473905
0.247,-0.0068,-0.333,0.005743254718574076,0.8935003552950106,0.01273287009035767,0.027973788277836097
0.248,-0.0071,1.667,0.005743325446110456,0.8935003552950106,0.012733283288807998,0.027973788277836097
0.249,-0.0028,0.667,0.005696232142851168,0.9013922852337471,0.012458158762726622,0.028717184929946415
0.25,-0.0111,0.667,0.00572062574423417,0.9108186621727842,0.012600669004213933,0.029605121988740418
0.251,-0.0075,-1.333,0.005758243128297985,0.9013922852337473,0.012820434114042727,0.028717184929946425
0.252,-0.0064,-0.333,0.005721603050639048,0.9013922852337471,0.0126063785413003,0.028717184929946415
0.253,0.0044,0.667,0.005710076181923951,0.9030091186669233,0.012539037240670304,0.02886948589695622
0.254,0.0059,-0.333,0.005648281521006878,0.9013922852337471,0.01217802568228454,0.028717184929946415
0.255,0.0022,0.667,0.005638929099846641,0.9013922852337473,0.012123387755841864,0.028717184929946425
0.256,-0.0014,-1.333,0.005703814327079758,0.8997725464595042,0.012502454760207771,0.02856461028832989
0.257,0.004,-0.333,0.005749680077463201,0.8997725464595044,0.012770407780367228,0.02856461028832991
0.258,0.0014,0.667,0.0057328059730389425,0.8997725464595044,0.012671827310078045,0.02856461028832991
0.259,-0.007,-0.333,0.005732028222877684,0.8997725464595044,0.012667283603654485,0.02856461028832991
0.26,-0.0038,-0.333,0.005752912385669752,0.9140161204243689,0.012789291298870485,0.02990631317745377
0.261,-0.0013,-0.333,0.005718803661108941,0.9217324098469257,0.012590024183791177,0.030633165008117816
0.262,-0.0038,0.667,0.005706477384564646,0.9233136259575712,0.012518012650135845,0.030782110927815742
0.263,-0.0046,-0.333,0.0057222060316806204,0.9248921387900397,0.012609901226306813,0.030930802206638495
0.264,-0.0039,-2.333,0.005762785371530698,0.9248921387900397,0.012846970424521226,0.030930802206638495
0.265,0.0055,-0.333,0.005827741597132742,0.9387546545445232,0.013226452209572533,0.032236610530040746
0.266,-0.0057,0.667,0.005849451159006591,0.9187914442057588,0.013353281981718515,0.030356134670977617
0.267,0.0048,-0.333,0.005827431225371826,0.9110502461330534,0.01322463898183693,0.02962693651853009
0.268,0.0036,0.667,0.005828549411279614,0.882476515568084,0.013231171553278293,0.02693537491000152
0.269,0.0149,-0.333,0.005688226304717239,0.8824765155680842,0.01241138773011601,0.02693537491000153
0.27,0.0105,-0.333,0.005711101254737784,0.8824765155680842,0.012545025834644102,0.02693537491000153
0.271,0.0116,-0.333,0.005679211889676093,0.8824765155680843,0.012358724474526548,0.02693537491000154
0.272,0.0104,0.667,0.005759295753810521,0.877503590294135,0.012826583674070047,0.02646693993547103
0.273,0.0071,-0.333,0.005674148787658195,0.8758396739486062,0.012329145246764454,0.026310203896218277
0.274,0.0046,0.667,0.0056920164605435255,0.8758396739486062,0.01243353025895372,0.026310203896218277
0.275,-0.0056,-1.333,0.005691749748042072,0.877503590294135,0.012431972093663035,0.02646693993547103
0.276,-0.0045,0.667,0.005679642864543695,0.877503590294135,0.01236124227956454,0.02646693993547103
0.277,-0.0009,-0.333,0.0056827718393597515,0.8758396739486061,0.012379522112445415,0.026310203896218267
0.278,-0.0021000000000002774,-0.333,0.005655991726381332,0.8741725904795368,0.01222306959411118,0.026153169523217612
0.279,-0.004600000000000488,-1.333,0.005620800103065054,0.8741725904795369,0.012017476059216907,0.026153169523217622
0.28,-0.008999999999999555,-0.333,0.005468133902868503,0.8725023217327319,0.01112558245501456,0.02599583510639713
0.281,-0.005000000000000245,0.667,0.005442561647048151,0.8408894900415873,0.010976186377940298,0.02301799908588549
0.28200000000000003,-0.007199999999998956,0.6669999999999445,0.005442776302090776,0.8426224249206149,0.010977440417533743,0.02318123646855295
0.28300000000000003,0.002200000000000411,-0.33300000000011104,0.005488372590362077,0.8271503599380854,0.011243819208858757,0.02172381332889858
0.28400000000000003,0.005900000000000844,-2.332999999999889,0.00549157152969919,0.8271503599380853,0.011262507782566157,0.02172381332889857
0.28500000000000003,0.013499999999998789,-0.332999999999889,0.0054923973519440065,0.8185429438820526,0.011267332331663547,0.020913019983158393
0.28600000000000003,0.0026000000000001664,1.6669999999999445,0.005460294302929188,0.8324241511968485,0.011079782605169746,0.022220588996717146
0.28700000000000003,0.004099999999999267,0.667,0.0054758164253626155,0.8306699410590812,0.011170464640251487,0.022055347547079673
0.28800000000000003,-0.0024999999999998778,0.6669999999999445,0.005476030235120025,0.8324241511968486,0.011171713741590907,0.022220588996717156
0.28900000000000003,-0.0014000000000008437,-0.333,0.005457246161778101,0.8220993759956831,0.011061975011911643,0.021248025456756622
0.29000000000000004,-0.00899999999999899,-0.333,0.005469535189971539,0.8544077194051434,0.011133768936391836,0.02429137664110183
0.29100000000000004,9.999999999987788e-05,-1.333,0.005498409173268985,0.8544077194051434,0.011302454087379302,0.02429137664110183
0.29200000000000004,-0.000999999999999878,-0.333,0.005565453487620869,0.8408894900415878,0.011694134728487755,0.023017999085885532
0.29300000000000004,9.999999999972245e-05,0.667,0.005622212539793151,0.8426224249206153,0.01202572767799374,0.023181236468552992
0.29400000000000004,-0.0023999999999997222,-0.333,0.005625926948207785,0.8408894900415878,0.012047427681689005,0.023017999085885532
0.29500000000000004,9.999999999938938e-05,0.667,0.005634237677852592,0.8408894900415872,0.012095979925780464,0.02301799908588548
0.29600000000000004,-0.005399999999999434,0.667,0.005650460929484669,0.856113291273877,0.012190758038757575,0.024452036508459084
0.29700000000000004,-0.0002999999999997557,-0.333,0.0057346533467659885,0.8460776465623514,0.012682619881122601,0.02350670821256304
0.29799999999999993,0.0019,-1.333,0.0058985539168268965,0.8561132912738764,0.013640145973828384,0.02445203650845902
0.29899999999999993,0.006,-1.333,0.005995935710826642,0.8408894900415844,0.014209061680922046,0.02301799908588522
0.29999999999999993,0.0085,-0.333,0.0060266579856567805,0.8391529764862302,0.014388544764880835,0.022854424602404545
0.30099999999999993,0.0006,0.667,0.005925222991911366,0.8475511105014895,0.013795949795939679,0.02364550419375695
0.30199999999999994,0.0017,0.667,0.005878042352773214,0.8691521549162744,0.01352031504354969,0.02568025921878803
0.30299999999999994,-0.0008,-0.333,0.0058446702903769705,0.8708288493798882,0.013325351594063613,0.02583819891928441
0.30399999999999994,0.0054,-0.333,0.005833836242843487,0.8838893038322144,0.01326205783493227,0.027068455420579826
0.30499999999999994,0.0095,-0.333,0.00581764476564632,0.8983847363253619,0.013167465351880035,0.028433882644332158
0.30599999999999994,0.0073,0.667,0.005829417097500962,0.9062341316839687,0.013236240676570012,0.029173272663754045
0.30699999999999994,-0.0035,-0.333,0.005852870142041079,0.8983847363253619,0.013373256076163848,0.028433882644332158
0.30799999999999994,0.0009,-0.333,0.005839212648680006,0.9000069727391486,0.013293467419850307,0.028586692556267793
0.30899999999999994,-0.0056,1.667,0.005855709911672703,0.898384736325362,0.013389846338897792,0.028433882644332168
0.30999999999999994,0.0006,-1.333,0.00581409805474055,0.8983847363253619,0.013146745056433247,0.028433882644332158
0.31099999999999994,-0.0027,0.667,0.005801791721523609,0.9000069727391485,0.013074850034003648,0.028586692556267782
0.31199999999999994,-0.0052,0.667,0.00581336633386797,0.9094477084815762,0.013142470258439487,0.02947598217222483
0.31299999999999994,-0.0095,0.667,0.005801600732829108,0.90784234200972,0.013073734255954013,0.029324761359337193
0.31399999999999995,-0.0087,1.667,0.005842498684569816,0.9172024320884659,0.013312664821695167,0.030206454390320263
0.31499999999999995,-0.0051,-1.333,0.005832298342556266,0.8967595652936708,0.013253073243527575,0.02828079629999758
0.31599999999999995,-0.0028,0.667,0.005832023027977179,0.8967595652936708,0.01325146482390414,0.02828079629999758
0.31699999999999995,0.0012,0.667,0.005808357288812128,0.9094477084815763,0.01311320683770382,0.02947598217222484
0.31799999999999995,0.0016,-0.333,0.0058044266231636645,0.9094477084815762,0.013090243434228729,0.02947598217222483
0.31899999999999995,0.0063,-0.333,0.005928911864600134,0.9371994904567011,0.013817500616970088,0.0320901186344786
0.31999999999999995,0.006,-0.333,0.005852640711398277,0.9387546545445177,0.013371915715804714,0.03223661053004022
0.32099999999999995,0.0096,-1.333,0.005759331558208504,0.9387546545445177,0.012826792847505437,0.03223661053004022
0.32199999999999995,0.0017,-0.333,0.0056908350034743154,0.9387546545445177,0.012426628050067197,0.03223661053004022
0.32299999999999995,-0.0059,0.667,0.005594937074999255,0.9387546545445177,0.01186638125704397,0.03223661053004022
0.32399999999999995,-0.0052,0.667,0.005563307169305309,0.9387546545445177,0.01168159568857083,0.03223661053004022
0.32499999999999996,-0.0009,0.667,0.0055667677728362735,0.9387546545445177,0.011701812934771844,0.03223661053004022
0.32599999999999996,-0.003,-0.333,0.005571237740339572,0.9296115952082856,0.011727927002077192,0.03137536115842086
0.32699999999999996,-0.0038,-0.333,0.005560280670357319,0.9280411097731592,0.011663914531567102,0.031227426036882274
0.32799999999999996,-0.0031,-0.333,0.005559617097329823,0.9280411097731592,0.01166003786116866,0.031227426036882274
0.32899999999999996,-0.0027,-0.333,0.005570705375955429,0.9280411097731592,0.011724816867753344,0.031227426036882274
0.32999999999999996,-0.0002,-0.333,0.005562113691361647,0.9187914442057532,0.01167462325234501,0.030356134670977093
0.33099999999999996,-0.0017,0.667,0.0055002961725509605,0.9203777129322451,0.011313478155500219,0.03050555653226774
0.33199999999999996,-0.0086,-0.333,0.005478219066498507,0.9554736874952566,0.011184501147739955,0.033811494394770936
0.33299999999999996,-0.0021,0.667,0.005432733643241526,0.955473687495257,0.010918770042655087,0.03381149439477096
0.33399999999999996,-0.0046,0.667,0.00543958402476729,0.9643715834568574,0.010958790764080708,0.03464965009559801
0.33499999999999996,0.0008,1.667,0.005415567937175147,0.9374245572467053,0.0108184860018359,0.032111319265945064
0.33599999999999997,0.0044,-0.333,0.005245209892083808,0.9389793485726291,0.009823234592907385,0.03225777604842975
0.33699999999999997,-0.0007,0.667,0.0052598612043853726,0.9251201997645969,0.009908829254450758,0.0309522848815075
0.33799999999999997,0.0033,-0.333,0.005289135782517887,0.9251201997645968,0.010079854726811346,0.03095228488150749
0.33899999999999997,0.0058,-2.333,0.005287810975100624,0.9235420767327235,0.01007211504860664,0.030803630320757468
0.33999999999999997,0.0072,-0.333,0.005287888268950781,0.9251201997645973,0.01007256660822174,0.03095228488150753
0.34099999999999997,0.0086,0.667,0.005260293512705207,0.9266956353243414,0.00991135484967097,0.031100686290265706
0.34199999999999997,0.009,0.667,0.005263310094488667,0.9174324046194802,0.009928978069452147,0.030228117128200668
0.34299999999999997,0.0024,-0.333,0.005279807737354436,0.9174324046194802,0.010025359207762069,0.030228117128200668
0.344,0.0031,-0.332999999999889,0.00530422959976725,0.9174324046194802,0.010168034553455193,0.030228117128200668
0.345,-0.006,1.666999999999889,0.0053473591919106205,0.9266956353243415,0.010420002620617425,0.031100686290265717
0.346,-0.0121,-0.33300000000005553,0.005486659297908537,0.9251201997645973,0.0112338099561265,0.03095228488150753
0.347,-0.0154,-1.3329999999999445,0.005581721975639225,0.9374245572467071,0.011789177117667114,0.03211131926594524
0.348,-0.0129,-0.333,0.005587179784272935,0.9374245572467073,0.011821062267144203,0.03211131926594525
0.349,-0.0067,-0.33300000000005553,0.005616960246333843,0.9374245572467073,0.011995043171942502,0.03211131926594525
0.35,-0.0013,-1.3330000000000555,0.005584677247020265,0.9298384986451025,0.011806442154984073,0.03139673479662994
0.351,-0.0006,-2.3329999999998337,0.005573041037000939,0.9298384986451025,0.01173846206980457,0.03139673479662994
0.352,-0.0013,0.667,0.005637374631761557,0.9420812332698677,0.012114306373445247,0.03254996448865412
0.353,0.0026,1.667,0.005650506401452701,0.9420812332698676,0.01219102369125568,0.032549964488654104
0.354,0.004,1.667,0.005772166062854118,0.9436283519458131,0.012901773508527923,0.032695698530015777
0.355,0.0043,-1.333,0.005747609634802405,0.9436283519458131,0.012758312014803834,0.032695698530015777
0.356,0.0054,0.667,0.005673885170039281,0.9451729382037278,0.012327605162135626,0.03284119402502688
0.357,-0.0004,0.667,0.005628316841408522,0.9451729382037278,0.012061389714265439,0.03284119402502688
0.358,0.0046,-0.333,0.00570962783965493,0.9467150044386979,0.012536417973263905,0.03298645214126818
0.359,-0.0005,-0.333,0.005714879383513046,0.9467150044386979,0.012567098100058256,0.03298645214126818
0.36,-0.0002,0.667,0.0056875311370830324,0.9329707747812738,0.012407326480369841,0.03169178602125948
0.361,-0.0039,-1.333,0.005687500338932299,0.9253482045313333,0.012407146554010075,0.030973762261764643
0.362,0.0008,-0.333,0.005699632042184201,0.9329707747812713,0.012478021367980175,0.03169178602125925
0.363,-0.0083,-1.333,0.0057152311855143,0.9329707747812702,0.012569153368051174,0.03169178602125915
0.364,-0.0018,-1.333,0.005642502032922774,0.9600428204230624,0.012144261244241672,0.034241893314673366
0.365,-0.0055,-0.333,0.005585523832379514,0.9464921468308521,0.011811388004598153,0.03296545960828119
0.366,-0.0022,1.667,0.00558038095895311,0.9374245572467003,0.011781342743038447,0.03211131926594459
0.367,0.0043,-0.333,0.005610217242663046,0.9358671828910743,0.011955649764368631,0.031964619169638345
0.368,0.0126,-2.333,0.005610154797330084,0.9343072125889744,0.01195528495150888,0.03181767454278852
0.369,0.0115,0.667,0.005699578224657314,0.9343072125889744,0.012477706959761702,0.03181767454278852
0.37,-0.0015,-0.333,0.0056784931927746024,0.9434047651878182,0.012354525764078693,0.032674637313223454
0.371,0.0075,-0.333,0.005646966347658648,0.952415421159478,0.012170342287425733,0.033523414676257426
0.372,-0.0005,0.667,0.005564514919749713,0.9716880764657396,0.011688651506397231,0.035338842276751915
0.373,0.0039,-0.333,0.005567423114632842,0.9716880764657396,0.011705641517366899,0.035338842276751915
0.374,0.005,0.667,0.005560732028180971,0.9789498888667877,0.011666551416192538,0.0360228837050336
0.375,0.006,-0.333,0.005543153166562321,0.9861582286220111,0.01156385367283712,0.03670188816692124
0.376,0.0028,-0.333,0.0055450079778734795,1.0118081845531854,0.011574689695108551,0.039118038780780455
0.377,0.0002,-0.333,0.005542101464214413,1.0132488434957672,0.011557709506044367,0.039253744627520334
0.378,-0.0041,-0.333,0.005631462886544398,1.013248843495767,0.01207976927392964,0.039253744627520314
0.379,-0.0034,-0.333,0.0056359283742474535,1.0216436767918708,0.012105857169723679,0.04004451330080975
0.38,0.0035,0.667,0.0056612565064947384,1.04781724040761,0.012253827048640302,0.04250998622274144
0.381,-0.0008,2.667,0.0056766766215702565,1.0600734891170576,0.012343913144935435,0.04366448890190402
0.382,0.0014,0.667,0.005686981901214961,1.0600734891170576,0.012404117780884946,0.04366448890190402
0.383,0.0035,-1.333,0.005626986271751068,1.0600734891170576,0.012053616372386876,0.04366448890190402
0.384,-0.003,0.667,0.005634093483028161,1.0586965503920922,0.012095137522933574,0.04353478531276342
0.385,0.001,0.667,0.005621030346915349,1.0586965503920922,0.012018821170428295,0.04353478531276342
0.386,0.0047,-0.333,0.005631418152055023,1.04781724040761,0.012079507929867173,0.04250998622274144
0.387,0.0069,0.667,0.005621138967924217,1.04781724040761,0.012019455746928965,0.04250998622274144
0.388,-0.0022,-0.333,0.005666834181043979,1.0478172404076103,0.01228641246866376,0.042509986222741464
0.389,0.0014,0.667,0.0056933834101037485,1.0492084567959392,0.012441516136433217,0.042641034725892556
0.39,-0.0072,0.667,0.0057287548464703296,1.0230704857660147,0.012648160159970763,0.04017891452114665
0.391,-0.0018,-0.333,0.005694001396820524,1.0230704857660147,0.012445126486330343,0.04017891452114665
0.392,-0.0043,-0.333,0.005698617331377638,1.0216436767918708,0.012472093310051675,0.04004451330080975
0.393,-0.0051,0.667,0.005658918948407244,1.0216436767918708,0.012240170763850325,0.04004451330080975
0.394,-0.0072,-1.333,0.005693497959389532,1.0216436767918706,0.012442185346613496,0.04004451330080973
0.395,-0.0123,-0.333,0.005691311426395944,1.0547549724362066,0.012429411367894909,0.04316350023051061
0.396,-0.0116,1.667,0.005729073146814514,1.0424361941363671,0.012650019707407117,0.042003107447341016
0.397,-0.0025,-0.333,0.005779484133554264,1.043834582375105,0.012944526524219395,0.04213483151776461
0.398,-0.0061,-1.333,0.005625073831182505,1.035619646336872,0.012042443673326294,0.04136100863850316
0.399,0.0001,0.667,0.005607288931341382,1.048018551797773,0.01193854223083768,0.042528949165220716
0.4,0.0077,-0.333,0.005656131695092065,1.0480185517977727,0.012223887307512905,0.042528949165220695
0.401,0.0085,1.667,0.005675735614210989,1.0723863813845669,0.01233841567107313,0.044824327238092654
0.402,0.0042,0.667,0.005678023091546022,1.0549549599370536,0.012351779378313157,0.04318233846649948
0.403,0.011799999999998801,0.667,0.0057762619380512924,1.0789706752019261,0.012925702085300434,0.04544454840304627
0.404,0.0010000000000001666,-0.333,0.005773857186665866,1.0682978523937057,0.012911653249490038,0.04443919979937279
0.405,0.0024999999999998778,0.667,0.005832664329681499,1.056137050006111,0.013255211382655917,0.04329368788377152
0.406,0.001400000000000977,0.667,0.005863751205647724,1.0494095013049023,0.013436824508634107,0.042659972528945614
0.40700000000000003,0.010199999999999158,0.6669999999999445,0.005839414736468252,1.0480185517977758,0.013294648040089703,0.04252894916522099
0.40800000000000003,0.0025999999999997223,-0.333,0.005934979007731286,1.0480185517977758,0.013852945569077941,0.04252894916522099
0.40900000000000003,9.99999999999223e-05,-0.3329999999999445,0.005939945369039857,1.0494095013049023,0.01388195962642377,0.042659972528945614
0.41000000000000003,-0.000600000000000444,0.666999999999889,0.005946274423659842,1.0494095013049023,0.01391893469575113,0.042659972528945614
0.41100000000000003,-0.004600000000000233,-1.332999999999889,0.005948174158698703,1.056137050006111,0.01393003316763723,0.04329368788377152
0.41200000000000003,-0.006699999999998957,0.6669999999998335,0.005989336351165294,1.0494095013049023,0.014170507458270212,0.042659972528945614
0.41300000000000003,0.0026999999999993227,-2.332999999999889,0.00599724788223259,1.0507986096040003,0.01421672753808673,0.04279082245627447
0.41400000000000003,-0.003400000000000122,-0.333,0.005942422046726334,1.0440366617025927,0.013896428664006387,0.04215386679768742
0.41500000000000004,-0.00449999999999879,-0.333,0.005942510477165457,1.035823328321867,0.013896945284862669,0.04138019488406233
0.41600000000000004,0.006399999999999156,-0.333,0.005932636943312413,1.035823328321867,0.013839262957778693,0.04138019488406233
0.41700000000000004,-0.001200000000000999,-0.333,0.00593786887528003,1.0232766656493233,0.013869828509639755,0.040198336061400296
0.41800000000000004,-0.010199999999999312,-0.333,0.005970553799677242,1.0247012008283651,0.014060777619437336,0.040332523096907935
0.41900000000000004,-0.003999999999999634,-1.333,0.005835771946412335,0.9993822094319988,0.013273366439131918,0.037947548371463025
0.42000000000000004,-0.0006999999999999223,-1.333,0.005722076174451548,0.9993822094319984,0.012609142585350794,0.03794754837146298
0.42100000000000004,-2.775557561562889e-16,-2.333,0.005724321041581954,0.9993822094319984,0.012622257358845616,0.03794754837146298
0.42200000000000004,-0.0024999999999991453,-0.333,0.005684285216075262,0.9993822094319984,0.01238836343430693,0.03794754837146298
0.42300000000000004,0.005199999999999722,-1.333,0.005689954774891207,0.9979215319916119,0.012421485652846991,0.037809956840946915
0.42400000000000004,0.002699999999999512,-1.333,0.005679603162102043,0.999382209431998,0.01236101033330705,0.03794754837146294
0.42499999999999993,-0.0017,-2.333,0.005661373106260155,0.9979215319916118,0.012254508237959828,0.0378099568409469
0.42599999999999993,-0.0024,0.667,0.005784650086396844,1.0064442197637122,0.012974706618398568,0.0386127690308604
0.42699999999999994,-0.0107,-0.333,0.005899367194090952,1.006444219763712,0.013644897233696777,0.03861276903086038
0.42799999999999994,0.0038,-1.333,0.0059023402319192024,1.0064442197637122,0.013662266064653823,0.0386127690308604
0.42899999999999994,-0.006,-2.333,0.005899706517274981,1.0148953399139677,0.013646879598995734,0.03940883976071381
0.42999999999999994,-0.0042,1.667,0.006077627042463318,1.0163316227963122,0.014686311891588975,0.039544133395414925
0.43099999999999994,0.0038,0.667,0.006111038986774284,1.0275443464943408,0.01488150833583498,0.04060033907930459
0.43199999999999994,0.0024,-0.333,0.006141760416458151,1.0020866818522716,0.015060986482351478,0.03820230174086221
0.43299999999999994,0.0035,-0.333,0.006145278036748629,1.0020866818522716,0.0150815368270581,0.03820230174086221
0.43399999999999994,0.0025,0.667,0.006162711547253526,1.0020866818522713,0.015183385412390633,0.03820230174086219
0.43499999999999994,0.0035,0.667,0.006163864344114376,1.0006299522945528,0.015190120185024083,0.03806508208931375
0.43599999999999994,0.0028,-0.333,0.006393582307160157,1.0006299522945528,0.01653215910226407,0.03806508208931375
0.43699999999999994,0.0072,0.667,0.00641686251780889,1.0006299522945528,0.016668164786268497,0.03806508208931375
0.43799999999999994,0.0064,0.667,0.006444281716685448,1.0006299522945528,0.016828350918358437,0.03806508208931375
0.43899999999999995,0.0086,-0.333,0.006455686923840344,1.0006299522945528,0.016894981458078155,0.03806508208931375
0.43999999999999995,0.0035,-0.333,0.006482762073110166,1.0006299522945528,0.017053157612560866,0.03806508208931375
0.44099999999999995,0.0089,-0.333,0.006447610117100018,0.999171098917649,0.016847795818658293,0.03792766238022752
0.44199999999999995,0.006,0.667,0.0064466264820272606,1.0006299522945528,0.016842049308761983,0.03806508208931375
0.44299999999999995,0.0067,-0.333,0.006437166961767902,1.0020866818522716,0.01678678569699145,0.03820230174086221
0.44399999999999995,-0.0027,2.667,0.006420868295444274,1.0134570215171397,0.016691567002661226,0.039273354386518786
0.44499999999999995,-0.0089,-0.333,0.006382334177984027,1.0049938064381734,0.01646644623026938,0.03847614434985691
0.44599999999999995,-0.0143,0.667,0.006273982835906542,1.0049938064381734,0.01583344515418815,0.03847614434985691
0.44699999999999995,-0.0078,-0.333,0.006166098956561314,0.9935266148736994,0.015203175049471674,0.03739596853933744
0.44799999999999995,-0.0121,1.667,0.006211344448459082,0.9935266148736994,0.015467504447797266,0.03739596853933744
0.44899999999999995,-0.01,-0.333,0.006203418315543086,0.9935266148736994,0.015421199062291285,0.03739596853933744
0.44999999999999996,-0.0049,2.667,0.006214946518300047,0.9920573158571513,0.01548854815654819,0.03725756488163521
0.45099999999999996,0.0017,-1.333,0.006167558270691122,1.0049938064381736,0.015211700531452772,0.03847614434985693
0.45199999999999996,-0.0107,-2.333,0.006131577350830135,0.9920573158571514,0.01500149583482696,0.03725756488163522
0.45299999999999996,0.002,0.667,0.0061281673011171,1.0175585822917548,0.014981573929879092,0.039659709381044246
0.45399999999999996,-0.0092,-0.333,0.006034074019062222,1.0175585822917548,0.0144318700900304,0.039659709381044246
0.45499999999999996,0.0074,0.667,0.006065143639181386,1.0438345823751063,0.014613382405353651,0.04213483151776473
0.45599999999999996,0.0009,-0.333,0.006099250110217962,1.0438345823751063,0.014812636355083657,0.04213483151776473
0.45699999999999996,0.0106,0.667,0.006103212452219553,1.0424361941363682,0.014835784815478502,0.04200310744734112
0.45799999999999996,0.0052,0.667,0.006020172682037539,1.0410359274918517,0.014350656870822657,0.041871206436602804
0.45899999999999996,-0.0028,-0.333,0.006064671708245189,1.0410359274918517,0.014610625330224529,0.041871206436602804
0.45999999999999996,0.0015,-1.333,0.006066085497149181,1.041035927491852,0.014618884848569385,0.041871206436602824
0.46099999999999997,0.008,0.667,0.006110598011304967,1.0410359274918526,0.01487893210612475,0.04187120643660289
0.46199999999999997,-0.0032,0.667,0.006107049535296896,1.0342101504830719,0.01485820149874611,0.04122823826332086
0.46299999999999997,-0.0018,0.667,0.006209781445450028,1.0410359274918553,0.015458373203387372,0.04187120643660314
0.46399999999999997,0.0018,-0.333,0.006212693519337846,1.014687456984773,0.015475385875951214,0.039389257798532966
0.46499999999999997,-0.0043,-0.333,0.00621163578725804,1.014687456984773,0.015469206482767103,0.039389257798532966
0.4660000000000001,0.0032999999999975796,-0.333,0.006215446338175487,1.0161240337079533,0.01549146816208697,0.039524579112178944
0.46699999999999997,-0.0076,0.667,0.006219382570116188,1.0424361941363744,0.015514464084485301,0.04200310744734171
0.4680000000000001,-2.442490654175071e-16,0.667,0.006270975570870422,1.0438345823751125,0.01581587636392283,0.042134831517765314
0.469,-0.0011,0.6669999999999445,0.0062128638760130155,1.056137050006115,0.015476381119356898,0.04329368788377189
0.4700000000000001,-0.0022000000000002443,-0.333,0.0062989035442848175,1.0480185517977796,0.01597903481572528,0.04252894916522135
0.471,-0.0033,-0.333,0.00631541235001688,1.0521858839874279,0.016075481168791574,0.0429214996341263
0.4720000000000001,-0.0025999999999998446,-0.3329999999999445,0.006322134116057615,1.0275443464943472,0.01611475050367354,0.040600339079305194
0.473,-0.0019,0.6669999999999445,0.0063221341160576185,1.0275443464943472,0.01611475050367356,0.040600339079305194
0.4740000000000001,0.0021000000000024866,-0.33300000000005553,0.006304482846085367,1.0191981164274155,0.016011629742339148,0.03981414868764381
0.475,0.0133,-1.3329999999999445,0.006302087165126218,1.0107829722773767,0.01599763389700846,0.039021466791488234
0.4760000000000001,0.011899999999996937,-0.333,0.006315281741987435,0.9851063224829989,0.016074718141572908,0.03660280169401204
0.477,-0.0019,-0.33300000000005553,0.006311300792533756,0.9851063224829989,0.016051460974290187,0.03660280169401204
0.4780000000000001,-0.0037000000000025094,-1.332999999999889,0.006223133949879623,0.986585973502905,0.015536380079077651,0.036742180480066736
0.479,-0.015,0.6670000000000555,0.006228333954486244,0.979380781997517,0.015566759107601955,0.03606347257407933
0.4800000000000001,-0.0072999999999997555,1.667,0.006221997123732415,0.951326205451874,0.01552973860920102,0.03342081375142098
0.481,-0.0062,-1.333,0.006207941104007498,0.9392039888452159,0.015447621715762555,0.03227893650320654
0.4820000000000001,0.002500000000000733,0.667,0.00626991393347862,0.9392039888452159,0.015809674155454215,0.03227893650320654
0.483,0.0058,-1.333,0.006287763303743487,0.9392039888452159,0.015913952241617218,0.03227893650320654
0.4840000000000001,0.0032000000000030645,-0.333,0.006293936115898364,0.9528583135472753,0.015950014524387005,0.0335651338401235
0.485,0.017,0.667,0.00630581833772543,0.9528583135472753,0.016019431839009557,0.0335651338401235
0.4860000000000001,0.007200000000000421,-0.333,0.006296022071005807,0.964808987423342,0.01596220091545842,0.03469085226627472
0.487,0.0091,0.667,0.0063045088493085474,0.9736215721193516,0.0160117816561774,0.03552097189611282
0.4880000000000001,0.004399999999997669,-0.333,0.0062633940492653585,0.9721221883999259,0.01577158423756498,0.035379734347642106
0.489,-0.0061,0.667,0.00623760857742957,0.9706204884828903,0.015620942527860601,0.03523827862015026
0.4899999999999999,-0.0025,-0.333,0.006182552120866474,0.9706204884828904,0.01529929633888459,0.03523827862015027
0.491,-0.0014,0.667,0.0061767837477025855,0.9706204884828904,0.01526559683549156,0.03523827862015027
0.4919999999999999,-0.0025,0.667,0.006124638581812351,1.0054135379100753,0.014960958743446998,0.038515681823379784
0.493,0.0022,1.667,0.00609504035376249,1.0305843646508346,0.014788042470824726,0.040886699872853885
0.4939999999999999,0.0015,-0.333,0.006074524439653065,1.0305843646508346,0.014668186127017107,0.040886699872853885
0.495,0.0037,-0.333,0.006080380418375937,0.9966703984330401,0.014702397432221206,0.03769210372947668
0.4959999999999999,0.0001,0.667,0.006060277546827955,1.0052036940819398,0.014584954130844324,0.03849591515027031
0.497,-0.0079,-0.333,0.005919838431913829,1.0037514882077543,0.013764492573469579,0.038359121616442095
0.4979999999999999,0.0052,-1.333,0.005868459984770912,1.0122250903640875,0.013464333741052062,0.0391573100853252
0.499,-0.0038,-0.333,0.00574610052149589,1.0008407550883849,0.012749495600270925,0.03808493909417907
0.4999999999999999,0.0009,1.667,0.005660133487397355,1.0093387937304261,0.012247266241146146,0.0388854294083403
0.501,0.0053,-0.333,0.005639314359395756,0.9761813189647702,0.012125638486700237,0.03576209254086081
0.5019999999999999,-0.0037,-2.333,0.005647040175598808,0.9688987565938928,0.01217077359879364,0.035076096526283726
0.503,0.005,0.667,0.005567389586872251,0.9420812332698713,0.011705445644310548,0.03254996448865445
0.5039999999999999,0.0062,-2.333,0.005565468013611602,0.9541668966150408,0.011694219591006196,0.033688398526852445
0.505,0.0069,0.667,0.005503806668098727,0.9541668966150408,0.011333986876635631,0.033688398526852445
0.5059999999999999,0.0026,-0.333,0.0054739747530890654,0.9526368930916341,0.011159705377757881,0.03354427668265882
0.507,0.0019,-0.333,0.00547729403331522,0.9880634087088598,0.011179096996861856,0.0368813505429465
0.5079999999999999,-0.0078,-0.333,0.005460566562174661,0.986585973502905,0.011081373175180723,0.036742180480066736
0.509,0.0013,-0.333,0.005460288544315085,1.0122250903640875,0.011079748962679917,0.0391573100853252
0.5099999999999999,-0.0074,0.667,0.005461901079724444,1.0122250903640875,0.011089169581103021,0.0391573100853252
0.511,-0.0041,0.667,0.005461313575339026,1.0052036940819398,0.011085737312512329,0.03849591515027031
0.5119999999999999,-0.0131,-1.333,0.00541783235214018,1.0052036940819398,0.010831714976042192,0.03849591515027031
0.513,0.0033,-0.333,0.005408894272393018,1.00520369408194,0.010779497680071762,0.03849591515027033
0.5139999999999999,-0.0032,-0.333,0.005406419064774316,1.0165391694925798,0.010765037230795164,0.03956368368544026
0.515,-0.005,0.667,0.005434256926913415,1.0249070526618325,0.010927669242101947,0.04035191373582875
0.5159999999999999,-0.0068,-2.333,0.005424640184671177,1.024907052661832,0.010871487121317702,0.04035191373582871
0.517,0.0081,0.667,0.005435610030722855,1.0263293248819594,0.010935574231103492,0.04048588760724418
0.5179999999999999,-0.0056,1.667,0.0053979049826516756,1.024907052661832,0.010715296978001422,0.04035191373582871
0.519,0.0111,-0.333,0.0053979474423208424,1.0496105073053827,0.010715545032301049,0.04267890670461256
0.5199999999999999,0.0046,1.667,0.00540181721197023,1.0482198245259278,0.010738152674304202,0.04254790846585224
0.521,0.0029,0.667,0.005404577136702816,1.048219824525927,0.010754276473900343,0.04254790846585218
0.5219999999999999,-0.0025,-0.333,0.005434983371504133,1.060471420436477,0.010931913215446632,0.04370197286500589
0.523,0.0022,-0.333,0.005432834455358665,1.0725830814421535,0.010919358998706828,0.044842855806568924
0.5239999999999999,-0.0021,-0.333,0.005524809744491984,1.071222222547334,0.011456689278867439,0.0447146668902637
0.525,0.0044,0.667,0.005521828365648112,1.0791661751382637,0.011439271718732122,0.04546296392362101
0.5259999999999999,0.0008,0.667,0.005505368665271013,1.0712222225473325,0.011343112244830752,0.04471466689026356
0.527,0.0019,0.667,0.005386374646365639,1.0832136830342503,0.010647935419420818,0.0458442272955242
0.5279999999999999,-0.0046,0.667,0.005384608341929576,1.107933684874339,0.01063761646455346,0.04817277896168673
0.529,-0.0053,-0.333,0.005499740200129711,1.1001974670921266,0.011310230100292275,0.04744404993799576
0.5299999999999999,0.0002,0.667,0.00529897197167387,1.0988708068190882,0.010137318881854516,0.04731908243155304
0.531,-0.0096,0.667,0.005251355903917644,1.0948811810096766,0.009859140305101,0.04694327138242906
0.5319999999999999,0.0053,-0.333,0.005264071322465058,1.0948811810096766,0.009933425251360182,0.04694327138242906
0.533,-0.0045,1.667,0.0052704713284270725,1.0948811810096766,0.009970814826636367,0.04694327138242906
0.5339999999999999,0.0046,0.667,0.005242977878455123,1.0870520765105234,0.009810194911056698,0.046205792702451814
0.535,-0.0001,1.667,0.005265318231803274,1.0870520765105234,0.009940709839974714,0.046205792702451814
0.5359999999999999,0.0043,-1.333,0.005005085933361815,1.0870520765105234,0.00842040264500952,0.046205792702451814
0.537,0.0006,-0.333,0.004965269883538361,1.0870520765105234,0.008187792675439171,0.046205792702451814
0.5379999999999999,-0.003,-0.333,0.0048819504595313595,1.0870520765105234,0.007701030960783312,0.046205792702451814
0.539,0.0024,-0.333,0.004889523253840455,1.0948811810096766,0.007745272101268415,0.04694327138242906
0.5399999999999999,-0.0023,-0.333,0.0048515540687495305,1.1013309981543926,0.007523451729137767,0.04755082523925831
0.541,0.0039,2.667,0.004874243944097506,1.112998113443659,0.007656008606016564,0.048649833278249385
0.5419999999999999,-0.0001,-2.333,0.004873969965103642,1.112998113443659,0.007654407989036519,0.048649833278249385
0.543,-0.0045,-0.333,0.004880091318727623,1.112998113443659,0.007690169645115341,0.048649833278249385
0.5439999999999999,-0.0038,-0.333,0.004898780493889348,1.1013309981543926,0.007799353968646677,0.04755082523925831
0.545,-0.0074,-1.333,0.004991310507397829,1.1013309981543926,0.008339925012785597,0.04755082523925831
0.5459999999999999,-0.006,-0.333,0.005039543040650034,1.1013309981543926,0.008621705052288344,0.04755082523925831
0.547,0.0002,-1.333,0.005040993472951244,1.100005704975685,0.008630178645599187,0.04742598650909169
0.5479999999999999,-0.002,0.667,0.004979019376401923,1.100005704975685,0.008268118803490099,0.04742598650909169
0.549,-0.0013,-1.333,0.00497375549546117,1.0922133342418736,0.008237366602031651,0.046691968042064436
0.5499999999999999,-0.0006,0.667,0.004960308575597175,1.0922133342418736,0.008158808140450254,0.046691968042064436
0.551,0.0034,0.667,0.0049594785624956115,1.0881993006548298,0.00815395910788289,0.04631385785187889
0.5519999999999999,-0.005,0.667,0.004932416309603809,1.0960202103195746,0.00799585829553261,0.04705056460249144
0.553,-0.0014,1.667,0.004922353656968489,1.0723863813845522,0.007937071114642558,0.04482432723809127
0.5539999999999999,0.004,-0.333,0.0048970941027558,1.0830189137294655,0.00778950187653815,0.045825880598298695
0.555,0.0047,-0.333,0.0049967625849253496,1.0590949990656366,0.008371776680477267,0.0435723180091064
0.5559999999999999,0.0021,2.667,0.004955590881134129,1.0577167865403028,0.008131246823585393,0.04344249443170732
0.557,0.0097,-0.333,0.005061246537570874,1.0590949990656366,0.008748499392277162,0.0435723180091064
0.5579999999999999,-0.0052,-2.333,0.005057636900685155,1.0604714204364667,0.008727411475975316,0.04370197286500493
0.559,-0.0031,-0.333,0.005011893608394696,1.0618460576181625,0.00846017387016281,0.04383145965552029
0.5599999999999999,-0.0013,0.667,0.0050158446305586775,1.0618460576181625,0.008483256198756698,0.04383145965552029
0.561,0.0041,0.667,0.004988504367263945,1.0604714204364667,0.008323531217468203,0.04370197286500493
0.5619999999999999,-0.0007,0.667,0.004986137122532334,1.0910703307284688,0.00830970149986871,0.04658430046368861
0.5630000000000001,0.0007,1.666999999999667,0.004867723027441227,1.0950738404993612,0.007617912656475775,0.0469614193412605
0.564,-0.0058,-1.332999999999889,0.004896930143713447,1.0964050951462772,0.007788544008843552,0.04708681962424655
0.5650000000000001,0.0028,-0.332999999999889,0.004900436599080082,1.097734735343386,0.007809029126773362,0.04721206783079617
0.566,-0.0048,0.666999999999889,0.004881492438147493,1.0964050951462772,0.007698355146868167,0.04708681962424655
0.5670000000000001,-0.0041,-0.33300000000022206,0.004845453233080379,1.0727797454337058,0.007487809941324877,0.04486138097773054
0.568,0.0002,-2.332999999999778,0.004780358439700253,1.0714191363309273,0.007107518627282469,0.044733215591102916
0.5690000000000001,0.0023,-0.333,0.004771966366685214,1.0606703301117713,0.0070584911658111305,0.04372070957298912
0.57,-0.0028,-0.332999999999778,0.004648656870025663,1.068692721348245,0.006338102820083843,0.044476395296685296
0.5710000000000001,0.0066,1.667,0.004691241297182886,1.0579162141426988,0.0065868859703243614,0.043461279926904364
0.572,-0.0021,1.666999999999778,0.004691686525428278,1.05653646393739,0.006589487045244443,0.043331311504561876
0.5730000000000001,0.0102,-0.33300000000011104,0.004687233835128221,1.05653646393739,0.006563473913359313,0.043331311504561876
0.574,-0.0011,-1.332999999999889,0.00468210490443226,1.0579162141426988,0.006533510106843956,0.043461279926904364
0.5750000000000001,0.0126,-0.332999999999778,0.004694655171569032,1.059294167199422,0.006606830219455042,0.04359107906312139
0.576,0.0035,1.666999999999556,0.004682931695799367,1.0579162141426988,0.006538340317665887,0.043461279926904364
0.5770000000000001,-0.0013,-2.333,0.00468525553342538,1.0579162141426988,0.006551916445932507,0.043461279926904364
0.578,-0.0118,-0.333,0.004719450505594998,1.0579162141426988,0.006751687429520846,0.043461279926904364
0.5790000000000001,-0.0028,-0.333,0.004697486651519896,1.0645900070508962,0.006623372052914913,0.04408993164370178
0.58,-0.0017,-1.333,0.00467803731822927,1.0766553376759067,0.0065097467976483496,0.04522645039929945
0.5810000000000001,-0.0072,-1.333,0.0047200249501745,1.1068069159430716,0.006755043401214426,0.048066640633329966
0.582,0.0036,0.667,0.004628896101831573,1.1068069159430716,0.006222658126079912,0.048066640633329966
0.5830000000000001,0.0022,-0.333,0.004598840744159099,1.114497255565359,0.006047071249314905,0.04879104806892297
0.584,0.0058,-0.333,0.004579420033127326,1.114497255565359,0.005933613208596006,0.04879104806892297
0.5850000000000001,0.0047,0.667,0.0045568386477560854,1.114497255565359,0.0058016901427129985,0.04879104806892297
0.586,0.0035,-0.333,0.004567462388990288,1.1028459999607034,0.005863755268112643,0.047693533965703604
0.5870000000000001,0.001,0.667,0.004597819323208565,1.0950738404993612,0.0060411039899490055,0.0469614193412605
0.588,-0.0052,-1.333,0.0046006047064101165,1.0950738404993612,0.0060573765208662474,0.0469614193412605
0.5890000000000001,0.0002,-1.333,0.004596593088774673,1.0950738404993612,0.006033940186517511,0.0469614193412605
0.59,0.0053,1.667,0.004606908500956863,1.095073840499361,0.006094204017923291,0.04696141934126048
0.5910000000000001,-0.0013000000000004885,0.667,0.0046770209634293255,1.1028459999607032,0.006503809135320319,0.04769353396570358
0.592,-0.0035,0.667,0.004680538630222172,1.0712222225473265,0.00652435975169916,0.04471466689026299
0.5930000000000001,0.00479999999999678,-0.333,0.004680689509732358,1.0537715438347774,0.00652524120725361,0.04307086414078767
0.594,-0.0097,-0.333,0.004660481644588243,1.0551549095334898,0.006407184521140933,0.043201173132004035
0.5950000000000001,-0.00789999999999798,-0.333,0.004656687141128313,1.0632189175310653,0.006385016592924481,0.04396077903252831
0.596,0.0012,-0.333,0.004687222222910117,1.0551549095334898,0.00656340607343768,0.043201173132004035
0.5970000000000001,-0.00030000000000097695,-0.333,0.004736797140256933,1.05653646393739,0.006853028476127727,0.043331311504561876
0.598,-0.0047,-0.333,0.0047413369087462446,1.0484210586143434,0.00687955032886896,0.04256686412673367
0.5990000000000001,-0.0009999999999997559,-0.333,0.004756522281723543,1.0470287959885933,0.006968265034667903,0.04243571707108626
0.6,0.0001,-1.333,0.004761276497600042,1.064590007050896,0.006996039713855487,0.04408993164370176
0.6010000000000001,0.0012000000000001554,-1.333,0.00482577690251355,1.0632189175310653,0.007372858541708382,0.04396077903252831
0.602,0.0019,0.667,0.004813694974291033,1.0618460576181623,0.007302274519218649,0.043831459655520266
0.6030000000000001,-0.0005999999999972688,1.667,0.004849563584899475,1.0618460576181623,0.0075118230921975195,0.043831459655520266
0.604,0.0117,0.667,0.004865015173958584,1.049610507305372,0.007602093063146163,0.04267890670461155
0.6050000000000001,0.0026000000000017762,-0.333,0.004848695788271976,1.049610507305372,0.007506753323900296,0.04267890670461155
0.606,0.0106,0.667,0.004893469469475222,1.049610507305372,0.007768326349562537,0.04267890670461155
0.6070000000000001,0.00010000000000082157,0.667,0.004921032944852836,1.016331622796295,0.007929355361663662,0.039544133395413315
0.608,0.0038,0.667,0.004824547465382292,1.028962973351881,0.00736567602774834,0.0407339695682567
0.6090000000000001,-0.0023999999999983123,-0.333,0.004808738810081821,1.002297178267273,0.007273320034507027,0.03822212988574033
0.61,0.0052,-0.333,0.004841126473897226,1.002297178267273,0.0074625325135942505,0.03822212988574033
0.6110000000000001,-0.0038000000000007993,2.667,0.004941362731498974,1.0136651567846424,0.008048124327296815,0.03929296011822811
0.612,-0.0074,1.667,0.005003725652281027,1.024907052661816,0.008412455725558387,0.0403519137358272
0.6130000000000001,-0.006299999999999422,0.667,0.005149506100079976,1.0249070526618163,0.009264121967609614,0.04035191373582722
0.614,-0.0037,0.667,0.005275552235273424,1.0122250903640695,0.010000498072266209,0.039157310085323506
0.6150000000000001,0.002500000000000178,-0.333,0.00527131560084796,1.012225090364071,0.009975747163796948,0.03915731008532365
0.616,0.0033,0.667,0.005263808499688373,1.012225090364071,0.009931889810291618,0.03915731008532365
0.6170000000000001,-0.0017999999999985345,-0.333,0.0052857446058401465,1.012225090364072,0.010060043080319178,0.039157310085323735
0.618,0.0048,0.667,0.005324244006666799,1.012225090364071,0.01028496103412104,0.03915731008532365
0.6189999999999999,0.0027,-1.333,0.005345033954969779,0.9865859735028936,0.010406418317391686,0.03674218048006565
0.62,0.0078,0.667,0.005340597622062879,0.9880634087088483,0.010380500747289842,0.036881350542945425
0.6209999999999999,-0.003,-0.333,0.0053476760344641225,0.9880634087088492,0.010421853651471955,0.03688135054294551
0.622,0.0014,-0.333,0.0053068320290111885,0.9749022856655724,0.010183238246185274,0.035641611355657396
0.6229999999999999,0.0003,0.667,0.00533673410534885,0.9615610399566796,0.010357929635658486,0.03438490514159288
0.624,0.004,0.667,0.005243178861383745,0.9630768661323286,0.009811369076578345,0.03452769152121183
0.6249999999999999,0.0029,-0.333,0.005334991652307415,0.954166896615035,0.010347750023398024,0.03368839852685189
0.626,-0.0017,0.667,0.0051846470973703675,0.9541668966150357,0.009469419739403503,0.03368839852685196
0.6269999999999999,-0.006,0.667,0.005214841372780881,0.9541668966150435,0.009645818189666169,0.033688398526852695
0.628,-0.0006,-1.333,0.0052132571457163285,0.9345329759364726,0.009636562951868544,0.03183894078792782
0.6289999999999999,0.0031,1.667,0.005153729318871665,0.9360925700107742,0.009288794500394245,0.03198584997522257
0.63,-0.0063,2.667,0.005240281777419462,0.9645903102333047,0.009794443976882053,0.03467025351638355
0.6309999999999999,-0.0026,0.667,0.0052893845615126075,0.9645903102333047,0.01008130812248089,0.03467025351638355
0.632,0.0007,-1.333,0.005263075194719792,0.9556944507072747,0.009927605757825746,0.033832289641814096
0.6329999999999999,0.0015,1.667,0.00529823902160235,0.9541668966150434,0.010133036902738334,0.03368839852685268
0.634,0.0008,0.667,0.00529771473194807,0.9541668966150435,0.010129973941920552,0.033688398526852695
0.6349999999999999,0.0031,-0.333,0.00533897529549769,0.9821403329273215,0.01037102292780159,0.03632341417752355
0.636,0.0068,-0.333,0.005562737071678843,0.9806539741651451,0.011678265112279802,0.03618340354182172
0.6369999999999999,0.0017,-0.333,0.005818350429205209,0.9806539741651451,0.013171587920032521,0.03618340354182172
0.638,-0.0023,-0.333,0.0058823761922748834,0.9791653591346032,0.013545633835320245,0.036043180372257816
0.6389999999999999,0.0039,-0.333,0.005884440861163118,0.9791653591345986,0.013557695869836338,0.03604318037225738
0.64,-0.0084,-1.333,0.005891129203872251,0.9836244456494918,0.01359676994174819,0.036463213242844746
0.6409999999999999,0.0043,-0.333,0.0060951023816476855,0.970403120896608,0.014788404844906329,0.03521780323109157
0.642,-0.0004,-1.333,0.0061306287259677295,0.9688987565938869,0.014995953858630017,0.03507609652628317
0.6429999999999999,0.0011,0.667,0.006121918057376756,0.967392052899176,0.014945065124944281,0.03493416945761108
0.644,-0.0033,-1.333,0.006103023168808746,0.9806539741651322,0.014834678999893498,0.03618340354182051
0.6449999999999999,0.0091,-0.333,0.006028036772607626,0.9806539741651322,0.014396599797765872,0.03618340354182051
0.646,-0.0091,0.667,0.006000454748261942,0.9806539741651314,0.014235462420447268,0.03618340354182044
0.6469999999999999,-0.0021,-0.333,0.006066142050883755,0.9937389245064601,0.014619215242029726,0.03741596748401006
0.648,-0.0043,-0.333,0.006189230653494828,0.995205740837517,0.015338313099169557,0.037554137280021084
0.6489999999999999,-0.0025,-2.333,0.006198528450074838,0.995205740837517,0.015392631902494777,0.037554137280021084
0.65,-0.0079,-0.333,0.006206446928853926,0.995205740837517,0.0154388925716474,0.037554137280021084
0.6509999999999999,0.0001,-0.333,0.006232689496012594,0.9865859735028913,0.0155922046851115,0.036742180480065445
0.652,0.0077,0.667,0.006248568712528128,0.9778902288239429,0.01568497290513476,0.035923066837126635
0.6529999999999999,0.0041,-0.333,0.006252765823320764,0.9778902288239428,0.015709492911968374,0.03592306683712663
0.654,0.0005,-0.333,0.006252610561166477,0.966101383454473,0.015708585852500033,0.034812592181631505
0.6549999999999999,0.0081,-0.333,0.0061419712385550485,0.9661013834544729,0.015062218129432528,0.0348125921816315
0.656,0.0056,-0.333,0.006157439625755776,0.9749022856655688,0.015152586237067958,0.035641611355657056
0.6569999999999999,-0.0006,1.667,0.006067077570900683,0.9749022856655688,0.01462468065820323,0.035641611355657056
0.658,0.0034,-0.333,0.006067575092561741,0.9734048746946224,0.014627587237307697,0.035500559634306754
0.6589999999999999,-0.0064,-0.333,0.0060640986419177425,0.9719051566704218,0.01460727741043891,0.0353592905953068
0.66,-0.01,1.667,0.006059527722696881,0.9734048746946224,0.014580573571519994,0.035500559634306754
0.6609999999999999,-0.0089,1.667,0.00605085623405014,0.9749022856655688,0.014529913731601372,0.035641611355657056
0.662,-0.0122,0.667,0.006039856164254198,0.9405315696788475,0.014465650051204865,0.032403990723757
0.6629999999999999,-0.0115,-0.333,0.0060738753547476924,0.9405315696788475,0.014664394097904303,0.032403990723757
0.664,-0.0054,-1.333,0.006066118641957212,0.9405315696788475,0.014619078484372577,0.032403990723757
0.6649999999999999,0.0001,-0.333,0.006055938960890943,0.9389793485726192,0.01455960760984936,0.03225777604842882
0.666,-0.0068,0.667,0.006069055854874179,0.9405315696788475,0.014636238022053154,0.032403990723757
0.6669999999999999,-0.0076,-0.333,0.006185854479233171,0.9405315696788475,0.015318589098527844,0.032403990723757
0.668,0.0047,0.667,0.006415762880181112,0.9405315696788477,0.01666174057602489,0.03240399072375701
0.6689999999999999,-0.0008,0.667,0.006458109715788083,0.9405315696788477,0.016909135688940778,0.03240399072375701
0.67,0.0039,-0.333,0.006476783749040128,0.932970774781263,0.017018231551683926,0.03169178602125847
0.6709999999999999,-0.0005,-0.333,0.006430076814456318,0.9451729382037167,0.01674536423610546,0.03284119402502583
0.672,0.006,-0.333,0.006432058073677822,0.9467150044386872,0.016756938981698468,0.03298645214126716
0.6729999999999999,0.0023,0.667,0.006431594826710842,0.9482545629450142,0.0167542326393222,0.03313147403682579
0.674,0.0099,-0.333,0.00643604887274469,0.9482545629450142,0.016780253691560987,0.03313147403682579
0.6749999999999999,-0.001,-0.333,0.006424609481982347,0.9602625331974254,0.01671342344725171,0.034262589613570496
0.676,0.0066,1.667,0.006430984637261679,0.9602625331974255,0.01675066784196457,0.0342625896135705
0.6769999999999999,-0.0,-1.333,0.006430491566981338,0.9587422574112607,0.016747787268341252,0.03411938409369228
0.678,-0.0088,0.667,0.006443891857326822,0.9572195670948979,0.016826073314880723,0.03397595113215155
0.6789999999999999,-0.0099,-2.333,0.006476180958976813,0.9572195670948979,0.017014709982394485,0.03397595113215155
0.68,-0.0074,-1.333,0.006468687254336666,0.9526368930916196,0.01697093089290563,0.033544276682657456
0.6809999999999999,-0.0049,-0.333,0.006450583058376805,0.9174324046194686,0.016865164085550517,0.03022811712819958
0.682,-0.0071,-0.333,0.006445533152335258,0.9158410345301,0.01683566195020897,0.03007821473348895
0.6829999999999999,-0.0021,-0.333,0.006458257521911971,0.9064668868998252,0.016909999189416904,0.02919519752238459
0.684,0.0088,-2.333,0.00646177308136903,0.8937364267663951,0.016930537494496266,0.02799602551801034
0.6849999999999999,0.0163,-0.333,0.006486224921680505,0.8921027878066895,0.017073387974541644,0.027842141519694392
0.686,0.0174,-0.333,0.006485752426701787,0.929838498645091,0.01707062760421086,0.03139673479662886
0.6869999999999999,0.0087,-0.333,0.006463607776797543,0.929838498645091,0.01694125599745398,0.03139673479662886
0.6880000000000001,0.0054,-1.332999999999667,0.006461515551380494,0.9314059534269972,0.01692903297450841,0.03154438443952342
0.689,0.0028,1.666999999999778,0.006464369950861712,0.9314059534269972,0.016945708706516273,0.03154438443952342
0.6900000000000001,0.0165,-0.333,0.006490207754612834,0.932970774781263,0.01709665614532455,0.03169178602125847
0.691,0.0067,-0.333,0.006437152206657059,0.937649570013254,0.016786699495926823,0.03213251480856048
0.6920000000000001,0.0012,-0.332999999999778,0.00643923257183287,0.937649570013254,0.01679885322997091,0.03213251480856048
0.693,-0.0003,1.666999999999778,0.006439122898084557,0.9648089874233275,0.016798212503244606,0.03469085226627336
0.6940000000000001,-0.0017,-0.333,0.006451938368865055,0.9648089874233275,0.01687308196622497,0.03469085226627336
0.695,-0.0054,-0.332999999999778,0.006462061715045304,0.957439927748065,0.016932223725826413,0.03399670845933171
0.6960000000000001,-0.009,1.666999999999889,0.00639775430173393,0.9589622681643508,0.016556532377241272,0.03414010846131149
0.697,-0.0123,0.666999999999889,0.006340426780195878,0.9574399277480649,0.016221618363931628,0.0339967084593317
0.6980000000000001,-0.0058,-0.333,0.006369085994559569,0.957439927748065,0.01638904880996049,0.03399670845933171
0.699,-0.0033,-0.333,0.006356887245679698,0.957439927748065,0.016317782307674982,0.03399670845933171
0.7000000000000001,0.0057,-0.333,0.006380164077721226,0.9287228048667768,0.016453768253465225,0.03129163971519535
0.701,0.0046,-0.332999999999889,0.00636644673177891,0.9425289816833254,0.01637362993144744,0.032592141075894004
0.7020000000000001,-0.003,0.667,0.0063686669322298006,0.9515479308980236,0.016386600599346737,0.03344169963809697
0.703,-0.0004,0.667,0.00633098437407226,0.9589622681643509,0.016166454734922103,0.034140108461311505
0.7040000000000001,0.0003,0.667,0.006321040508235548,0.9589622681643509,0.016108361520252513,0.034140108461311505
0.705,-0.0051,-1.333,0.006351308304116663,0.9867997764133933,0.01628518948561035,0.03676232008712132
0.7060000000000001,-0.0015,0.667,0.006299784599506243,1.013873249324653,0.015984182042262176,0.039312561825132986
0.707,-0.0008,-0.333,0.006301329848992426,1.015310978081507,0.01599320956853747,0.039447991656971965
0.7080000000000001,0.0032,-0.333,0.006302580766044459,1.0025076304843934,0.016000517570679787,0.03824195386730771
0.709,-0.0004,0.667,0.006297117550077032,1.0025076304843934,0.015968600830933523,0.03824195386730771
0.7100000000000001,-0.0041,0.667,0.00630687931484642,1.0025076304843934,0.016025630190099702,0.03824195386730771
0.711,0.001,0.667,0.006262053919722933,0.9981329067961558,0.015763755045732387,0.0378298677275435
0.7120000000000001,-0.0098,1.667,0.006204084019875209,0.9851063224829848,0.015425088184017938,0.03660280169401071
0.713,-0.0055,0.667,0.006105301148752015,0.9851063224829847,0.014847987222272041,0.0366028016940107
0.7140000000000001,0.0011,-0.333,0.006002897373935329,0.9851063224829847,0.014249732522229783,0.0366028016940107
0.715,0.0047,0.667,0.005978888474950581,0.9763974001976076,0.01410946975666106,0.03578244675919804
0.7160000000000001,0.012400000000001044,0.667,0.005993713736616453,0.9763974001976076,0.014196080650515716,0.03578244675919804
0.717,0.0171,-0.333,0.005957649356936343,0.9763974001976076,0.013985388371970739,0.03578244675919804
0.7180000000000001,0.00879999999999929,0.667,0.0060073086807537115,1.0037514882077405,0.014275503887027126,0.0383591216164408
0.719,0.0056,0.667,0.006030891994201765,1.0037514882077405,0.014413280332652536,0.0383591216164408
0.7200000000000001,-0.0009000000000005551,1.667,0.006030575911818907,1.0151031802708284,0.014411433742802853,0.03942841771270566
0.721,-0.0034,0.667,0.006019229828792859,1.0151031802708286,0.014345148613084212,0.03942841771270568
0.7220000000000001,-0.0011999999999992006,0.667,0.006084691609521348,1.0151031802708286,0.014727583909674206,0.03942841771270568
0.723,0.0024,0.667,0.0060593144660940216,1.0151031802708284,0.014579327701773453,0.03942841771270566
0.7240000000000001,-0.001200000000000644,1.667,0.006154261262819274,1.0136651567846522,0.015134017873073502,0.039292960118229026
0.725,-0.0041,-0.333,0.006074419727214412,1.0136651567846522,0.01466757438483583,0.039292960118229026
0.7260000000000001,-0.0015000000000012878,-0.333,0.006076637363957591,1.0136651567846522,0.014680530075258064,0.039292960118229026
0.727,-0.0073,-0.333,0.0060431671616386195,1.0136651567846522,0.014484993280989155,0.039292960118229026
0.7280000000000001,-0.006499999999998556,-1.333,0.006064526398762546,1.0136651567846522,0.01460977641541541,0.039292960118229026
0.729,0.0,-1.333,0.006006121084300601,1.0122250903640737,0.014268565811149565,0.0391573100853239
0.7300000000000001,0.0039999999999992,0.667,0.005945997964935431,0.9851063224829848,0.013917319591898339,0.03660280169401071
0.731,0.0004,-0.333,0.005916229172695333,0.9763974001976076,0.013743406863543346,0.03578244675919804
0.7320000000000001,0.004099999999999667,-0.333,0.005896546835602952,0.9851063224829848,0.013628420373109653,0.03660280169401071
0.733,0.0026,0.667,0.0058610736218355055,0.993738924506459,0.013421181754221153,0.03741596748400996
0.7340000000000001,-0.005699999999998069,-0.333,0.005859070386692486,0.993738924506459,0.013409478622752158,0.03741596748400996
0.735,0.003,2.667,0.005792386098149369,0.9661013834544732,0.01301990129407156,0.03481259218163152
0.7360000000000001,0.004199999999998956,-0.333,0.005557973159727134,0.9661013834544732,0.011650433787499057,0.03481259218163152
0.737,-0.0005,0.667,0.005278104381328966,0.9661013834544732,0.01001540800479219,0.03481259218163152
0.7380000000000001,-0.0030000000000008882,-0.333,0.0052269702595057225,0.9676100969033672,0.00971667654915932,0.034954708563252765
0.739,-0.007,0.667,0.005209220498475345,0.9602625331974302,0.009612980391668453,0.03426258961357094
0.7400000000000001,0.0013000000000007326,1.667,0.005205907590671154,0.9482545629450229,0.009593626000990847,0.033131474036826605
0.741,0.0046,-0.333,0.004937169232401315,0.9497916259173655,0.008023625420403116,0.03327626086040365
0.7420000000000001,-9.999999999904522e-05,2.667,0.004891397714667603,0.9513262054518679,0.007756222918285598,0.033420813751420406
0.743,0.0042,0.667,0.004890130397271182,0.9513262054518687,0.0077488191034339295,0.03342081375142049
0.7440000000000001,-0.004899999999998779,0.667,0.00497796925882309,0.9392039888452145,0.00826198389510163,0.0322789365032064
0.745,0.0006,0.667,0.004975214751647517,0.952858313547274,0.008245891745500342,0.03356513384012338
0.7459999999999999,-0.0031,-0.333,0.004946605377066659,0.9543879621060051,0.008078752469248983,0.03370922224768571
0.747,-0.0064,-0.333,0.004936059148895178,0.9423051340707851,0.008017140184129601,0.03257105528736862
0.7479999999999999,-0.0017,-0.333,0.004794154754846091,0.940755839301285,0.0071881182965235395,0.032425116264376885
0.749,-0.006,-0.333,0.00477837396253484,0.940755839301285,0.007095925082088846,0.032425116264376885
0.7499999999999999,-0.0067,1.667,0.004778575576515242,0.9423051340707859,0.007097102934288002,0.032571055287368686
0.751,-0.0017,-1.333,0.004813178284702947,0.9438518857388899,0.007299255958866863,0.03271675475766817
0.7519999999999999,0.0034,-1.333,0.004848041113362045,0.957439927748082,0.007502928637334131,0.03399670845933331
0.753,-0.0021,-0.333,0.0049064083797354585,0.9693341177132625,0.007843916960264813,0.035117106266754156
0.7539999999999999,0.0062,-2.333,0.004961967385353254,0.9693341177132625,0.008168499098960587,0.035117106266754156
0.755,0.0008,-2.333,0.004990248494951709,0.9810841188601748,0.008333720613206263,0.036223921910419815
0.7559999999999999,-0.0058,0.667,0.004965684103288624,0.9723391716866817,0.008190212595143192,0.0354001735368126
0.757,-0.0014,-0.333,0.004963699281308753,0.9708378074012393,0.008178617035503611,0.035258749424832384
0.7579999999999999,-0.0022,-0.333,0.004988346801958817,0.9795961574868234,0.00832261070272619,0.03608376031344599
0.759,-0.0073,-0.333,0.005016259519349351,0.9795961574868234,0.008485680027072205,0.03608376031344599
0.7599999999999999,-0.0066,-1.333,0.005018024274936432,0.98679977641341,0.008495989933384613,0.036762320087122886
0.761,-0.0026,-0.333,0.005009682420451952,0.98679977641341,0.008447255854378806,0.036762320087122886
0.7619999999999999,-0.0052,0.667,0.0050504681358956955,0.98679977641341,0.00868553072268796,0.036762320087122886
0.763,0.0028,-0.333,0.005179322455800164,0.9736215721193541,0.009438312567318129,0.03552097189611305
0.7639999999999999,-0.0005,-0.333,0.005173311924301767,0.9721221883999285,0.00940319834691849,0.03537973434764234
0.765,0.0042,-0.333,0.00535785852256165,0.972122188399928,0.010481340924996542,0.0353797343476423
0.7659999999999999,0.0017,0.667,0.005342534649590927,0.972122188399928,0.010391817086212311,0.0353797343476423
0.767,0.0108,-2.333,0.005216742214975579,0.9721221883999273,0.009656923129684759,0.03537973434764223
0.7679999999999999,0.0071,0.667,0.004970885711462749,0.9721221883999277,0.00822060099189438,0.03537973434764227
0.769,-0.0005,1.667,0.004962263474022597,0.9793807819975188,0.008170228883222748,0.0360634725740795
0.7699999999999999,-0.0013,-0.333,0.004944370950541294,0.9865859735029051,0.008065698690976732,0.03674218048006674
0.771,0.0089,-0.333,0.004969965366702939,0.9734048746946365,0.008215224231328653,0.035500559634308086
0.7719999999999999,0.0023,-0.333,0.005010214203814274,0.9734048746946372,0.008450362594305956,0.03550055963430815
0.773,0.011,-0.333,0.0050149742615498176,0.9851063224829937,0.008478171402309949,0.03660280169401155
0.7739999999999999,0.0008,-0.333,0.005036227187143153,0.9922699398664517,0.00860233345247482,0.037277593439655775
0.775,0.0019,-0.333,0.00503673762391863,0.9791653591345936,0.008605315483171928,0.03604318037225691
0.7759999999999999,-0.0018,1.667,0.005043176000551777,0.9806539741651348,0.00864292922434815,0.03618340354182075
0.777,-0.0051,-1.333,0.005043262832470307,0.9806539741651344,0.008643436506462182,0.036183403541820716
0.7779999999999999,-0.0026,-0.333,0.004991336417186282,0.9821403329273107,0.00834007638076736,0.03632341417752254
0.779,-0.0051,-0.333,0.005037230647772276,0.9749022856655756,0.008608195785565126,0.035641611355657694
0.7799999999999999,-0.0044,-0.333,0.005040393546535358,0.9793807819975039,0.008626673806069341,0.0360634725740781
0.781,-0.0008,-1.333,0.005066063730060325,0.9865859735028889,0.008776641988123663,0.036742180480065216
0.7819999999999999,0.0029,-1.333,0.005070184598513504,0.9880634087088431,0.008800716578389338,0.03688135054294493
0.783,0.0014,-0.333,0.005053474457891012,0.9880634087088427,0.008703094003599803,0.03688135054294489
0.7839999999999999,-0.0,-0.333,0.005047171553379013,0.9880634087088427,0.008666271706228725,0.03688135054294489
0.785,0.0003,-0.333,0.005024099977235737,0.9880634087088428,0.008531484889143065,0.036881350542944905
0.7859999999999999,-0.0,-0.333,0.005025989272147687,0.9541668966150232,0.008542522368599884,0.03368839852685078
0.787,0.0047,0.667,0.005008368439571032,0.9541668966150232,0.008439579426051991,0.03368839852685078
0.7879999999999999,-0.0033,0.667,0.005065690392586756,0.9526368930916165,0.008774460907409947,0.03354427668265716
0.789,0.0021,0.667,0.00513142620237321,0.9541668966150232,0.009158497113460255,0.03368839852685078
0.7899999999999999,-0.0004,0.667,0.00508805380662082,0.9526368930916164,0.008905110559523062,0.03354427668265715
0.791,0.0003,0.667,0.005094699073119754,0.9389793485726161,0.008943932975231245,0.03225777604842853
0.7919999999999999,-0.0005,-0.333,0.00509627456035264,0.9405315696788445,0.00895313715392112,0.03240399072375672
0.793,0.0093,0.667,0.005112616417065804,0.9048562319668014,0.00904860817150391,0.029043478551966744
0.7939999999999999,0.0003,1.667,0.005097681175466262,0.9126499698656461,0.008961354762152667,0.02977762580193004
0.795,-0.0008,0.667,0.005122073827007835,0.9110502461330374,0.00910385945455646,0.029626936518528584
0.7959999999999999,-0.0084,0.667,0.005231982544801434,0.9110502461330374,0.009745958899751177,0.029626936518528584
0.797,-0.0036,-0.333,0.005406880726032302,0.9110502461330374,0.010767734309276031,0.029626936518528584
0.7979999999999999,-0.0043,-0.333,0.005442070316663511,0.9110502461330374,0.010973315968988963,0.029626936518528584
0.799,0.0033,0.667,0.005440352349861014,0.9110502461330374,0.010963279408169305,0.029626936518528584
0.7999999999999999,0.0081,0.667,0.005407338951320648,0.9110502461330375,0.010770411314424739,0.029626936518528595
0.801,0.0074,1.667,0.005371605038462762,0.8967595652936605,0.010561649661288417,0.028280796299996608
0.8019999999999999,0.0081,1.667,0.005368972544550731,0.887183822250142,0.010546270327289019,0.027378789392271834
0.803,0.0074,0.667,0.005386406897136911,0.8775035902941185,0.010648123832157826,0.02646693993546947
0.8039999999999999,0.0053,1.667,0.005458997069753237,0.8775035902941185,0.011072204018872977,0.02646693993546947
0.805,-0.0012,-0.333,0.005426445749722466,0.8460776465623362,0.010882035441241444,0.02350670821256161
0.8059999999999999,-0.0005,-0.333,0.005508121864672203,0.8134385146068845,0.011359196754262793,0.020432197717432432
0.807,0.005,-1.333,0.005538907262145077,0.8134385146068844,0.011539048608003396,0.02043219771743242
0.8079999999999999,-0.0062,-0.333,0.0055500984674846324,0.8134385146068844,0.011604428924359037,0.02043219771743242
0.809,-0.0014,-1.333,0.005595140359119454,0.8152298041427037,0.011867568866393043,0.020600931937607404
0.8099999999999999,-0.0029,0.667,0.005575846275233716,0.8152298041427037,0.011754850596111354,0.020600931937607404
0.811,-0.0065,0.667,0.005583250533521731,0.8205802112606914,0.011798107129662595,0.02110492459464004
0.8119999999999999,-0.0151,-0.333,0.005582796406303193,0.8223559446063107,0.011795454065911832,0.021272193467326634
0.8130000000000001,-0.0049,-0.333,0.005559722355913083,0.8223559446063107,0.011660652793989914,0.021272193467326634
0.814,-0.014,-0.332999999999889,0.0055525935596194165,0.8223559446063107,0.011619005541279119,0.021272193467326634
0.8150000000000001,0.0024,0.667,0.005553500008544675,0.8223559446063107,0.011624301120771717,0.021272193467326634
0.816,0.0046,0.666999999999889,0.0055417951891594645,0.8223559446063108,0.011555920211738988,0.021272193467326644
0.8170000000000001,0.0065,-0.33300000000011104,0.005547181427807827,0.8223559446063108,0.01158738724108142,0.021272193467326644
0.818,0.0083,-1.333,0.005445128699311357,0.7905830438223599,0.010991183394256018,0.018279279407777373
0.8190000000000001,0.0037,-1.332999999999889,0.005441290193472564,0.7887357812745222,0.010968758399051416,0.018105272694046815
0.82,0.0051,-0.332999999999889,0.005498335318905068,0.7740715187539419,0.011302022621640748,0.01672394217691206
0.8210000000000001,-0.0072,0.6670000000001111,0.0056080755482699855,0.7850282158173282,0.011943137737941908,0.017756030902779836
0.822,-0.0025,1.666999999999667,0.005633866280585725,0.7868841821678932,0.012093810179978771,0.017930857489197854
0.8230000000000001,0.0052,-1.332999999999889,0.005632713527691367,0.7976649043485226,0.012087075664202656,0.018946369897268514
0.824,-0.0014,-0.332999999999889,0.005655252675240087,0.8136978140948462,0.012218751971839808,0.02045662296863727
0.8250000000000001,0.0048,0.666999999999889,0.00566269592088043,0.8154885340576086,0.012262236274013974,0.020625303536700924
0.826,0.0015,-0.332999999999889,0.005659761058412861,0.8154885340576086,0.012245090467930712,0.020625303536700924
0.8270000000000001,-0.001,0.667,0.005662983293407994,0.7994915360065009,0.012263915137567452,0.019118433241687563
0.828,-0.0094,0.6670000000001111,0.005643352139703831,0.7887357812745222,0.012149227666409367,0.018105272694046815
0.8290000000000001,-0.0018,1.666999999999667,0.005697987303031942,0.7887357812745223,0.01246841261156525,0.018105272694046826
0.83,-0.0065,-1.332999999999778,0.005675698421063346,0.7887357812745223,0.012338198384401556,0.018105272694046826
0.8310000000000001,-0.0021,0.666999999999889,0.005808055842951182,0.7887357812745223,0.013111445756108519,0.018105272694046826
0.832,0.0001,-0.332999999999889,0.005821183596287098,0.7778313115190386,0.013188139609907038,0.017078103627393586
0.8330000000000001,-0.0007,0.667,0.00581962823407284,0.7667717820160861,0.013179053003904342,0.0160363283873404
0.834,0.003,-0.333,0.005858510874568797,0.768671829985216,0.013406209888193035,0.01621530733292976
0.8350000000000001,0.0033,0.667,0.00586232571125363,0.8031323360315082,0.013428496605461812,0.01946138592507478
0.836,-0.0003,-0.333,0.006013766472015549,0.8031323360315082,0.014313231050710322,0.01946138592507478
0.8370000000000001,0.0076,-0.333,0.0060208250107948,0.8136978140948462,0.014354467850893489,0.02045662296863727
0.838,0.0087,0.667,0.006119447343528359,0.8119031445597648,0.014930630928793709,0.020287570362445793
0.8390000000000001,0.0021,-0.333,0.006126337784879597,0.8101044992032435,0.01497088568435446,0.02011814324553632
0.84,0.0029,-0.333,0.006126586268511465,0.8101044992032433,0.014972337354480043,0.020118143245536308
0.8410000000000001,-0.004799999999999844,0.667,0.006126586268511465,0.8101044992032433,0.014972337354480043,0.020118143245536308
0.842,-0.0041,0.667,0.006128138415643536,0.8083018514841105,0.014981405177600637,0.019948339117808307
0.8430000000000001,-0.0016000000000011992,-1.333,0.006163229640168768,0.8083018514841105,0.015186412171142026,0.019948339117808307
0.844,-0.007,-0.333,0.00609672150214846,0.8064951745645751,0.014797863934195344,0.019778155451220584
0.8450000000000001,-0.010700000000000731,0.667,0.0061249818805256045,0.7921597377292334,0.014962964334247632,0.018427799349144233
0.846,-0.014,-0.333,0.006124515897471298,0.7903161605095465,0.014960242007332654,0.018254139782515902
0.8470000000000001,-0.008899999999998246,-0.333,0.0060889596148714946,0.8220993759956647,0.01475251809071491,0.021248025456754898
0.848,-0.001,-0.333,0.006128050508666437,0.8238718350138922,0.014980891614870064,0.02141498589740523
0.8490000000000001,9.99999999994227e-05,-0.333,0.0061133569788344765,0.8238718350138922,0.014895050313629777,0.02141498589740523
0.85,-0.0025,-0.333,0.006104557655763424,0.8220993759956646,0.014843643650214573,0.021248025456754888
0.8510000000000001,0.00010000000000119905,-0.333,0.006051546010363899,0.8203230872624302,0.014533943484629741,0.021080704268183977
0.852,0.0055,-0.333,0.006006147082516291,0.8149709920884761,0.014268717695733481,0.020576552601230605
0.8530000000000001,0.00909999999999758,-0.333,0.006013106414127792,0.8007873009913296,0.014309374916164913,0.019240490502601057
0.854,-0.0018,-0.333,0.005972100889935334,0.7989636317832506,0.01406981589971509,0.019068706212273256
0.8550000000000001,-0.009499999999996069,-0.333,0.0059489249613468125,0.7844905789081121,0.013934419443571293,0.017705387082894868
0.856,0.0082,0.667,0.005960612141211231,0.786347814209642,0.014002697300482756,0.01788033320077176
0.8570000000000001,-0.0037999999999975133,-0.333,0.005978251082061901,0.786347814209642,0.014105746033662478,0.01788033320077176
0.858,0.0074,0.667,0.005957611153075038,0.7754097635630972,0.013985165180593012,0.016850000912677948
0.8590000000000001,0.005599999999997158,-0.333,0.005941620666631714,0.7772886966537432,0.013891746908778273,0.01702699089864698
0.86,-0.0072,1.667,0.005940435103890087,0.7662213351652195,0.013884820714078485,0.015984477908525276
0.8610000000000001,-0.002499999999999689,0.667,0.005952689689079,0.7662213351652194,0.01395641341854138,0.015984477908525266
0.862,-0.0011,0.667,0.005997620455409703,0.7643151954172276,0.01421890415369213,0.01580492513523514
0.8630000000000001,2.442490654175071e-16,-0.333,0.005807865766047202,0.7643151954172276,0.013110335304844596,0.01580492513523514
0.864,0.0011,-0.333,0.005793054135957121,0.7662213351652193,0.01302380404823281,0.015984477908525255
0.8650000000000001,-0.002200000000000178,-0.333,0.005644658935885661,0.76622133516522,0.012156862120892873,0.015984477908525318
0.866,-0.003,0.667,0.005686355833821918,0.7643151954172283,0.01240046022274218,0.015804925135235202
0.8670000000000001,-0.0021999999999980017,0.667,0.005668696576215708,0.764315195417229,0.012297292796726053,0.015804925135235275
0.868,0.0068,-0.333,0.00563113871723329,0.7643151954172286,0.01207787543930951,0.015804925135235234
0.8690000000000001,0.007900000000000712,0.667,0.00558933558331594,0.7549917555702641,0.011833656694567731,0.014926684448585784
0.87,0.0111,-1.333,0.005581373876609972,0.745551731278565,0.01178714348286504,0.014037461849200584
0.8710000000000001,0.010399999999998135,0.667,0.0056111757590272095,0.7455517312785656,0.011961249527863238,0.014037461849200636
0.872,0.002,-1.333,0.0055922357834021,0.7435926085537486,0.011850599999008553,0.013852918234899963
0.8729999999999999,0.0121,1.667,0.005621169002012348,0.7280196089248441,0.01201963120954661,0.012385987347612296
0.874,0.003,0.667,0.005617599502682602,0.7182251624751663,0.011998777781490458,0.011463379220514566
0.8749999999999999,-0.0006,-0.333,0.005633215550099921,0.7202532891484609,0.012090008537194705,0.011654422804363738
0.876,0.0026,-0.333,0.005612675701630016,0.7202532891484618,0.011970012366084085,0.011654422804363821
0.8769999999999999,0.0019,-0.333,0.005613162595053756,0.7202532891484623,0.01197285685379651,0.011654422804363873
0.878,-0.0083,-0.333,0.005615562389394715,0.7202532891484623,0.011986876729979628,0.011654422804363873
0.8789999999999999,0.0007,-0.333,0.0055589770185058215,0.7202532891484614,0.011656298446625182,0.01165442280436379
0.88,-0.0131,-0.333,0.00557261120465502,0.7041643160601733,0.011735950939510435,0.01013888873062349
0.8809999999999999,-0.004,-0.333,0.005557151568084517,0.6919283203693821,0.011645633954069173,0.008986293826413446
0.882,-0.0026,-0.333,0.005560218448184929,0.6919283203693831,0.01166355102243723,0.00898629382641354
0.8829999999999999,-0.0069,0.667,0.005560514799225684,0.6919283203693837,0.011665282339503534,0.008986293826413591
0.884,0.0021,-2.333,0.005560689053060364,0.6919283203693837,0.011666300350565963,0.008986293826413591
0.8849999999999999,0.0134,-0.333,0.0055708348258804875,0.6919283203693837,0.011725573129192193,0.008986293826413591
0.886,0.0029,-1.333,0.005592330436001903,0.6898169206481527,0.011851152970447398,0.00878740616570014
0.8869999999999999,0.0119,-0.333,0.0055928508688508835,0.6919283203693837,0.011854193399362407,0.008986293826413591
0.888,-0.0044,-0.333,0.00554896728317913,0.6919283203693837,0.01159782041477438,0.008986293826413591
0.8889999999999999,-0.0022,0.667,0.005480121094641243,0.6898169206481521,0.011195613016204194,0.008787406165700087
0.89,-0.0004,0.667,0.005500811961058853,0.6919283203693831,0.011316491451637267,0.00898629382641354
0.8909999999999999,0.0014,-0.333,0.0054948318338233,0.694033296784736,0.011281554856458773,0.00918457643055372
0.892,-0.0066,-0.333,0.005556028405888952,0.7041643160601744,0.01163907231057889,0.010138888730623593
0.8929999999999999,-0.0023,-0.333,0.0055567726652152845,0.7020897147058884,0.011643420359670104,0.00994346736814168
0.894,-0.0059,0.667,0.005555838360625373,0.6919283203693772,0.011637962044161851,0.008986293826412986
0.8949999999999999,0.0002,-0.333,0.005522758521340336,0.6919283203693772,0.011444705795900081,0.008986293826412986
0.896,-0.0052,-2.333,0.005474048621971768,0.6898169206481468,0.01116013692831686,0.008787406165699585
0.8969999999999999,-0.0078,0.667,0.005334439004194936,0.7020897147058858,0.01034452138918652,0.00994346736814143
0.898,0.0006,-0.333,0.005311513663909195,0.7020897147058852,0.01021058889889928,0.009943467368141376
0.8989999999999999,-0.0005,-0.333,0.005377963168320001,0.7041643160601697,0.010598794591515658,0.010138888730623154
0.9,-0.0012,-0.333,0.005391462512507132,0.7041643160601697,0.010677659322058029,0.010138888730623154
0.9009999999999999,-0.0005,-1.333,0.0054526213312037514,0.704164316060169,0.011034956216628396,0.010138888730623092
0.902,0.0086,0.667,0.005498829236553897,0.7062328231746097,0.01130490814568881,0.010333736033586822
0.9029999999999999,0.0024,-0.333,0.005471452499920171,0.7182251624751669,0.011144970082934144,0.011463379220514618
0.904,-0.0008,0.667,0.005411438066261677,0.7182251624751669,0.010794358818155667,0.011463379220514618
0.9049999999999999,0.0039,0.667,0.005409443537139343,0.7182251624751663,0.010782706548266756,0.011463379220514566
0.906,0.0046,-0.333,0.005354840609559252,0.7202532891484623,0.010463709928080309,0.011654422804363873
0.9069999999999999,0.0007,-0.333,0.005292785061065216,0.7645911545149827,0.010101174234286643,0.015830919672817592
0.908,-0.0044,0.667,0.0052825967470267405,0.7645911545149827,0.010041652924941013,0.015830919672817592
0.9089999999999999,0.0007,-0.333,0.005230346681826494,0.7626809405287756,0.009736401998991078,0.01565098311823788
0.91,-0.0048,0.667,0.005203540799302544,0.7626809405287757,0.009579798931990458,0.015650983118237892
0.9109999999999999,-0.0098,-0.333,0.005174309785954447,0.7455517312785642,0.009409027970140644,0.014037461849200511
0.912,-0.0019,-0.333,0.005168381758672196,0.7435926085537483,0.009374395748917023,0.013852918234899932
0.9129999999999999,-0.0026,0.667,0.005193194878181217,0.7588460871695026,0.009519356863832519,0.015289751179948031
0.914,-0.0051,-0.333,0.005201768662477464,0.7588460871695026,0.009569445903631691,0.015289751179948031
0.9149999999999999,-0.0073,-0.333,0.005205593589251171,0.7607659301842854,0.009591791568367038,0.015470594760776293
0.916,0.0011,0.667,0.005214045138281348,0.7955689583535595,0.009641166495599866,0.018748937932241586
0.9169999999999999,0.0,-0.333,0.005220725501539373,0.7937332996536501,0.009680193950635168,0.018576024266950198
0.918,0.0047,0.667,0.005231575747364844,0.7918933857927938,0.009743582342062357,0.018402709777978574
0.9189999999999999,0.0022,0.667,0.005187494959668375,0.79373329965365,0.009486057280430737,0.018576024266950188
0.92,0.0077,-0.333,0.005137466401366628,0.79373329965365,0.009193784654798172,0.018576024266950188
0.9209999999999999,0.0055,-0.333,0.005022606845202165,0.7992276274811582,0.00852276183905563,0.019093573832680368
0.922,0.0062,0.667,0.004921909862851688,0.7974003912793524,0.007934478418067626,0.018921453542005983
0.9229999999999999,0.0048,0.667,0.004918262747727611,0.7866160439052594,0.007913171549561265,0.017905599651344244
0.924,0.0044,0.667,0.004874941411609268,0.7700194591669537,0.007660083291913498,0.016342250049067246
0.9249999999999999,-0.0003,0.667,0.004865695259601082,0.7700194591669536,0.007606066202151867,0.016342250049067236
0.926,-0.0017,-0.333,0.004912431202705238,0.7719115130715853,0.007879102988862324,0.01652047597722857
0.9269999999999999,0.0019,0.667,0.0049058175779532085,0.7719115130715853,0.007840465427900336,0.01652047597722857
0.928,-0.005,0.667,0.004971606209638448,0.7719115130715853,0.008224810225594556,0.01652047597722857
0.9289999999999999,-0.0043,0.667,0.004904976566544701,0.7737989406358482,0.007835552141951361,0.01669826611769684
0.93,-0.005,-0.333,0.004905445832706013,0.7756817756308688,0.007838293649157304,0.016875623651613134
0.9309999999999999,-0.0028,0.667,0.0047706241548052105,0.7775600514188946,0.00705064980872149,0.017052551721603297
0.932,-0.0006,-0.333,0.004762100918328479,0.779433800960191,0.007000856075132039,0.017229053432427654
0.9329999999999999,0.0008,0.667,0.004800863570147837,0.7813030568197895,0.007227311971690002,0.017405131851616663
0.934,0.0045,-0.333,0.004991950733225628,0.7903161605095483,0.008343665286142265,0.01825413978251608
0.9349999999999999,0.0059,-0.333,0.005132493695959919,0.7552711212511355,0.009164733534497047,0.014952999876305807
0.936,0.0008,0.667,0.004985801279082152,0.7552711212511355,0.008307739463577477,0.014952999876305807
0.9369999999999999,0.003,-0.333,0.005017171214536792,0.7438762552418542,0.008491006255835437,0.013879636920944658
0.9380000000000001,0.0001,-0.332999999999889,0.004910262848476398,0.7438762552418542,0.007866435212590579,0.013879636920944658
0.939,0.0052,0.667,0.004890881292099932,0.7458346328974947,0.00775320591789796,0.01406411035191431
0.9400000000000001,-0.0014,0.666999999999778,0.00491343504979745,0.7438762552418541,0.007884967579714708,0.013879636920944648
0.941,0.0095,-1.332999999999889,0.004958558737821343,0.7438762552418541,0.008148585385717071,0.013879636920944648
0.9420000000000001,-0.0042,-0.332999999999889,0.004966134414126529,0.7458346328974945,0.008192843363156762,0.014064110351914289
0.943,0.0012,0.666999999999889,0.0049226611704215354,0.7572000284684648,0.0079388676438129,0.015134697278427398
0.9440000000000001,-0.0035,-0.333,0.004917592753947498,0.7572000284684648,0.007909257368383186,0.015134697278427398
0.945,-0.0078,-0.33300000000011104,0.004909707002745192,0.7572000284684648,0.007863187897520527,0.015134697278427398
0.9460000000000001,-0.0067,-1.332999999999889,0.00497100465901127,0.7591240344168669,0.008221295897234429,0.015315932995392148
0.947,-0.0074,-0.332999999999889,0.0049438928206557336,0.7225677356917716,0.008062905400868244,0.011872436880152774
0.9480000000000001,-0.0085,0.666999999999889,0.004903967403859462,0.7205461235382765,0.007829656496789527,0.01168200694496073
0.949,0.0038,-0.333,0.004932298492963591,0.7205461235382765,0.007995169997089708,0.01168200694496073
0.9500000000000001,0.0085,-0.332999999999889,0.004934087870392369,0.7225677356917716,0.008005623747049924,0.011872436880152774
0.951,0.0071,0.666999999999778,0.00494588965025395,0.7225677356917716,0.008074571110403413,0.011872436880152774
0.9520000000000001,0.0006,-1.332999999999889,0.004954232234561561,0.710648681965588,0.008123309453120387,0.010749696979374276
0.953,0.0042,-0.333,0.0048900071312245495,0.7265940859215163,0.00774809896892829,0.012251707261954344
0.9540000000000001,0.001,-0.332999999999889,0.004887411848663865,0.7629574907311019,0.00773293702794861,0.015677033336137146
0.955,-0.0056,0.6670000000002221,0.004891796234850239,0.7629574907311018,0.007758551119299188,0.015677033336137135
0.9560000000000001,-0.0012,2.6669999999996667,0.004887360764086069,0.7610431762692612,0.007732638585934915,0.015496710528780022
0.957,-0.0019,-0.333,0.004865703349317437,0.795834080140209,0.00760611346321075,0.018773911626905213
0.9580000000000001,0.0002,-0.333,0.004887968581118912,0.7976649043485046,0.0077361895233619285,0.018946369897266818
0.959,-0.0019,-0.333,0.004881441426801614,0.7976649043485047,0.007698057132683804,0.018946369897266828
0.9600000000000001,0.0046,-0.333,0.004907642503930615,0.7994915360064831,0.007851126856594417,0.01911843324168589
0.961,0.0002,-0.333,0.004973611566555298,0.799491536006483,0.008236525752711747,0.01911843324168588
0.9620000000000001,-0.0052,1.667,0.004889562562537168,0.7994915360064822,0.007745501747222413,0.019118433241685794
0.963,-0.003,-0.333,0.004967861639329554,0.8013140037854704,0.008202934012623456,0.0192901043609172
0.9640000000000001,-0.0023,0.667,0.00501878367330808,0.7994915360064822,0.008500426426530067,0.019118433241685794
0.965,-0.0037,-2.333,0.005029900358640523,0.7994915360064822,0.008565371388382597,0.019118433241685794
0.9660000000000001,-0.003999999999998224,-0.333,0.005001766596269654,0.8154885340575813,0.008401010693687755,0.020625303536698354
0.967,0.004,-0.333,0.005014302357432117,0.8136978140948188,0.008474246060718667,0.020456622968634687
0.9680000000000001,0.0007000000000005773,0.667,0.005021114137314511,0.8136978140948188,0.008514041266877721,0.020456622968634687
0.969,0.0033,0.667,0.005052162529860852,0.8119031445597373,0.008695429568264627,0.020287570362443212
0.9700000000000001,0.0025999999999987786,1.667,0.0050482682193968885,0.8101044992032149,0.008672678555983483,0.020118143245533633
0.971,-0.0029,-0.333,0.00499434034986299,0.8119031445597363,0.008357625703003461,0.02028757036244312
0.9720000000000001,-0.0006999999999975797,-0.333,0.004972947383216555,0.8119031445597353,0.008232645516804391,0.020287570362443025
0.973,0.0102,-0.333,0.004939389345248544,0.8119031445597352,0.008036595576511683,0.020287570362443014
0.9740000000000001,-0.00030000000000144326,0.667,0.004925541672265354,0.8258959575289676,0.007955695868842979,0.021605652301294912
0.975,-0.0068,0.667,0.004905988401223247,0.8648346464475642,0.007841463397207232,0.02527356258488318
0.9760000000000001,-0.0006000000000017097,-0.333,0.004937929186252668,0.9020941185538661,0.008028065158725275,0.028783295570127727
0.977,-0.0083,-0.333,0.004952175068572765,0.9020941185538661,0.008111291251410855,0.028783295570127727
0.9780000000000001,-0.0016999999999998444,0.667,0.004966141063840458,0.9020941185538662,0.008192882211554876,0.028783295570127737
0.979,-0.001,0.667,0.004950677908632779,0.9004756422095938,0.008102544669828144,0.028630839845711544
0.9800000000000001,-0.006399999999999201,0.667,0.0049321087070457,0.8988542516426586,0.007994061245800184,0.02847810961006835
0.981,-0.0028,0.667,0.004907196841497943,0.8988542516426586,0.007848523245102013,0.02847810961006835
0.9820000000000001,0.006600000000001932,0.667,0.004908991063214914,0.8988542516426586,0.007859005295954308,0.02847810961006835
0.983,0.0153,-1.333,0.004923216331379977,0.9004756422095938,0.007942110958361235,0.028630839845711544
0.9840000000000001,0.012099999999998556,-0.333,0.00500209228342833,0.8988542516426584,0.008402913395748985,0.02847810961006833
0.985,0.0056,-0.333,0.004985749427909915,0.8988542516426584,0.008307436543030369,0.02847810961006833
0.9860000000000001,0.006299999999997269,-0.333,0.004981951427841278,0.8988542516426586,0.008285248187221313,0.02847810961006835
0.987,-0.006,-0.333,0.0050263368853349505,0.8988542516426586,0.008544553165056845,0.02847810961006835
0.9880000000000001,-0.0005000000000010437,0.667,0.005045357663296579,0.9004756422095938,0.008655674750509865,0.028630839845711544
0.989,-0.0052,-0.333,0.005089829148922641,0.9004756422095942,0.00891548231464781,0.028630839845711586
0.9900000000000001,-0.0066999999999992005,0.667,0.005167044577651924,0.9004756422095942,0.009366583782691977,0.028630839845711586
0.991,-0.0031,0.667,0.005199750641716238,0.9131121501379119,0.009557656392870513,0.029821161827939018
0.9920000000000001,0.0005999999999997557,-1.333,0.005126704079467815,0.9331968614460653,0.009130909925122846,0.031713082721939484
0.993,-0.0005,-0.333,0.005113844717608901,0.9347586847574535,0.009055784045384417,0.03186020189682913
0.9940000000000001,-0.005200000000000577,0.667,0.005123135843719253,0.9347586847574542,0.00911006387905416,0.03186020189682919
0.995,-0.0078,0.667,0.00511485066819199,0.9347586847574543,0.009061660925073867,0.031860201896829206
0.9960000000000001,-9.999999999895639e-05,-0.333,0.005127637253610547,0.9363179028760379,0.009136361636427885,0.03200707567019805
0.997,0.0046,-0.333,0.0051401460151599,0.9287228048667577,0.009209439268595302,0.031291639715193546
0.9980000000000001,0.005299999999999134,-0.333,0.005127988280467762,0.9287228048667582,0.009138412375939646,0.03129163971519359
0.999,0.0014,0.667,0.005057465974671371,0.9271508139255897,0.008726412906427575,0.031143562779401703
1.0,0.0035999999999998446,-0.333,0.005051307363065566,0.9271508139255897,0.00869043358490839,0.031143562779401703
1.001,0.0029,-0.33299999999955593,0.004982333797264306,0.9271508139255902,0.008287482033628717,0.031143562779401744
1.0019999999999998,0.0033,1.667,0.0049317515065938865,0.9255761531317618,0.00799197443943453,0.030995234351320334
1.0030000000000001,0.0018,-2.332999999999334,0.00500097199284309,0.9178921768266612,0.008396368528538447,0.030271426321541846
1.004,0.0022,0.667,0.005071335028331466,0.9178921768266614,0.008807437522484387,0.030271426321541856
1.005,0.0033,-0.3330000000004441,0.005138041469601716,0.9194799969527798,0.009197144269959847,0.030420994320126855
1.0059999999999998,0.0004,-2.333,0.005129961373795742,0.9178921768266601,0.00914993941543794,0.03027142632154174
1.0070000000000001,0.0047,0.667,0.005145879922942175,0.881300865338398,0.009242937421241484,0.026824632106709323
1.008,-0.0036,0.667,0.005149584751487549,0.9115132375411866,0.009264581458232194,0.0296705489511586
1.009,0.0051,0.667,0.005165952156673407,0.9484770064492368,0.009360201732948279,0.03315242756246609
1.0099999999999998,-0.0094,0.667,0.0051887796706433335,0.9500137095219217,0.009493562710580558,0.033297180484551006
1.0110000000000001,-0.0036,-0.332999999999778,0.005180640940005954,0.9515479308980178,0.009446015304589852,0.03344169963809643
1.012,-0.009,0.667,0.005226152290531043,0.9530796825622689,0.009711897879774655,0.03358598615203005
1.013,-0.0076,-0.333,0.00520050661797088,0.9394285754008137,0.009562072893612498,0.03230009189800051
1.0139999999999998,-0.0061,-0.333,0.005193064969035253,0.9409800554721118,0.00951859791957201,0.03244623677001183
1.0150000000000001,-0.005,1.666999999999556,0.00522966236230322,0.9409800554721118,0.00973240412516404,0.03244623677001183
1.016,0.0037,-0.333,0.005268679933316095,0.9117446450787041,0.009960349289143303,0.029692346862442535
1.017,0.0026,-0.333,0.005295951283516145,0.9133431525699356,0.010119671672159793,0.02984292157947366
1.0179999999999998,0.0073,-0.333,0.005282349075461103,0.9133431525699356,0.010040205999000297,0.02984292157947366
1.0190000000000001,-0.001,-0.332999999999778,0.00528559585218859,0.9133431525699356,0.010059174044276793,0.02984292157947366
1.02,0.0023,0.667,0.005349986765002193,0.9117446450787041,0.010435353206614394,0.029692346862442535
1.021,0.003,-0.332999999999778,0.005365880060494374,0.89908891735634,0.01052820367764809,0.028500214431990238
1.0219999999999998,0.0023,0.667,0.005373891738292915,0.89908891735634,0.01057500882625498,0.028500214431990238
1.0230000000000001,-0.0031,1.667000000000222,0.005379811876098589,0.89908891735634,0.010609594956243666,0.028500214431990238
1.024,0.0005,2.667,0.005297184703615593,0.9133431525699356,0.010126877455080806,0.02984292157947366
1.025,0.0056,2.667,0.005297201237369222,0.9117446450787041,0.010126974047182375,0.029692346862442535
1.0259999999999998,0.0041,-0.333,0.005255467141025788,0.9242270902469742,0.009883158627934688,0.0308681565845608
1.0270000000000001,-0.0042,0.667,0.005328071034547681,0.9242270902469742,0.010307318973767592,0.0308681565845608
1.028,-0.0031,-0.333,0.005268215314397853,0.9380994336315218,0.009957634931669037,0.03217489064188929
1.029,0.0001,-0.333,0.0052983078849843206,0.9502357412223973,0.010133439210582927,0.03331809521948622
1.0299999999999998,-0.0006,-0.333,0.005536222369608241,0.9502357412223972,0.011523363155175645,0.03331809521948621
1.0310000000000001,-0.0031,0.667,0.005512287834823318,0.9502357412223972,0.011383534833865835,0.03331809521948621
1.032,-0.0038,0.667,0.005521354975476843,0.9486993977966793,0.011436506118582887,0.03317337617509069
1.033,-0.0089,-0.333,0.005492659843367755,0.9471605623457331,0.011268865836929928,0.03302842238922811
1.0339999999999998,0.002,-0.333,0.0053046376239392085,0.9380994336315218,0.010170418277873962,0.03217489064188929
1.0350000000000001,-0.0056,-0.333,0.005174264548189732,0.9517696046907441,0.009408763685885415,0.033462580659171445
1.036,0.0067,0.667,0.005191321829063331,0.9533010001724912,0.00950841429418417,0.033606833621757926
1.037,0.0053,0.667,0.005163423913264797,0.9548299395424132,0.009345431442451084,0.03375085522581459
1.0379999999999998,0.0067,-0.333,0.005147580276288676,0.9563564345803635,0.009252871082213433,0.033894646580969086
1.0390000000000001,0.0103,0.667,0.005158012415549284,0.9548299395424131,0.009313816846716028,0.033750855225814586
1.04,-0.006,1.667,0.005224889587650225,0.9563564345803633,0.009704521023457018,0.03389464658096907
1.041,-0.0039,-2.333,0.005210153903354214,0.9637337790748397,0.009618433450960704,0.03458957079358014
1.0419999999999998,-0.0021,0.667,0.005202933541175567,0.9755512356850194,0.009576251259756176,0.03570274054402942
1.0430000000000001,0.0033,0.667,0.00522668173672179,0.9667562412331586,0.009714990965675059,0.03487427786359553
1.044,0.0019,-0.333,0.005259489090422941,0.9800267664694973,0.009906655321630658,0.03612432241657835
1.045,-0.0086,0.667,0.0052359722761146366,0.9785371972898945,0.009769267371673255,0.03598400936897156
1.0459999999999998,-0.0076,0.667,0.005203668391090224,0.977045357167857,0.009580544337975767,0.0358434824052484
1.0470000000000002,-0.0065,-0.333,0.005277302799007267,0.977045357167857,0.010010725068130078,0.0358434824052484
1.048,0.0004,-0.333,0.005267977723900929,0.977045357167857,0.00995624690049807,0.0358434824052484
1.049,-0.0029,-0.333,0.005250347324508238,0.977045357167857,0.009853248067504065,0.0358434824052484
1.0499999999999998,0.0018,-0.333,0.0052575025716321035,0.977045357167857,0.009895049849025101,0.0358434824052484
1.0510000000000002,-0.0007,-0.333,0.005250617388534816,0.977045357167857,0.009854825812792284,0.0358434824052484
1.052,0.0083,0.667,0.005262791964492244,0.9770453571678586,0.009925951094068203,0.035843482405248546
1.053,0.0094,-0.333,0.005339617822810702,0.9652461931790105,0.010374776646701145,0.03473203576607393
1.0539999999999998,0.0083,0.667,0.005379867860992146,0.938324284560883,0.010609922026468975,0.03219607093991634
1.0550000000000002,-0.0048,-0.333,0.005475269137033536,0.9458422859881555,0.011167267318514704,0.03290424462303062
1.056,0.0042,0.667,0.005476516275085303,0.9473832627189447,0.01117455324330026,0.03304940011117374
1.057,0.0027,-2.333,0.005482458817578037,0.9199387458032643,0.011209270264062855,0.030464207116268863
1.0579999999999998,0.0041,2.667,0.005523574610891,0.9199387458032643,0.01144947348547221,0.030464207116268863
1.0590000000000002,0.0052,0.667,0.00551625644802125,0.9199387458032642,0.011406719931315245,0.030464207116268852
1.06,-0.0036,0.667,0.0055228799585694995,0.9199387458032642,0.011445415246242483,0.030464207116268852
1.061,-0.0069,0.667,0.005446935378391479,0.9199387458032642,0.011001738222465095,0.030464207116268852
1.0619999999999998,-0.0004,-0.333,0.005444448713416022,0.9199387458032652,0.01098721083798478,0.030464207116268946
1.0630000000000002,-0.0011,0.667,0.005375538988184653,0.9276057691695817,0.01058463225070042,0.031186418228939285
1.064,-0.0066,0.667,0.005321763557684915,0.9276057691695817,0.010270469964194336,0.031186418228939285
1.065,-0.0074,-0.333,0.005313210038874102,0.9367684060001142,0.01022049931770568,0.032049511743098266
1.0659999999999998,-0.0067,0.667,0.0052921445103731105,0.9244553152875009,0.010097432063035112,0.0308896547139629
