time_sec,bts_raw,diy_raw,bts_rms,diy_rms,bts_norm_rms,diy_norm_rms
0.0,-0.0206,-0.699,0.03373592939004186,0.6946403191794881,0.08905849872398143,0.0
0.001000000000000112,-0.0076,0.301,0.0338273313997177,0.7442251657974178,0.08933854353890876,0.003589452068285296
0.0020000000000000018,-0.0118,0.301,0.03381294778703334,0.7449517263367128,0.08929447387166113,0.003642047859305931
0.0030000000000001137,-0.0082,0.301,0.033820231308598396,0.7567124526536154,0.08931678970974762,0.004493408028432253
0.0040000000000000036,-0.0051,0.301,0.03379162546587434,0.7574270348798653,0.08922914483235478,0.004545136708158471
0.0050000000000001155,-0.0023,1.301,0.033733231715800005,0.7756418772903284,0.08905023337307205,0.005863710994926274
0.006000000000000005,-0.0212,0.301,0.033733921628570925,0.7763390360997696,0.08905234718320525,0.005914178391745188
0.007000000000000117,-0.0093,1.301,0.03377207919908937,0.7792339776184216,0.08916925741101986,0.006123743501460238
0.008000000000000007,0.0244,0.301,0.03352777638285032,0.782118203839889,0.08842074283018596,0.006332532929726919
0.009000000000000119,-0.009,-0.6990000000000017,0.03353205308834201,0.7933281453514276,0.088433846143802,0.007144021731013234
0.010000000000000009,-0.0222,-1.699,0.03315810455675493,0.804381879231337,0.08728811261242726,0.007944202646026268
0.01100000000000012,0.0136,1.301,0.0330115942318075,0.807176251223018,0.08683922251711804,0.008146487517498895
0.01200000000000001,0.0183,1.301,0.03292041130150411,0.8242924900652708,0.08655984893515954,0.009385533780704919
0.013000000000000123,0.0226,1.301,0.03296413028731578,0.824948535572892,0.08669379867361562,0.00943302498144141
0.014000000000000012,-0.0213,1.301,0.032503134342826506,0.8355840758253239,0.08528136229049235,0.010202932817409563
0.015000000000000124,-0.0507,-1.699,0.03251828217481867,0.8521298940962116,0.08532777343420614,0.011400686277686181
0.016000000000000014,0.0185,-1.699,0.03260267414866334,0.854768184547792,0.08558634033859368,0.011591672390664056
0.017000000000000126,0.0091,-1.699,0.032854666583196225,0.8573983567851268,0.08635841498927282,0.011782070825290532
0.018000000000000016,0.0008,-1.6989999999999965,0.03288495957611906,0.8580290900567941,0.0864512290928878,0.01182772967070287
0.019000000000000128,-0.0068,-0.699,0.03296979748386429,0.8586593600197605,0.0867111622853591,0.011873354977151434
0.020000000000000018,0.0001,-0.699,0.03341924627085398,0.8592891676935065,0.0880882195603383,0.01191894681843651
0.02100000000000013,0.019,0.301,0.0335793397592108,0.8599185140937796,0.08857872684214706,0.01196450526808817
0.02200000000000002,0.0132,0.301,0.03330307550765536,0.8605474002326126,0.08773228624995155,0.012010030399367563
0.02300000000000013,-0.0023,1.301,0.03466868512232079,0.8707482354137215,0.09191635061744471,0.012748469891198698
0.02400000000000002,-0.0071,0.301,0.03630711895673989,0.8713693055426983,0.09693631573153601,0.012793429220733057
0.025000000000000133,0.0058,0.301,0.037059841334904475,0.8814449092660107,0.09924256698172566,0.013522803194651718
0.026000000000000023,0.0096,0.30099999999999305,0.03703560840702137,0.8820584477441507,0.09916832019187674,0.01356721730721924
0.027000000000000135,-0.0303,-1.699,0.03702442569165239,0.8826715597563315,0.09913405769078952,0.013611600547872794
0.028000000000000025,-0.0355,0.301,0.037033948429636705,0.8832842461906187,0.0991632342199039,0.013655952980899529
0.029000000000000137,0.0173,0.301,0.03702945513029862,0.8858297536610729,0.0991494672886733,0.01384022252447725
0.030000000000000027,0.0383,-0.699,0.0369239648198923,0.8864402572294938,0.09882625760697007,0.01388441693962286
0.03100000000000014,0.0828,-0.699,0.03635417594904967,0.8889767277830161,0.09708049272227358,0.014068032299868685
0.03200000000000003,0.0298,-0.699,0.03591441778165603,0.8915059817199803,0.09573312634556817,0.014251125248511028
0.03300000000000014,-0.0196,-0.699,0.03492908908808452,0.8921126008572912,0.09271419719278014,0.014295038469295189
0.03400000000000003,-0.0384,0.301,0.0348173688962977,0.8927188077856403,0.09237189990037327,0.014338921850230862
0.03500000000000014,-0.0441,1.301,0.03351547767893874,0.8952374895394642,0.08838306107381123,0.014521249477465003
0.03600000000000003,-0.0284,0.30100000000000693,0.031645006972079975,0.9050474153909971,0.08265216276219904,0.01523139100333951
0.037000000000000144,-0.0616,1.301,0.03097316659507803,0.9203452790912138,0.08059372428031585,0.016338804905860965
0.038000000000000034,-0.0047,1.301,0.03091594116556394,0.9353929876715151,0.08041839241535746,0.017428110053917752
0.039000000000000146,0.0496,0.301,0.03093781482941156,0.935971163311615,0.08048541070265458,0.01746996424705825
0.040000000000000036,0.0564,-0.699,0.030903614256611076,0.9383737589327641,0.08038062424211298,0.017643888387391646
0.04100000000000015,0.0118,-0.699,0.030936329911199306,0.9407702186805833,0.0804808610910278,0.017817368351233293
0.04200000000000004,-0.0292,-0.699,0.03077181254958379,0.9554963176254908,0.07997679959118392,0.018883392145213503
0.04300000000000015,0.0078,-1.6989999999999863,0.030522254000620332,0.9699988771310165,0.07921218207450284,0.01993323389653832
0.04400000000000004,0.0799,0.301,0.03056821747391122,0.9842877781802398,0.07935300865388346,0.020967608890573544
0.04500000000000015,0.0491,-0.699,0.030574394771983683,0.9848372492147358,0.07937193515562657,0.02100738515440737
0.04600000000000004,-0.0169,-0.699,0.030546530313497126,0.9853864138533175,0.07928656179077834,0.021047139238209927
0.04700000000000015,-0.0253,-1.699,0.03053923643485267,0.985935272607972,0.07926421421984052,0.021086871179044016
0.04800000000000004,-0.0021,0.301,0.03054444828527811,0.9948512568226257,0.0792801827055773,0.02173230017929256
0.049000000000000155,0.0331,-0.699,0.030737375960547625,0.9971119877447393,0.07987129000515225,0.021895954719695698
0.050000000000000044,0.027,-2.699,0.031176480523443767,1.0512137489871227,0.08121665381592735,0.025812386695087345
0.051000000000000156,-0.0023,0.30100000000000693,0.031270592240448855,1.0746098821660832,0.08150500084970322,0.027506035145312285
0.052000000000000046,-0.0073,1.300999999999993,0.031273546810526874,1.0990649513906343,0.08151405329869886,0.02927634008311931
0.05300000000000016,-0.0025,0.301,0.03271786720049777,1.1229875938324472,0.08593927805841291,0.031008102592203383
0.05400000000000005,-0.0157,-1.699,0.03324542656304399,1.1348761022134959,0.08755565678543865,0.03186871291789413
0.05500000000000016,-0.0117,0.301,0.03324252511138506,1.2682553614301855,0.08754676708491975,0.041524051000327356
0.05600000000000005,-0.0226,-0.699,0.03336141395606595,1.3136126676005657,0.08791102827155733,0.044807470987478226
0.05700000000000016,-0.0323,-0.699,0.03334643325026109,1.3400903654945187,0.08786512918247297,0.04672419421950122
0.05800000000000005,-0.0054,1.301,0.03342010402804833,1.3439144819897548,0.08809084762569043,0.047001022399871674
0.05900000000000016,0.0055,1.3009999999999862,0.03348123814608209,1.345186771656131,0.08827815524432187,0.04709312357766942
0.06000000000000005,-0.0043,-0.699,0.033622973141167196,1.345186771656131,0.08871241430063916,0.04709312357766942
0.061000000000000165,-0.0071,-1.699,0.03363322644695235,1.3413662823509787,0.08874382920203115,0.04681655796995647
0.062000000000000055,-0.0205,0.301,0.03375165328419244,1.345186771656131,0.08910667485318202,0.04709312357766942
0.06300000000000017,-0.0037,1.301,0.03371805216598147,1.3489964410068702,0.08900372504973553,0.04736890592778663
0.06400000000000006,-0.0101,-1.699,0.033711508036891456,1.3527953818149148,0.08898367462167193,0.047643911637611655
0.06500000000000017,-0.0239,-0.699,0.03375420250278329,1.3479235796340483,0.08911448535374997,0.047291241384356
0.06600000000000006,-0.0406,-0.699,0.03338490922862276,1.3479235796340483,0.08798301497379915,0.047291241384356
0.06700000000000017,-0.0339,0.301,0.03341770124477332,1.3479235796340483,0.08808348578539889,0.047291241384356
0.06800000000000006,-0.0281,0.301,0.03340598532426673,1.339207474888269,0.08804758960760578,0.046660281679101696
0.06900000000000017,-0.0556,0.301,0.033506433809865385,1.335369878942181,0.08835535174170948,0.046382477719918984
0.07000000000000006,-0.0436,0.301,0.0335731795241313,1.3402873132699382,0.0885598526193716,0.04673845128890936
0.07100000000000017,0.0109,0.30100000000001387,0.03379362437423,1.345186771656131,0.08923526924824567,0.04709312357766942
0.07200000000000006,0.097,1.3009999999999862,0.03425469803324431,1.351334945489752,0.09064794373936962,0.04753819050413015
0.07300000000000018,0.1084,0.301,0.03453228335713481,1.3574552733570777,0.09149843193903995,0.0479812416582707
0.07400000000000007,0.0777,1.301,0.03454305468152571,1.3574552733570777,0.09153143398742235,0.0479812416582707
0.07500000000000018,0.0307,0.301,0.03465032580193995,1.3574552733570777,0.09186009985778988,0.0479812416582707
0.07600000000000007,0.0054,0.301,0.03467946119435069,1.3635481302205967,0.09194936721202462,0.048422304183663625
0.07700000000000018,0.0132,0.301,0.03617653622697376,1.363548130220597,0.09653622588099824,0.04842230418366364
0.07800000000000007,0.0065,-0.699,0.036278552738752655,1.354932539904195,0.09684879225959289,0.04779862072813137
0.07900000000000018,0.0005999999999986899,0.301,0.03839916034307535,1.354932539904195,0.10334608007845127,0.04779862072813137
0.08000000000000007,-0.0053,-0.699,0.0398022853327881,1.356194493215514,0.10764508706371964,0.04788997365613974
0.08100000000000018,-0.020900000000003152,-0.699,0.04164555968729304,1.3561944932155143,0.11329265900768809,0.04788997365613976
0.08200000000000007,-0.0351,0.301,0.04090451232065459,1.4033985359257874,0.11102217859507309,0.0513070790884383
0.08300000000000018,-0.013300000000002664,0.301,0.04089437824593739,1.4033985359257874,0.11099112900339887,0.0513070790884383
0.08400000000000007,-0.0253,-0.699,0.04086435195306677,1.411718373605549,0.11089913203681435,0.051909352980652364
0.08500000000000019,-0.03609999999998908,1.301,0.041187611706732886,1.4129296097514374,0.11188956122113902,0.05199703448791892
0.08600000000000008,0.0131,-1.699,0.04101366443445589,1.4165571041517908,0.1113566076039846,0.05225962917492827
0.08700000000000019,-0.007999999999992917,-1.6989999999999723,0.040941135368272,1.4165571041517908,0.11113438722843318,0.05225962917492827
0.08800000000000008,0.0239,0.301,0.04055688783136729,1.4106932143665256,0.10995709877777014,0.05183514159951836
0.08900000000000019,0.02969999999999658,-0.699,0.04071480496487188,1.4048048479403157,0.11044093796886656,0.05140888215759164
0.09000000000000008,0.0143,-0.699,0.04050101341323105,1.40602203984627,0.10978590624992936,0.051496994802932516
0.09100000000000019,0.00029999999999709117,-1.699,0.040137870110318795,1.4106932143665258,0.10867327864560396,0.051835141599518374
0.09200000000000008,-0.0128,-1.699,0.04012873068427352,1.4153489723690247,0.10864527653838041,0.05217217239282252
0.0930000000000002,-0.016799999999994358,-1.699,0.04002225338262524,1.4141398084521917,0.10831904283367517,0.052084640894427145
0.09400000000000008,0.0086,0.301,0.040054012761377156,1.4046169464930631,0.1084163497679136,0.05139527995279565
0.0950000000000002,0.01189999999999929,0.301,0.039320849768677626,1.4105060973418881,0.1061700261331241,0.051821596179154925
0.09600000000000009,0.0087,0.301,0.039058037586343256,1.4151624709428026,0.1053648010705298,0.05215867153569072
0.0970000000000002,-0.01810000000000402,1.301,0.03904653731844745,1.4151624709428026,0.10532956562651803,0.05215867153569072
0.09800000000000009,-0.0362,-0.699,0.038964413969993394,1.4056465372529585,0.10507794951872575,0.05146981213217437
0.0990000000000002,-0.052499999999995405,3.301,0.03896721381861506,1.4056465372529583,0.10508652791970248,0.05146981213217436
0.10000000000000009,-0.0318,2.301,0.03894658809332852,1.4139531475363973,0.10502333316675236,0.05207112849182906
0.1010000000000002,0.008800000000019563,2.301,0.038879214150463866,1.3901154167745855,0.10481690747187572,0.05034551274785953
0.10200000000000009,0.0969,2.3009999999999446,0.03892138497708573,1.3960657420829174,0.10494611383592105,0.05077625739953784
0.1030000000000002,0.059599999999987364,-1.6990000000000556,0.038917895053113404,1.399736940795693,0.10493542112668625,0.0510420158461495
0.10400000000000009,0.0027,-5.698999999999972,0.03892289854096243,1.4009585358478454,0.10495075121443423,0.05113044723568959
0.1050000000000002,-0.02819999999999789,-3.699,0.03889225927109377,1.3913454595071753,0.1048568761597138,0.050434555665842006
0.1060000000000001,-0.0187,-2.699,0.03892310585709097,1.3913454595071753,0.10495138640623201,0.050434555665842006
0.10699999999999998,0.0241,-1.699,0.038872333721689876,1.4290405609162469,0.10479582666184248,0.05316330787434617
0.1080000000000001,0.0317,-0.699,0.03873844954720771,1.4278429917210675,0.10438562157994628,0.05307661571902554
0.10899999999999999,-0.0321,-0.699,0.0387346514925715,1.42202564138057,0.10437398479524698,0.05265549713873556
0.1100000000000001,-0.0237,1.301,0.03881116395197083,1.4173918146431943,0.10460840981071558,0.052320053951934724
0.11099999999999999,-0.0313,-1.699,0.03881818776341799,1.4173918146431943,0.10462992992809353,0.052320053951934724
0.1120000000000001,-0.0103,-1.699,0.03897240152287423,1.4078909491661,0.1051024224244766,0.05163228533786534
0.11299999999999999,0.0216,-1.699,0.03911281134582308,1.4326272620449396,0.10553262131201904,0.05342294953228874
0.1140000000000001,0.0273,-0.699,0.03912199499102526,1.4280278370634396,0.1055607589014454,0.05308999669207972
0.11499999999999999,-0.0097,-1.699,0.03912359558412206,1.419803573629547,0.10556566292706973,0.0524946414292032
0.1160000000000001,0.0237,-1.699,0.039076245067438446,1.4185982066654321,0.1054205866127917,0.05240738479259963
0.11699999999999999,0.002,-0.699,0.03893801741147377,1.4232281055687013,0.10499707362363807,0.05274254364309171
0.1180000000000001,-0.0259,1.301,0.03898377980620435,1.4244295546700534,0.1051372841223832,0.05282951666521312
0.119,-0.0222,1.301,0.038909647936671315,1.4302371273605905,0.10491015294925887,0.05324992744043225
0.1200000000000001,-0.0385,1.301,0.03853927129863479,1.439590522320281,0.10377536327209319,0.05392702064881197
0.121,-0.0591,1.301,0.038292659035238374,1.4407783270479997,0.10301977282165792,0.05401300595334425
0.12200000000000011,-0.0456,1.301,0.03830716348910873,1.4407783270479997,0.10306421273183224,0.05401300595334425
0.123,-0.0089,1.301,0.0371189227463709,1.4350134157658894,0.0994235853531864,0.053595683441801586
0.12400000000000011,0.0282,0.301,0.03567467729407253,1.4362050059670932,0.09499859019352937,0.05368194277714282
0.125,-0.0153,1.301,0.03484468946538961,1.4304216633223192,0.09245560685323118,0.05326328601739033
0.1260000000000001,-0.1034,0.301,0.0348427011672645,1.4397738594569265,0.09244951494581642,0.05394029244270087
0.127,-0.0407,-0.699,0.03502548662265223,1.4455197856268316,0.09300954769790802,0.05435624062004831
0.1280000000000001,0.1308,0.301,0.035138080180346636,1.4512429620507339,0.09335452087889566,0.054770541940978676
0.129,0.1062,-0.699,0.03661473110306112,1.4557690419252918,0.09787880252029964,0.05509818532146826
0.13000000000000012,0.1284,-0.699,0.03831686501434213,1.4614520819004737,0.10309393704367324,0.05550958116081101
0.131,0.0271,-3.699,0.03832636256968116,1.5541281457042442,0.10312303641617734,0.06221841080516241
0.13200000000000012,-0.0283,-0.699,0.03940819532361876,1.5879638000668346,0.10643764245638618,0.06466777725111346
0.133,-0.0118,-1.699,0.04003566387310029,1.6221482925775137,0.10836013097097642,0.06714239612593259
0.13400000000000012,0.0643,-0.699,0.04053416697994012,1.6304010900958845,0.10988748480915525,0.06773981697407422
0.135,0.0228,-1.699,0.040546666647469,1.6304010900958845,0.10992578229399384,0.06773981697407422
0.13600000000000012,-0.0146,0.301,0.04041724820649855,1.6263610749337167,0.10952925968493647,0.06744735986733985
0.137,-0.0258,0.301,0.04185557059840665,1.6396559583633412,0.11393610729667111,0.06840977782522502
0.13800000000000012,-0.0361,0.301,0.0424654973288145,1.6396559583633414,0.11580484977773976,0.06840977782522505
0.139,-0.0268,-0.699,0.0425698049344579,1.6478210744101174,0.11612443579364373,0.06900085140275813
0.14000000000000012,0.0158,1.301,0.04248758115362386,1.6868841811104498,0.115872511973063,0.07182863365283887
0.14100000000000001,0.0081,1.3009999999999722,0.04266629831651468,1.693812137227008,0.11642007996400319,0.07233014909773243
0.14200000000000013,0.0012,0.301,0.042696417270851626,1.6907795861693404,0.11651236083422703,0.07211062241955188
0.14300000000000002,-0.0177,0.30100000000002775,0.04274419113494925,1.6907795861693404,0.1166587342342981,0.07211062241955188
0.14400000000000013,-0.0236,1.301,0.04272534547440255,1.6838391530280181,0.11660099338660011,0.07160820376157206
0.14500000000000002,-0.0186,1.301,0.04293027955692422,1.6838391530280181,0.11722888688057927,0.07160820376157206
0.14600000000000013,-0.014,-0.699,0.04298759662813752,1.6838391530280183,0.11740449952473261,0.07160820376157208
0.14700000000000002,-0.0011,0.301,0.04332601861166664,1.6917910405082004,0.11844138396612364,0.07218384170157512
0.14800000000000013,-0.0051,0.301,0.04377387498759899,1.687897969729665,0.11981356228426784,0.07190202191365341
0.14900000000000002,-0.0305,-1.699,0.04373319049058888,1.6878979697296648,0.11968890985620838,0.0719020219136534
0.15000000000000013,-0.0142,-0.699,0.043416489420789316,1.656105316447277,0.1187185756940401,0.06960054852279936
0.15100000000000002,0.0183,1.301,0.0433093007474144,1.6410206477602571,0.11839016243153044,0.06850856782887416
0.15200000000000014,0.0052,-1.699,0.04333124058683381,1.6298374403946996,0.11845738347285692,0.06769901431512286
0.15300000000000002,-0.0067,-0.699,0.042243959449774986,1.6145073642826493,0.11512608423904931,0.06658926855284653
0.15400000000000014,-0.003,0.301,0.041851529824924086,1.606172904095073,0.11392372685048506,0.06598593613581087
0.15500000000000003,-0.0194,0.301,0.04186109573015382,1.503084662761245,0.11395303563887138,0.058523367905584656
0.15600000000000014,-0.0108,3.301,0.04185124535003445,1.4671131080984787,0.11392285525348077,0.05591938342059453
0.15700000000000003,0.0026,0.301,0.04186574893763905,1.4487013525937529,0.11396729250952052,0.054586554574991036
0.15800000000000014,0.0004,0.301,0.04179709643578313,1.4770338622803127,0.11375694946296472,0.056637547820523465
0.15900000000000003,0.025,-0.699,0.04170456632846955,1.4770338622803123,0.11347344829193208,0.05663754782052344
0.16000000000000014,0.0086,-0.699,0.04160037283669721,1.4937754460132682,0.11315421190726724,0.05784947276242495
0.16100000000000003,0.0354,0.301,0.041600372836697166,1.4937754460132682,0.11315421190726711,0.05784947276242495
0.16200000000000014,0.039,-2.699,0.04148675765402875,1.4847634328870147,0.11280610858966882,0.05719709221954055
0.16300000000000003,0.0093,-0.699,0.04147455196893677,1.4756963848179365,0.11276871183182108,0.05654072769157151
0.16400000000000015,-0.0107,-0.699,0.0415272277585102,1.4677392494676547,0.11293010414468771,0.05596470985772048
0.16500000000000004,-0.0142,0.301,0.04187749439936439,1.4677392494676547,0.11400327919807117,0.05596470985772048
0.16600000000000015,-0.0239,1.301,0.04189961411449562,1.4585663759164917,0.11407105135704382,0.05530068461238604
0.16700000000000004,-0.0388,-0.699,0.04244044401274118,1.4550436164402802,0.11572808941669352,0.05504567169714216
0.16800000000000015,-0.0146,1.301,0.04257888165491928,1.4595579105571328,0.11615224577846538,0.055372461905437875
0.16900000000000004,0.0151,-1.699,0.04256180512836665,1.4630698006180232,0.11609992534552313,0.05562668798260589
0.17000000000000015,0.0031,-0.699,0.04251127447847992,1.4585663759164915,0.11594510548383875,0.05530068461238603
0.17100000000000004,-0.0151,0.301,0.04272984283311255,1.462080647626774,0.11661477275526028,0.05555508309739472
0.17200000000000015,0.021,0.30099999999997223,0.042442982860743717,1.4564000603891705,0.11573586814302045,0.05514386481197367
0.17300000000000004,0.0351,-0.6989999999999722,0.042254418856891435,1.4506972294860263,0.11515813061024578,0.05473103630535144
0.17400000000000015,0.0134,0.3009999999999445,0.042344639935061004,1.4542305177821675,0.11543455719241992,0.05498681140293632
0.17500000000000004,-0.0304,-1.6989999999999168,0.042520820576509404,1.4542305177821675,0.11597435358533484,0.05498681140293632
0.17600000000000016,-0.0361,1.301,0.04260201802178272,1.4496996345183701,0.11622313283663119,0.05465882030461323
0.17700000000000005,-0.031,1.301,0.04140483124619762,1.4554063743799677,0.11255509588436731,0.055071931781133766
0.17800000000000016,-0.1031,1.301,0.04149708152004514,1.4634305690133358,0.1128377396791618,0.055652804043278714
0.17900000000000005,-0.1129,1.301,0.03939498897455042,1.4634305690133358,0.10639717978391514,0.055652804043278714
0.18000000000000016,0.0101,5.301,0.038224358959603695,1.467919070946689,0.10281050956685127,0.055977727152798855
0.18100000000000005,0.0941,3.301,0.03609380888723477,1.467919070946689,0.0962827592162192,0.055977727152798855
0.18200000000000016,0.0789,3.301,0.03941937896122524,1.42747322922874,0.10647190778309869,0.05304984857475894
0.18300000000000005,0.0648,-1.699,0.03991074018757038,1.4262743440263776,0.10797737975447326,0.05296306115354505
0.18400000000000016,0.0273,-0.699,0.03993728552820206,1.4354696936823372,0.10805871150013996,0.05362871344638195
0.18500000000000005,0.0161,-0.699,0.03941875446377669,1.435469693682337,0.10646999439768164,0.05362871344638193
0.18600000000000017,0.1096,-2.699,0.03936501621638008,1.4354696936823363,0.10630534684124307,0.053628713446381884
0.18700000000000006,0.0722,-1.699,0.04122000062137269,1.4412327798602171,0.11198879697796942,0.054045903838444535
0.18800000000000017,0.0382,-1.699,0.04340576117263254,1.4788130302824096,0.11868570562608194,0.0567663419723772
0.18900000000000006,-0.0134,-3.699,0.045014935381656684,1.4799693558550104,0.12361602275094813,0.0568500484976825
0.19000000000000017,-0.0415,-1.699,0.04495655826984441,1.5405202743182629,0.1234371622693084,0.061233335617419296
0.19100000000000006,-0.016,1.301,0.049910677306107355,1.543848005082163,0.13861598988544646,0.061474230384427786
0.19200000000000017,-0.0239,-1.699,0.05173897094621516,1.5611380226436051,0.14421766271400482,0.06272585650671504
0.19300000000000006,0.0111,-0.699,0.052936429619686615,1.5697116159401037,0.14788653272884067,0.06334649979372332
0.19400000000000017,0.0428,0.301,0.05366278378563197,1.5708010290785221,0.1501119949336134,0.06342536252114173
0.19500000000000006,0.0252,0.301,0.05368834529310945,1.5740647445911182,0.15019031233228092,0.0636616232176253
0.19600000000000017,-0.0547,-1.699,0.05386550768676129,1.5740647445911182,0.15073311669641104,0.0636616232176253
0.19700000000000006,-0.065,-0.699,0.05396900568271879,1.5729775918390732,0.1510502221651645,0.06358292411980537
0.19800000000000018,-0.0309,-0.699,0.05400948132505634,1.581487001496236,0.15117423468751148,0.06419892114666206
0.19900000000000007,-0.0002,-0.699,0.05401188675406612,1.581487001496236,0.1511816046340176,0.06419892114666206
0.20000000000000018,0.0092,-0.699,0.05392796741285873,1.5740647445911182,0.15092448581944676,0.0636616232176253
0.20100000000000007,-0.0163,1.301,0.05405196567857145,1.5729775918390732,0.15130440166042203,0.06358292411980537
0.20200000000000018,-0.0088,-0.699,0.05453700272771603,1.5729775918390732,0.1527904971099895,0.06358292411980537
0.20300000000000007,-0.0157,0.301,0.05658477420032662,1.5813200945667005,0.15906462374128016,0.06418683873712981
0.20400000000000018,-0.009300000000003862,0.3009999999999445,0.05683726272147064,1.5854748846975575,0.15983821834194395,0.0644876044154712
0.20500000000000007,-0.0267,-1.6989999999999168,0.0569378375097628,1.5939175767524614,0.16014636745237948,0.06509877174834368
0.20600000000000018,-0.021699999999994692,1.3010000000000554,0.05695096744338644,1.5949904567793785,0.1601865959970765,0.06517643764214613
0.20700000000000007,0.0022,3.300999999999889,0.0569459122567341,1.5771543592667598,0.1601711075103846,0.06388528073688998
0.20800000000000018,0.015199999999993783,-0.6989999999999167,0.05747249107625411,1.578238634899994,0.1617844819709694,0.0639637715597878
0.20900000000000007,-0.0128,2.301,0.05752698696916309,1.5867198303937282,0.16195145086255197,0.06457772616049658
0.2100000000000002,-0.02369999999999336,1.301,0.0587458694558229,1.5856413542878633,0.16568596087612142,0.06449965516597235
0.21100000000000008,0.0062,0.301,0.05975037727110517,1.5897848511525525,0.16876365256169193,0.06479960332363216
0.2120000000000002,0.0023999999999928055,0.301,0.060120784407163744,1.5949904567793787,0.1698985356811459,0.06517643764214616
0.21300000000000008,-0.03,-0.699,0.060292317202388916,1.5728097818893207,0.17042409162967662,0.06357077634054815
0.2140000000000002,-0.06049999999999027,-0.699,0.060428309275072735,1.580237933269413,0.17084075505930346,0.06410850097122528
0.21500000000000008,-0.0167,0.301,0.06140366852635525,1.584395561174633,0.17382913903446742,0.06440947207634022
0.2160000000000002,0.07159999999999174,1.301,0.06203093626800544,1.5896188154815694,0.17575101229790327,0.06478758398459473
0.21700000000000008,0.0344,1.301,0.06478069519603964,1.584395561174633,0.18417594445012953,0.06440947207634022
0.2180000000000002,0.022999999999993116,-1.699,0.06635779195290963,1.5843955611746328,0.18900798010193282,0.0644094720763402
0.21900000000000008,-0.008,-0.699,0.06646922967146215,1.5876313304670067,0.1893494119301677,0.06464370974311168
0.2200000000000002,0.05789999999999436,-1.699,0.06645780600907843,1.580237933269413,0.18931441119627368,0.06410850097122528
0.22100000000000009,0.0325,0.301,0.06656831421753638,1.5791550303902187,0.18965299511686046,0.06403010952213142
0.2220000000000002,-0.022000000000001553,0.301,0.06687131680589174,1.5791550303902189,0.1905813587718765,0.06403010952213144
0.2230000000000001,-0.029,-1.699,0.06684402954684135,1.580237933269413,0.1904977538769979,0.06410850097122528
0.2240000000000002,-0.04779999999999614,0.301,0.06682227095151128,1.587631330467007,0.19043108814586246,0.0646437097431117
0.2250000000000001,-0.0304,-0.699,0.06700280202364978,1.588708455701452,0.19098421373757493,0.06472168294791703
0.2260000000000002,-0.025300000000005308,1.301,0.0670126698226004,1.580237933269414,0.1910144474921791,0.06410850097122536
0.2270000000000001,-0.0492,-1.699,0.06693390285950618,1.5760693376933943,0.1907731149473003,0.06380673591531051
0.2280000000000002,-0.009700000000008216,0.301,0.06686193753921517,1.579322166129461,0.19055262182167257,0.06404220849522153
0.2290000000000001,-0.0467,1.301,0.06607746393898671,1.5740647445911193,0.18814908862836013,0.06366162321762538
0.2300000000000002,0.025400000000030065,-0.699,0.06515964661603671,1.5687897041673746,0.18533700623264276,0.06327976250713056
0.2310000000000001,0.1608,1.301,0.06543343806841208,1.4758752367953814,0.18617587046419595,0.05655367480433164
0.2320000000000002,0.06859999999998893,0.301,0.06513793763708127,1.438218224678154,0.18527049252013908,0.0538276798835215
0.2330000000000001,0.0188,2.301,0.06540830045065107,1.4184121324682881,0.18609885181287134,0.05239391486262406
0.23399999999999999,0.0039,-0.699,0.06520324687111603,1.447337693438876,0.18547059219434947,0.05448783915066745
0.2350000000000001,-0.0097,-1.6989999999999168,0.0656134561719625,1.451875947653674,0.18672742438156753,0.05481636383287995
0.236,-0.1231,1.3010000000000554,0.06756379722186433,1.4747157010247645,0.1927030358621243,0.056469735892466844
0.2370000000000001,-0.1384,3.300999999999889,0.06667216638389775,1.4960640743583848,0.18997118572132984,0.058015146800104535
0.238,-0.1246,-0.6989999999998612,0.0663410269878591,1.5105062165786205,0.1889566142561326,0.059060614938028555
0.2390000000000001,0.014,4.300999999999834,0.0664117108730681,1.5027334143439433,0.18917318121808346,0.05849794099708414
0.24,0.2174,-1.699,0.0664682989298183,1.4667532454752232,0.18934656024920005,0.055893332928852645
0.2410000000000001,0.1366,-2.699,0.06636693525511916,1.4587473281467382,0.1890359940852596,0.055313783762659184
0.242,0.112,-1.699,0.06666776929629205,1.4542305177821544,0.1899577135713287,0.05498681140293537
0.2430000000000001,0.0898,-0.699,0.06682324933004982,1.4905130091088297,0.19043408578057233,0.0576133046245154
0.244,0.0289,-1.699,0.06682910055537185,1.4905130091088297,0.1904520132344458,0.0576133046245154
0.2450000000000001,0.0475,1.301,0.06669271302910065,1.4905130091088297,0.19003413818237122,0.0576133046245154
0.246,-0.0362,0.301,0.06682685426418064,1.496064074358383,0.19044513086716366,0.05801514680010441
0.2470000000000001,-0.0209,-1.699,0.06662290102635862,1.4870659309903176,0.18982024256391675,0.05736377029041987
0.248,-0.0072,0.301,0.0663093632896911,1.5302382266570975,0.18885960047574835,0.06048901714593223
0.2490000000000001,0.0052,-0.699,0.06635283436983253,1.5345313287284013,0.18899279066091026,0.06079979523964985
0.25,0.0393,0.301,0.0663717902397418,1.5334161480537827,0.1890508691769008,0.06071906719767636
0.2510000000000001,-0.0748,1.301,0.06636761000145137,1.5323001557708098,0.18903806142724033,0.06063828040329191
0.252,-0.1509,2.301,0.06645247199788194,1.5268808346141818,0.1892980684245596,0.06024597519593191
0.2530000000000001,-0.0539,1.301,0.06658776762571887,1.5257600621903982,0.1897125980305545,0.060164842366670065
0.254,0.034,-1.699,0.06705457365017488,1.5257600621903982,0.1911428358031086,0.060164842366670065
0.2550000000000001,0.023,-0.699,0.06710500687464893,1.5257600621903984,0.19129735716499235,0.06016484236667008
0.256,-0.0077,2.301,0.06708347174155516,1.518065364745009,0.19123137609539584,0.05960782243933214
0.2570000000000001,0.0777,-0.699,0.06736390102053227,1.513725564001646,0.19209057783297107,0.05929366382401482
0.258,-0.025,-1.699,0.06740268191867624,1.4770338622803023,0.192209397862005,0.056637547820522716
0.2590000000000001,-0.1216,0.301,0.07063469097251333,1.4758752367953787,0.20211188666433239,0.05655367480433145
0.26,-0.1094,1.301,0.07103467781137505,1.502909048813977,0.20333739845187027,0.058510655194156935
0.2610000000000001,-0.0754,1.301,0.07099533777931433,1.498525355301217,0.20321686530345534,0.05819331917681782
0.262,0.0599,0.301,0.07102121475071574,1.4985253553012168,0.20329614924581818,0.058193319176817804
0.2630000000000001,0.0416,-1.699,0.07102082179790971,1.5074550978235948,0.20329494528546513,0.058839744142355856
0.264,-0.1095,1.301,0.07098122452246984,1.5118128986354886,0.20317362397413388,0.05915520578445704
0.2650000000000001,-0.0891,1.301,0.07072282218775343,1.516158174138481,0.20238191015669063,0.05946976071817838
0.266,0.1883,0.301,0.07086263988597875,1.516158174138481,0.2028102948449698,0.05946976071817838
0.2670000000000001,0.149,-0.699,0.07076580936357094,1.5106809473690284,0.20251361771693746,0.05907326371764172
0.268,0.0412,-1.699,0.07068254697127836,1.5227395079286978,0.20225851171519116,0.05994618413776454
0.26900000000000013,0.0087,-0.699,0.07065140478530216,1.513899923222545,0.20216309578572672,0.059306285705673596
0.27,0.0385,0.301,0.07092774517006206,1.5182392255700423,0.20300976964094597,0.05962040824206372
0.27100000000000013,0.0654,0.301,0.07077625889513808,1.5093732853690687,0.20254563383063318,0.05897860193303359
0.272,-0.0086,-0.699,0.07074643878667003,1.5093732853690687,0.20245426858837356,0.05897860193303359
0.27300000000000013,-0.0306,-1.699,0.07071237503223682,1.5148552402289015,0.2023499013229293,0.059375441200511705
0.274,-0.0509,-0.699,0.07067817792309974,1.5059693779673138,0.20224512547463772,0.05873219273149615
0.27500000000000013,-0.0325,0.301,0.07056028009064985,1.5071048679876626,0.20188390063083114,0.05881439096906385
0.276,-0.0158,-0.699,0.0705203756365511,1.5148552402289015,0.20176163816086473,0.059375441200511705
0.27700000000000014,-0.0006,-1.699,0.07049792290890106,1.5105062165786238,0.20169284569140297,0.0590606149380288
0.278,-0.0144,0.301,0.07040007996717315,1.5071048679876626,0.2013930666317815,0.05881439096906385
0.27900000000000014,-0.0266,0.301,0.07053919001243725,1.5071048679876626,0.20181928315610823,0.05881439096906385
0.28,-0.0606,0.301,0.07046356710129366,1.501594618680076,0.20158758360999782,0.05841550346364737
0.28100000000000014,-0.0706,0.301,0.07043096569855038,1.501594618680076,0.20148769681505763,0.05841550346364737
0.28200000000000003,-0.0987,2.3010000000000557,0.06872220498546738,1.501594618680076,0.19625225856432857,0.05841550346364737
0.28300000000000014,-0.0389,3.300999999999889,0.06845017869767381,1.5105062165786238,0.1954188025857271,0.0590606149380288
0.28400000000000003,0.0782,1.300999999999778,0.06892646158881767,1.4928066391185344,0.19687807634323495,0.05777934073320105
0.28500000000000014,0.162,-2.6990000000000554,0.06895755587601483,1.4916602649596595,0.1969733455165749,0.05769635459174318
0.28600000000000003,-0.0059,-3.6989999999999443,0.06995248461359653,1.4916602649596604,0.20002168805488546,0.05769635459174324
0.28700000000000014,-0.0283,-2.698999999999889,0.06966765957586078,1.4872434156967138,0.19914901823873743,0.05737661842629033
0.28800000000000003,-0.0489,-0.6990000000000555,0.0683077630431402,1.4739134547029389,0.1949824580703487,0.056411661199983885
0.28900000000000015,-0.0305,-1.699,0.06716178990431651,1.4818374363239737,0.19147133356978546,0.05698527903201713
0.29000000000000004,0.0195,-0.699,0.06715847056018015,1.4270143945007487,0.1914611634967461,0.053016633482332015
0.29100000000000015,0.0653,-0.699,0.06359746044348948,1.4270143945007485,0.18055065482609767,0.053016633482332
0.29200000000000004,0.0515,-3.699,0.06222189165539682,1.4080784137131452,0.17633607674354346,0.05164585591541107
0.29300000000000015,0.0142,-0.699,0.061206868002357744,1.3997369407956892,0.17322616579005035,0.05104201584614923
0.29400000000000004,0.0028,0.301,0.06054955184268919,1.3997369407956892,0.1712122277712261,0.05104201584614923
0.29500000000000015,-0.0492,1.301,0.0605036689948949,1.391345459507171,0.1710716482187145,0.0504345556658417
0.29600000000000004,0.0166,0.301,0.060368849065960024,1.3853748602555458,0.17065857609720447,0.05000234338135518
0.29700000000000015,0.0079,-3.699,0.06026022473521937,1.3866091082799525,0.1703257641524042,0.05009169072083817
0.29800000000000004,0.0392,1.301,0.060316592562150856,1.3768958521584773,0.1704984684257223,0.049388547126512576
0.29900000000000015,0.0159,0.301,0.060442354879037506,1.382903059492736,0.17088378910830093,0.049823409473808346
0.30000000000000004,-0.0053,0.301,0.06048104105478642,1.4208221595284005,0.17100231891925666,0.05256837696557662
0.30100000000000016,-0.0373,0.301,0.060415338244167296,1.4208221595284005,0.17080101337351108,0.05256837696557662
0.30200000000000005,-0.0433,0.301,0.059992766826692315,1.4149759449346837,0.16950630514094545,0.05214516889907292
0.30300000000000016,-0.0805,0.301,0.05839454638411619,1.3960657420829101,0.16460954904508254,0.05077625739953731
0.30400000000000005,-0.0276,0.301,0.058816629932399694,1.3997369407956857,0.1659027625048536,0.05104201584614897
0.30500000000000016,-0.0206,-0.699,0.05931538071443457,1.3901154167745782,0.16743087519017819,0.050345512747859006
0.30600000000000005,-0.0651,-0.699,0.05929927091769252,1.3888842846751153,0.1673815167016379,0.05025639097049826
0.30700000000000016,0.023,0.301,0.059909825061407,1.3708623211059763,0.16925218150196367,0.048951779202587364
0.30800000000000005,0.2118,0.301,0.059838603031267444,1.3708623211059763,0.16903396572837273,0.048951779202587364
0.30900000000000016,0.0764,-3.699,0.059887185807744894,1.36229298893124,0.16918281753913197,0.04833144437861499
0.31000000000000005,0.0022,-0.699,0.059044202790955715,1.3721096235960586,0.1666000184982702,0.049042071556162664
0.31100000000000017,-0.0201,0.301,0.05814718419124242,1.36730664104239,0.16385166090051081,0.048694383162689446
0.31200000000000006,0.0001,-1.699,0.0576643815098815,1.371054848592565,0.16237241128633226,0.04896571628683939
0.31300000000000017,-0.0184,1.301,0.057373578706661,1.3808091936697433,0.1614814263124017,0.04967183431482953
0.31400000000000006,-0.0017,1.301,0.05726918226401272,1.3723019760920094,0.1611615681105504,0.049055995972824694
0.31500000000000017,-0.0475,0.301,0.056676689834375744,1.3674996691260073,0.1593462422397957,0.04870835648521107
0.31600000000000006,-0.0612,0.301,0.056226821912283786,1.362680438156153,0.15796790078504233,0.04835949186724464
0.31700000000000017,0.0018,2.301,0.052996427352169015,1.362680438156153,0.1480703585981917,0.04835949186724464
0.31800000000000006,-0.0093,0.301,0.050918131847957356,1.3614244969136529,0.1417027099884361,0.04826857415350693
0.3190000000000002,0.0631,1.301,0.05133773313370474,1.3527953818149068,0.14298831809297485,0.04764391163761108
0.32000000000000006,0.0347,0.301,0.05135128630146652,1.3614244969136526,0.1430298433764012,0.04826857415350692
0.3210000000000002,-0.0251,0.301,0.05120752198197682,1.3712473490476829,0.14258936671306055,0.04897965141428049
0.32200000000000006,-0.0019,1.301,0.05088912619414079,1.3712473490476829,0.1416138401377215,0.04897965141428049
0.3230000000000002,0.019,0.301,0.05092917786342695,1.3712473490476829,0.1417365536573974,0.04897965141428049
0.32400000000000007,0.025,-0.699,0.05085296626589778,1.3712473490476829,0.14150305044667957,0.04897965141428049
0.3250000000000002,0.0191,-1.699,0.05064146208947402,1.371247349047683,0.1408550269715611,0.04897965141428051
0.32600000000000007,-0.018,-0.699,0.050554497051416916,1.37249430163012,0.14058857650647594,0.049069918438005934
0.3270000000000002,-0.0323,1.301,0.05053560864250052,1.371247349047683,0.14053070468289106,0.04897965141428051
0.32800000000000007,-0.0453,0.301,0.050535833555226166,1.3808091936697435,0.1405313937885557,0.04967183431482954
0.3290000000000002,-0.03339999999998956,0.301,0.05051692442345937,1.3808091936697433,0.14047345847263815,0.04967183431482953
0.33000000000000007,0.0136,-0.699,0.050459840429562516,1.3808091936697435,0.1402985599494782,0.04967183431482954
0.3310000000000002,0.04549999999998299,1.301,0.05009489439580885,1.3820475191033557,0.13918040899367906,0.04976147681837784
0.3320000000000001,-0.0311,-1.699,0.049594656153988406,1.3832847359804823,0.13764773890965132,0.049851039073409875
0.3330000000000002,-0.08299999999997688,0.301,0.048620706813352066,1.3639352229011081,0.13466367473191165,0.04845032586200794
0.3340000000000001,0.0211,0.301,0.04850202738364739,1.3332013617434415,0.13430005516768986,0.04622549854028967
0.3350000000000002,0.11799999999999729,-1.699,0.04792553405642161,1.3269691732257483,0.13253374863129813,0.045774349782340525
0.3360000000000001,0.1058,-0.699,0.04525114746883992,1.3065840668491298,0.12433974830658336,0.04429866986727327
0.3370000000000002,-0.019999999999996246,-2.699,0.04664510468717903,1.2973868789170198,0.12861066633793558,0.043632884501439685
0.3380000000000001,-0.0031,-1.699,0.04816487678137538,1.290777337460566,0.1332670660862599,0.04315441912603795
0.3390000000000002,0.012300000000003086,-1.699,0.04795422721131746,1.2894513636290956,0.13262166102273226,0.043058431746092266
0.3400000000000001,0.0262,-1.699,0.049680388394998796,1.2854652356070841,0.1379104122321768,0.04276987553489114
0.3410000000000002,-0.03659999999999247,1.301,0.05196907300911054,1.2841337766048846,0.14492266788671893,0.04267349108288087
0.3420000000000001,-0.0027,-0.699,0.05192035707158088,1.2841337766048846,0.14477340808643785,0.04267349108288087
0.3430000000000002,0.0074000000000020655,-0.699,0.0516769514874198,1.2323699156531553,0.1440276425172735,0.03892629994629619
0.3440000000000001,0.0167,-0.6989999999999444,0.05165911576912381,1.2418361102592474,0.14397299601172064,0.039611558732502494
0.3450000000000002,0.02499999999999483,0.3009999999999445,0.051667792124761205,1.2432128701395713,0.1439995793266536,0.03971122251966794
0.3460000000000001,0.0017,-0.6989999999999444,0.0514331887049216,1.2379098803848267,0.14328078253516832,0.039327338554271535
0.3470000000000002,-0.03340000000000137,0.3010000000000555,0.05142459542294197,1.2487047302817755,0.14325445374797713,0.04010877883154006
0.3480000000000001,-0.0396,1.301000000000111,0.051419731513091066,1.193975812351603,0.14323955131050503,0.03614694692000523
0.3490000000000002,-0.022200000000001132,3.3009999999998336,0.05128669066422875,1.1884531425152514,0.14283193007734446,0.035747160291253584
0.3500000000000001,-0.0273,0.301,0.051439158003615516,1.1884531425152514,0.14329907175171744,0.035747160291253584
0.3510000000000002,-0.02260000000000877,0.301,0.05155020502625083,1.1898916705697327,0.1436393065344364,0.03585129548280175
0.3520000000000001,-0.0621,0.301,0.05148325290723348,1.1898916705697327,0.14343417325732682,0.03585129548280175
0.3530000000000002,-0.08859999999999896,-1.699,0.05133810159619312,1.1898916705697327,0.14298944701792665,0.03585129548280175
0.3540000000000001,-0.0839,0.301,0.05076387418973848,1.191328461604138,0.1412300829914999,0.03595530493129069
0.3550000000000002,-0.018299999999976908,0.301,0.050782463369936706,1.202541531466497,0.14128703801411618,0.03676702019420971
0.3560000000000001,0.0857,-0.699,0.0507687736367625,1.2011181537071758,0.14124509431061588,0.03666398173406251
0.3570000000000002,0.07199999999999174,-0.699,0.05040231762460691,1.1996930871802514,0.14012231696176902,0.03656082102385748
0.3580000000000001,0.0348,-0.699,0.050379133431402795,1.2065828557091425,0.14005128336942121,0.03705957206541244
0.3590000000000002,0.06909999999999315,-1.699,0.045727941025351916,1.2134335053699383,0.1258005866816419,0.03755549128814428
0.3600000000000001,0.0383,-0.699,0.04510195310982976,1.1641796653739114,0.12388263465224054,0.03399000082274061
0.361,0.01,-1.699,0.045301829888845443,1.1698169351639627,0.12449503317374166,0.034398083353746466
0.3620000000000001,-0.0154,-1.699,0.04528986606010883,1.1768816193906468,0.12445837743481154,0.03490949656037892
0.363,-0.023,-0.699,0.045298681636715896,1.1668886109319507,0.12448538730612792,0.03418610166603052
0.3640000000000001,-0.0724,-0.699,0.04526134483738689,1.1597630559987457,0.12437099182297441,0.03367028202278845
0.365,-0.0535,-0.699,0.04526430894494352,1.1540766774929885,0.12438007349366267,0.033258644506879244
0.3660000000000001,-0.0126,0.301,0.04503405149902975,1.155558000824756,0.12367459224598279,0.033365877652884166
0.367,0.0244,0.301,0.044722204036802174,1.162709326329352,0.12271912895633744,0.033883562830399096
0.3680000000000001,0.0774,-0.699,0.04474780421674009,1.162709326329352,0.12279756484279383,0.033883562830399096
0.369,-0.0146,-1.699,0.04475000239634911,1.162709326329352,0.1228042998019481,0.033883562830399096
0.3700000000000001,-0.0022,-1.699,0.04441909782723856,1.1555580008247566,0.12179044781834492,0.033365877652884214
0.371,0.032,0.301,0.04492830584167386,1.1627093263293522,0.12335060021179642,0.03388356283039912
0.3720000000000001,0.022,-0.699,0.04509867776364337,1.1853481961261636,0.12387259938365243,0.03552239290769984
0.373,0.0128,-1.699,0.0452207669185741,1.2006785707768326,0.12424666593775192,0.03663216028121702
0.3740000000000001,0.0212,-0.699,0.0479025207975154,1.2118051253383948,0.1324632387611747,0.03743761269274968
0.375,0.0134,-0.699,0.04843054869322462,1.239078001285677,0.13408105301771872,0.039411898944583364
0.3760000000000001,-0.0077,0.301,0.04848507129404337,1.2564774606044318,0.13424810373913934,0.04067144756676599
0.377,-0.0016,2.301,0.04847780153604115,1.2657633762847675,0.13422583007096162,0.04134365594327938
0.3780000000000001,0.0042,0.301,0.048371072213573355,1.2605552571059786,0.1338988242046375,0.04096663966848424
0.379,-0.0115,0.301,0.04816451668586149,1.2605552571059784,0.13326596279671626,0.040966639668484225
0.3800000000000001,0.0027,-0.699,0.0480821566787304,1.2605552571059786,0.1330136215950705,0.04096663966848424
0.381,-0.0016,-0.699,0.04807096233831945,1.2605552571059784,0.13297932347624647,0.040966639668484225
0.3820000000000001,-0.0135,0.301,0.04785551306349202,1.2539620695835947,0.13231921269192942,0.04048935815602603
0.383,0.0191,-1.699,0.047761043631168926,1.2445881070528995,0.13202976966124513,0.039810776059098336
0.3840000000000001,0.0235,0.301,0.04712445536552659,1.2445881070528995,0.1300793394281577,0.039810776059098336
0.385,-0.0362,1.301,0.04708892501941737,1.2445881070528995,0.1299704787013996,0.039810776059098336
0.3860000000000001,-0.1133,3.301,0.045672943799115455,1.233757238983348,0.12563208176476395,0.03902672842266743
0.387,-0.1233,2.301,0.044490670216450465,1.2323699156531538,0.12200973705018826,0.03892629994629608
0.3880000000000001,-0.0192,0.301,0.044454512800103395,1.2049452176481947,0.12189895505529476,0.03694102328033167
0.389,0.1334,1.301,0.0444559296371163,1.2006785707768326,0.12190329607427748,0.03663216028121702
0.3900000000000001,0.1538,0.301,0.044610371613618215,1.1963967080831253,0.1223764878003662,0.036322195807181844
0.391,0.0613,-0.699,0.04453392173814404,1.1865680626813138,0.12214225453455169,0.03561069917116688
0.3920000000000001,0.0113,-0.699,0.044404613573083875,1.1865680626813138,0.1217460697976811,0.03561069917116688
0.393,-0.004,-1.699,0.04457503098572949,1.1851255003747212,0.12226820834752251,0.035506271939699824
0.39400000000000013,0.0099,-0.699,0.044685379987410824,1.1836811800065001,0.12260630447760609,0.03540171744197343
0.395,-0.0023,-0.699,0.04481793578404332,1.1836811800065004,0.12301243956880532,0.03540171744197345
0.39600000000000013,-0.0136,-1.699,0.04484070678946917,1.1949660109707252,0.12308220720326771,0.03621862749832401
0.397,-0.0034,0.301,0.044886160065917086,1.1949660109707254,0.12322147060060262,0.036218627498324024
0.39800000000000013,-0.0129,-0.699,0.04489219031486399,1.1949660109707254,0.12323994656142985,0.036218627498324024
0.399,-0.0426,0.301,0.044716949750594814,1.188008873330556,0.12270303045244531,0.03571499959998095
0.40000000000000013,-0.0342,-0.699,0.044770729112659814,1.1408895784968442,0.12286780397930555,0.032304029075049374
0.401,-0.0265,0.301,0.044687613340152914,1.1408895784968442,0.12261314720302913,0.032304029075049374
0.40200000000000014,-0.0196,0.301,0.04463122718846242,1.1408895784968442,0.12244038678484326,0.032304029075049374
0.403,0.025,-0.699,0.044301249733056464,1.148132272251701,0.12142937536663617,0.03282832840945382
0.40400000000000014,0.0309,-1.699,0.04344181874798743,1.1436536920656075,0.11879618172012843,0.032504123536222625
0.405,-0.0169,0.301,0.04307702389254299,1.1451484982796547,0.11767849395656957,0.03261233270944123
0.40600000000000014,-0.0231,0.301,0.04309096908834636,1.1568092818549884,0.11772122036698143,0.03345645801338386
0.40700000000000003,-0.0171,1.301,0.04223403018414293,1.1668886109319547,0.11509566215789206,0.0341861016660308
0.40800000000000014,-0.0119,1.301,0.04165869250809404,1.1668886109319547,0.11333289639835087,0.0341861016660308
0.40900000000000003,0.0121,1.301,0.04153788839940821,1.1654216895981704,0.11296276707209903,0.03407991108211842
0.41000000000000014,0.0426,1.301,0.04097257655054657,1.155329562873296,0.11123071924675974,0.03334934100644335
0.41100000000000003,-0.0172,1.300999999999889,0.040798798286566115,1.1654216895981704,0.11069828345079212,0.03407991108211842
0.41200000000000014,-0.0089,-0.6989999999999444,0.04081893588361781,1.1538479462702824,0.11075998263726979,0.03324208663050322
0.41300000000000003,-0.0013,0.3009999999999445,0.04079002633422252,1.1436536920656075,0.11067140723899627,0.032504123536222625
0.41400000000000015,0.0055,-0.699,0.040752305665972044,1.142156929514698,0.11055583562742446,0.03239577274358044
0.41500000000000004,-0.0134,-0.6989999999998889,0.040123902786011224,1.1406582029256573,0.10863048443610446,0.032287279774019025
0.41600000000000015,-0.0308,1.3010000000000554,0.03977018245386552,1.1464111410954991,0.10754672768608241,0.03270373555075201
0.41700000000000004,-0.0152,2.301,0.03991674886621183,1.1464111410954991,0.107995789626467,0.03270373555075201
0.41800000000000015,-0.0103,0.301,0.0399111994528839,1.1464111410954991,0.10797878688841027,0.03270373555075201
0.41900000000000004,-0.032,0.301,0.03925093062801433,1.1521353535736063,0.10595580225690548,0.03311811187175119
0.42000000000000015,-0.0758,1.301,0.039315514325046014,1.1404267804118218,0.10615367897260028,0.03227052707480558
0.42100000000000004,-0.0465,2.301,0.03931658487644821,1.1285967437516238,0.10615695901392937,0.03141414952290883
0.42200000000000015,0.0333,2.301,0.039885292839582434,1.1359178202096827,0.1078994121268144,0.03194412298913615
0.42300000000000004,0.1592,-1.699,0.04033951047242845,1.1576032770597007,0.10929108057456748,0.03351393540666337
0.42400000000000015,0.0756,-2.699,0.040515897633940916,1.1689140619018756,0.10983150972023395,0.03433272426686717
0.42500000000000004,0.0299,-2.699,0.04190995048370098,1.1674496855861016,0.11410272075481091,0.034226717917066295
0.42600000000000016,0.016,-1.699,0.042502299225904004,1.2219667407853791,0.11591760638447035,0.03817321306405563
0.42700000000000005,0.0035,-0.699,0.04252194661709828,1.2503866053330044,0.11597780363888871,0.04023052993682729
0.42800000000000016,-0.0078,0.301,0.042524412805578934,1.230337600013408,0.11598535974513943,0.03877918041131589
0.42900000000000005,-0.018,0.301,0.04254662637005524,1.2317272123906355,0.11605341944726967,0.0388797745920338
0.43000000000000016,-0.0087,-0.699,0.0426259415210745,1.2331152587979997,0.1162964315743213,0.03898025541203472
0.43100000000000005,-0.0004,0.301,0.04262844999042842,1.231727212390635,0.11630411722410583,0.03887977459203377
0.43200000000000016,-0.0081,-0.699,0.04265690308262021,1.2303376000134076,0.11639129409215523,0.03877918041131586
0.43300000000000005,-0.0292,0.301,0.042645920540755354,1.2303376000134079,0.11635764489871973,0.038779180411315874
0.43400000000000016,-0.0104,0.301,0.0426104979598795,1.2261593137909095,0.11624911435173496,0.03847671384852103
0.43500000000000005,-0.0279,0.301,0.04261035060968583,1.2329011911176586,0.11624866288838243,0.03896475903097552
0.43600000000000017,-0.0229,0.301,0.04246744543990998,1.2329011911176586,0.11581081855690695,0.03896475903097552
0.43700000000000006,-0.0089,-0.699,0.040930936432541094,1.1945241640641042,0.11110313891037818,0.03618664215600649
0.43800000000000017,-0.0047,1.301,0.039054438523457136,1.1720625452623048,0.10535377397272933,0.03456064329618545
0.43900000000000006,0.0391,1.301,0.0390084609482489,1.173521165443387,0.10521290418676223,0.03466623295881305
0.44000000000000017,-0.0017,-0.699,0.036663733686336485,1.166436128332991,0.09802894056882809,0.03415334640486748
0.44100000000000006,0.0139,1.301,0.033284362758438414,1.166436128332991,0.08767495262665569,0.03415334640486748
0.44200000000000017,-0.039,0.301,0.03272055152343508,1.164968637236044,0.0859475025025236,0.03404711457574205
0.44300000000000006,-0.0322,0.301,0.032701444024811926,1.170602107579642,0.08588895941430681,0.03445492206443437
0.4440000000000002,0.0383,-0.699,0.0326990595904003,1.1662098211982872,0.08588165379273592,0.03413696400846744
0.44500000000000006,0.0288,-1.699,0.03269619596145857,1.1762085966341997,0.08587287997649434,0.03486077637488059
0.4460000000000002,0.0203,-0.699,0.03269719534271271,1.1747533132787247,0.08587594196101032,0.034755428265396626
0.44700000000000006,-0.0342,0.301,0.032679195934520545,1.1632724167561248,0.08582079392921264,0.033924325003419124
0.4480000000000002,0.0009,0.301,0.03269167408385946,1.163272416756125,0.08585902548489335,0.03392432500341914
0.44900000000000007,-0.0312,0.301,0.03267169480739944,1.1689140619018705,0.08579781137375432,0.0343327242668668
0.4500000000000002,-0.0019,0.301,0.03239609831937953,1.1689140619018705,0.0849534167290865,0.0343327242668668
0.45100000000000007,0.003,0.301,0.03229133628817975,1.1674496855860972,0.08463243840768198,0.034226717917065975
0.4520000000000002,-0.0304,1.301,0.03226589349203895,1.1745286086929616,0.08455448472633784,0.03473916187767669
0.45300000000000007,0.0178,1.301,0.03238439213672778,1.1815651217353074,0.08491755038691481,0.03524853576942191
0.4540000000000002,0.06239999999999089,-0.699,0.03242103507652219,1.1815651217353074,0.08502981996752373,0.03524853576942191
0.45500000000000007,0.0214,-1.699,0.03228589298593101,1.1701510609436996,0.0846157607812682,0.034422270752779593
0.4560000000000002,-0.005099999999994694,-1.699,0.03233037019164524,1.1716120608650795,0.08475203361473105,0.03452803268504834
0.4570000000000001,0.0188,-0.699,0.03256637843137216,1.173071241187581,0.08547513460616492,0.03463366289637
0.4580000000000002,0.014299999999999112,0.301,0.032534736811849055,1.173071241187581,0.08537818847210535,0.03463366289637
0.4590000000000001,0.0103,-0.699,0.03251657998070278,1.173071241187581,0.08532255811522306,0.03463366289637
0.4600000000000002,0.006599999999994937,-1.699,0.03250419823123835,1.173071241187581,0.0852846219172167,0.03463366289637
0.4610000000000001,-0.0162,0.301,0.03224651468940863,1.1659834701393603,0.08449511039512382,0.03412057843238844
0.4620000000000002,-0.0015000000000029755,-0.699,0.032206261527843456,1.1588523496869996,0.08437177952722784,0.03360435590065105
0.4630000000000001,-0.0149,0.301,0.03219583246990956,1.168914061901872,0.0843398261422933,0.03433272426686691
0.4640000000000002,-0.012799999999998557,0.301,0.03219560431407895,1.168914061901872,0.0843391271001433,0.03433272426686691
0.4650000000000001,-0.0063,1.301,0.032202092174082285,1.167449685586099,0.08435900512646187,0.0342267179170661
0.4660000000000002,-0.036399999999997115,0.301,0.03217599091058352,1.1730712411875832,0.08427903397996515,0.03463366289637016
0.4670000000000001,-0.0234,0.301,0.03203302220387371,1.1774379321696469,0.0838409949789307,0.03494976809879028
0.4680000000000002,-0.02749999999998792,1.301,0.031999311090617474,1.1561245743095734,0.0837377081638342,0.03340689196482878
0.4690000000000001,0.0269,0.301,0.031983465294519293,1.1561245743095734,0.08368915854166037,0.03340689196482878
0.4700000000000002,0.0036999999999826807,0.3010000000000555,0.03182480525423958,1.1561245743095734,0.08320304317314635,0.03340689196482878
0.4710000000000001,-0.0743,1.3010000000000554,0.03090808122965755,1.1489322639126054,0.0803943105127379,0.03288623988680437
0.4720000000000002,-0.06419999999997687,2.301,0.030557243531930612,1.1329018769497197,0.07931938580946372,0.03172579855111337
0.4730000000000001,0.0399,2.300999999999889,0.03037634080695048,1.1091930825018264,0.07876512151793907,0.030009516519966195
0.4740000000000002,0.10929999999999171,0.30099999999977795,0.025872823344942498,1.098584534086044,0.06496688317894843,0.029241562625786654
0.4750000000000001,0.072,-3.6989999999999443,0.02475626664318648,1.0661257108439381,0.061545887119801905,0.02689186512408349
0.4760000000000002,0.015099999999997735,-2.698999999999889,0.024667072308340855,1.0326471246809987,0.06127260635624983,0.024468346881266593
0.4770000000000001,0.0049,-0.699,0.02466434718884161,1.019567286959634,0.061264256916357555,0.023521496103980695
0.4780000000000002,0.014399999999990497,-0.699,0.024723479252542493,1.0178880768048006,0.06144543048020056,0.023399937910813417
0.4790000000000001,-0.0284,-0.6989999999999444,0.024721436902972686,1.0259994255186125,0.06143917296563035,0.02398711926566805
0.4800000000000002,-0.005299999999995337,0.301,0.02509884152838445,1.0259994255186125,0.06259549555471766,0.02398711926566805
0.4810000000000001,0.0157,0.301,0.025182887140183637,1.0323914905164693,0.06285300124726456,0.02444984149820743
0.4820000000000002,0.009499999999996159,0.301,0.025383293668802598,1.0323914905164693,0.0634670228581281,0.02444984149820743
0.4830000000000001,-0.0078,1.301,0.025378413123078446,1.0323914905164693,0.06345206945033201,0.02444984149820743
0.4840000000000002,-0.023399999999992607,1.301,0.025209668093076846,1.0323914905164693,0.06293505488069293,0.02444984149820743
0.4850000000000001,0.0099,1.301,0.02541832448790075,1.0323914905164693,0.06357435309392802,0.02444984149820743
0.4860000000000002,0.005599999999995603,1.301,0.025420530407977815,1.034047148551588,0.06358111176894968,0.024569694751043376
0.4870000000000001,-0.0142,0.301,0.02531710921318599,1.034047148551588,0.06326424160977315,0.024569694751043376
0.4880000000000002,-0.0033000000000007104,-0.699,0.02530883762411448,1.0403897702082447,0.0632388984511391,0.025028837775106
0.4890000000000001,-0.0065,0.301,0.025481188211808968,1.0323914905164693,0.06376696001788904,0.02444984149820743
0.49,0.0023,0.301,0.025432312620977258,1.0323914905164693,0.0636172110590043,0.02444984149820743
0.4910000000000001,-0.0056,0.301,0.025827414346577617,1.0307331730151914,0.06482775544435893,0.024329795726346897
0.492,0.0014,1.301,0.02711326281604748,1.0226593712917402,0.06876744121203898,0.023745332401926972
0.4930000000000001,-0.0008,1.301,0.027613104615143727,1.0564545124620255,0.0702988966430222,0.026191766093784156
0.494,0.0089,-1.699,0.02746617624768026,1.0892015810270999,0.0698487257154922,0.028562329703608516
0.4950000000000001,0.0035,0.301,0.02719834840950693,1.0892015810270999,0.06902813328388553,0.028562329703608516
0.496,0.0083,0.301,0.027079317932404284,1.0892015810270999,0.06866343815246402,0.028562329703608516
0.4970000000000001,0.0097,0.301,0.027003646896799398,1.087629885749321,0.0684315911587657,0.028448554523279577
0.498,0.0061,1.301,0.02681379115188641,1.087629885749321,0.06784989588602926,0.028448554523279577
0.4990000000000001,0.005,0.301,0.026814446054929473,1.0892015810270996,0.0678519024305477,0.0285623297036085
0.5,-0.0222,0.301,0.02676080820836651,1.0967856528853217,0.06768756249024335,0.029111341433488005
0.5010000000000001,-0.0232,1.301,0.02868962669154531,1.0967856528853217,0.07359723140305911,0.029111341433488005
0.502,-0.0339,1.301,0.03085307905604758,1.0983442466330553,0.08022579043769981,0.02922416819273013
0.5030000000000001,-0.0293,-0.699,0.031863794732159924,1.1148716376225027,0.08332250226564376,0.030420587700237096
0.504,-0.0088,0.301,0.03210840807393542,1.1311575719758182,0.08407196825954497,0.0315995281374014
0.5050000000000001,0.024,-0.699,0.03784263118321989,1.1414634327805167,0.10164094136075662,0.03234557044476045
0.506,0.0455,-0.699,0.040400149994922765,1.1414634327805167,0.10947687281167941,0.03234557044476045
0.5070000000000001,0.0094,1.301,0.04061116410725199,1.1603275762093797,0.11012339478908305,0.033711147698006975
0.508,-0.0049,1.301,0.04063387045594519,1.1603275762093799,0.11019296432305734,0.03371114769800699
0.5090000000000001,0.0081,1.301,0.04061413259670659,1.1718373247109173,0.11013248988538209,0.034544339557661716
0.51,0.012,0.301,0.04078935081498846,1.1703766059900491,0.1106693375289368,0.034438597981526486
0.5110000000000001,-0.0061,0.301,0.04078464370107721,1.1603275762093799,0.11065491549545206,0.03371114769800699
0.512,0.0036,-1.699,0.040764916228016056,1.167449685586099,0.11059447287978105,0.0342267179170661
0.5130000000000001,0.0006,0.301,0.04076476531537914,1.1730712411875825,0.11059401050152892,0.03463366289637011
0.514,0.0085,0.301,0.040747413058033484,1.1730712411875828,0.11054084526244753,0.03463366289637013
0.5150000000000001,-0.0035,1.301,0.0407272047306852,1.1801164439005671,0.11047892936680902,0.03514366583425291
0.516,-0.0057,-1.699,0.04073000830813598,1.1730712411875819,0.11048751919247173,0.034633662896370064
0.5170000000000001,-0.004,-0.699,0.04059644285749243,1.1801164439005687,0.11007829064225919,0.03514366583425302
0.518,-0.0023,0.301,0.04059079255727952,1.2024276234729507,0.11006097879886516,0.03675877438302108
0.5190000000000001,-0.0037,0.301,0.04059769910575789,1.1955139085044815,0.11008213963654553,0.03625828985627993
0.52,0.0006,0.301,0.040524029887420224,1.2024276234729496,0.10985642597129486,0.036758774383021
0.5210000000000001,-0.003,1.301,0.04055488959622699,1.202427623472949,0.10995097642453053,0.03675877438302095
0.522,-0.002,0.301,0.03986829853693967,1.2066880860029046,0.10784734361808807,0.037067189697034875
0.5230000000000001,-0.001,-0.699,0.03936294945171556,1.1844571618995172,0.10629901452174564,0.035457890849795067
0.524,-0.0075,0.301,0.03916712951225015,1.1618009295265561,0.10569904567093857,0.0338178038938485
0.5250000000000001,-0.0212,0.301,0.037628195741402345,1.1618009295265568,0.10098393683940499,0.03381780389384855
0.526,-0.0155,0.301,0.03693389245468002,1.10276748995487,0.0988566746914155,0.029544367224752063
0.5270000000000001,-0.0174,0.301,0.03691006187860791,1.0704355140272634,0.0987836606593456,0.027203852212991732
0.528,0.0072,1.301,0.03691251679683987,1.0688362241026261,0.09879118223490362,0.027088079453382118
0.5290000000000001,0.047,0.301,0.03689904176180807,1.0672345375863295,0.09874989634080782,0.02697213320425957
0.53,-0.0223,1.301,0.0368282685178633,1.0656304436718456,0.09853305559438867,0.026856012683338443
0.5310000000000001,-0.0318,0.301,0.03707503294648097,1.0902869397578552,0.09928911226084453,0.028640898932045585
0.532,-0.0064,-0.699,0.037125772685248554,1.091854810285416,0.09944457274582753,0.02875439723831889
0.5330000000000001,0.0011,0.301,0.037116895961853746,1.1040786014669006,0.09941737552807406,0.02963927871988834
0.534,-0.0341,0.301,0.03733075074983001,1.0981039066002876,0.10007260099557233,0.02920676995341808
0.5350000000000001,-0.0281,-0.699,0.03743124206408003,1.1027674899548732,0.10038049435153634,0.029544367224752288
0.536,0.0012,0.301,0.037445801998605685,1.0952248411345609,0.1004251042477963,0.02899835411278211
0.5370000000000001,0.0062,1.301,0.03744576231475571,1.0892015810270979,0.10042498266123095,0.02856232970360837
0.538,0.03,0.301,0.03745389939432583,1.0907710116467078,0.10044991369885632,0.028675940945103107
0.5390000000000001,-0.0357,1.301,0.03801976792124975,1.0967856528853195,0.1021836671191325,0.029111341433487842
0.54,-0.045,0.301,0.038460679358858205,1.0967856528853195,0.10353456697770569,0.029111341433487842
0.5410000000000001,0.0837,0.301,0.03899937877078748,1.0983442466330533,0.10518507748234576,0.029224168192729987
0.542,0.0653,-2.699,0.03906523146167735,1.1058656194922947,0.10538684224329713,0.029768641135723552
0.5430000000000001,0.0152,-2.699,0.04000393748187103,1.099900631806702,0.10826292510655812,0.02933683507307043
0.544,-0.0001,-0.699,0.0407020040785344,1.1519062368669797,0.11040171758566057,0.03310152609015512
0.5450000000000002,0.0135,-1.699,0.040693097970439,1.1519062368669797,0.11037443033670241,0.03310152609015512
0.546,0.0012,0.301,0.04070920655424984,1.1519062368669797,0.1104237851089667,0.03310152609015512
0.5470000000000002,0.0123,0.301,0.04075122956714296,1.1590800933482523,0.11055253858944353,0.03362084228735346
0.548,0.0021,-0.699,0.04074082887753645,1.1590800933482523,0.11052067212166782,0.03362084228735346
0.5490000000000002,-0.0262,1.301,0.04091444125532678,1.1590800933482523,0.11105259966220893,0.03362084228735346
0.55,-0.1034,0.301,0.041149895869980135,1.1817884884032708,0.1117740044126978,0.035264705305136826
0.5510000000000002,-0.1135,-0.699,0.04117731533838182,1.181788488403271,0.11185801438120056,0.03526470530513685
0.552,-0.0852,2.301,0.041173024354415985,1.181788488403271,0.11184486732004917,0.03526470530513685
0.5530000000000002,0.0434,2.301,0.04106964657605728,1.181788488403271,0.11152813018362585,0.03526470530513685
0.554,0.2098,-1.699,0.04096603469237103,1.1803400847152634,0.11121067577650622,0.03515985521547758
0.5550000000000002,0.1431,-1.699,0.04095666075334044,1.191656555832821,0.11118195514957174,0.03597905570573219
0.556,0.0417,-2.699,0.040887644394895103,1.1902201608620515,0.11097049728998717,0.035875074928329954
0.5570000000000002,0.0232,-0.699,0.0406397305893599,1.1902201608620515,0.1102109190702603,0.035875074928329954
0.558,0.0066,-1.699,0.0406304186868865,1.1846799832850192,0.11018238851590999,0.035474020912457375
0.5590000000000002,-0.0391,0.301,0.04066844888103494,1.179113774947057,0.11029890847777649,0.03507108252716487
0.56,0.0022,-0.699,0.04069061279045053,1.179113774947057,0.11036681604274544,0.03507108252716487
0.5610000000000002,-0.0101,1.301,0.040674583220878746,1.1861230874293975,0.11031770336064997,0.03557848736761662
0.562,0.0011,1.301,0.04067731175726672,1.1861230874293975,0.11032606326948025,0.03557848736761662
0.5630000000000002,-0.009,0.301000000000111,0.04068008294247429,1.1861230874293975,0.1103345538491878,0.03557848736761662
0.5640000000000001,0.0004,1.300999999999889,0.04068007932250737,1.1861230874293975,0.11033454275804253,0.03557848736761662
0.5650000000000002,-0.0079,0.301000000000111,0.04067793946556777,1.1930912214898715,0.11032798649256492,0.036082911297939176
0.5660000000000001,-0.0155,1.301000000000111,0.04068711597342556,1.1861230874293975,0.11035610221402256,0.03557848736761662
0.5670000000000002,-0.0224,2.300999999999778,0.04069784119091218,1.1762085966341997,0.11038896299637022,0.03486077637488059
0.5680000000000001,-0.0285,0.301000000000111,0.040704848006177186,1.181788488403271,0.11041043103948084,0.03526470530513685
0.5690000000000002,-0.0111,1.300999999999889,0.040705628071372284,1.1817884884032708,0.11041282106584861,0.035264705305136826
0.5700000000000001,-0.0162,0.30099999999977795,0.04070410085054106,1.1817884884032708,0.11040814184406181,0.035264705305136826
0.5710000000000002,-0.002,-1.698999999999778,0.040750441361069985,1.1832351190948232,0.11055012362040058,0.035369427047403146
0.5720000000000001,0.0111,0.301,0.04087039108110911,1.1832351190948232,0.110917635202127,0.035369427047403146
0.5730000000000002,0.0072,0.301,0.04138568801314971,1.1902201608620515,0.1124964433101512,0.035875074928329954
0.5740000000000001,0.011,0.301,0.04254243842380005,1.2340740530353422,0.11604058808132794,0.03904966262397605
0.5750000000000002,0.0014,0.301,0.04266386339173149,1.2554266752388892,0.11641261964597859,0.04059538110773802
0.5760000000000001,-0.0071,0.301,0.04267648294924085,1.2554266752388892,0.11645128445936405,0.04059538110773802
0.5770000000000002,0.0065,0.301,0.04392324540762898,1.2554266752388892,0.12027121536849723,0.04059538110773802
0.5780000000000001,-0.0103,0.301,0.046733469227171934,1.256788547305482,0.1288814047094026,0.040693967164559745
0.5790000000000002,-0.016900000000005792,0.301,0.046929677872356926,1.2515430812049297,0.1294825645079983,0.040314247342315916
0.5800000000000001,-0.043,2.301,0.04669468562163329,1.262221341756522,0.12876257638523553,0.04108724770506671
0.5810000000000002,-0.024899999999993382,-0.699,0.046655316043653604,1.2622213417565222,0.12864195271166215,0.04108724770506673
0.5820000000000001,0.0049,-1.699,0.04660718616089004,1.2635758906066892,0.12849448851302148,0.04118530363350973
0.5830000000000002,0.04069999999999898,-0.699,0.04661420338936086,1.2635758906066892,0.12851598846094806,0.04118530363350973
0.5840000000000001,0.0361,-1.699,0.04665885983471962,1.2649289889394346,0.128652810463223,0.0412832545588497
0.5850000000000002,0.014399999999995581,0.301,0.046629372206644065,1.2649289889394348,0.1285624639010812,0.041283254558849715
0.5860000000000001,-0.0055,-0.699,0.04670038195690955,1.3062771850231212,0.12878002927455232,0.04427645466080963
0.5870000000000002,-0.016200000000010924,-0.699,0.04679996781365085,1.312607621635299,0.1290851484171117,0.04473471560826841
0.5880000000000001,-0.0654,1.301,0.046798232720254296,1.3062771850231212,0.12907983229867137,0.04427645466080963
0.5890000000000002,-0.058400000000001374,0.301,0.04671507785026711,1.307586096533908,0.1288250557323961,0.04437120689763306
0.5900000000000001,-0.0646,-0.699,0.04686714606118281,1.311504993150747,0.12929097452491772,0.04465489622060503
0.5910000000000002,0.023400000000013944,1.301,0.0467925442913289,1.3128086923829358,0.12906240363346705,0.04474927114005291
0.5920000000000001,0.0862,-0.699,0.04606822302912947,1.3128086923829358,0.12684317000239104,0.04474927114005291
0.5930000000000002,0.07509999999998387,-3.699,0.045721138123432224,1.2870990759543293,0.12577974340460865,0.04288814940309236
0.5940000000000001,0.0025,-1.699,0.045765070535507796,1.2804364305338334,0.12591434705558577,0.04240583982635561
0.5950000000000002,0.012000000000001843,0.301,0.0457654370234901,1.279099736885819,0.12591546993088734,0.042309076437804675
0.5960000000000001,0.0203,1.301,0.04575378136017259,1.2699113438207088,0.12587975837390755,0.04164392773328388
0.5970000000000002,-0.0029000000000078156,0.301,0.045754282257153306,1.2712576988562827,0.12588129306228868,0.041741390510658685
0.5980000000000001,-0.0381,1.301,0.04584712849021265,1.2712576988562827,0.1261657628047595,0.041741390510658685
0.5990000000000002,-0.04419999999999614,2.301,0.04599201947930826,1.2764221501633641,0.12660969144888692,0.04211524566379854
0.6000000000000001,-0.0268,0.301,0.0461028135021461,1.2699113438207088,0.12694915107051577,0.04164392773328388
0.6010000000000002,0.022499999999998868,1.301,0.045016749333688155,1.2699113438207088,0.1236215804828048,0.04164392773328388
0.6020000000000001,0.0174,1.301,0.043674953277679264,1.2685635598690614,0.11951047800805759,0.041546361516529816
0.6030000000000002,0.003299999999999023,0.301,0.04320960036616246,1.2752882356988673,0.11808469239958143,0.04203316148087853
0.6040000000000001,-0.0011,-1.699,0.04302897352997883,1.254273780155527,0.11753127339829963,0.04051192291589612
0.6050000000000002,0.0031000000000008213,0.301,0.037586031472128884,1.243527275178124,0.10085475056629009,0.039733982332249555
0.6060000000000001,0.0068,-0.699,0.03479969366704776,1.243527275178124,0.0923177451140436,0.039733982332249555
0.6070000000000002,0.0035000000000032865,-0.699,0.03454938949233936,1.216354164147196,0.0915508430893469,0.037766918072814265
0.6080000000000001,0.0183,-0.699,0.03447533268647975,1.216354164147196,0.09132394190233128,0.037766918072814265
0.6090000000000002,0.015699999999997313,1.301,0.034521062212929755,1.2052696051774137,0.09146405169659974,0.036964505726423576
0.6100000000000001,0.0036,1.301,0.03430296681906261,1.206688086002912,0.09079583352034042,0.03706718969703542
0.6110000000000002,-0.0076999999999996,0.301,0.034302545029153926,1.2052696051774137,0.09079454120655724,0.036964505726423576
0.6120000000000001,-0.0059,-1.699,0.03428844949953864,1.2052696051774137,0.09075135419134372,0.036964505726423576
0.6130000000000002,-0.0004999999999982459,0.301,0.0342884413004567,1.199798921752401,0.09075132907033825,0.036568482399253595
0.6140000000000001,0.0074,1.301,0.03434729576125325,1.2066880860029117,0.09093165209211722,0.03706718969703539
0.6150000000000002,-0.009299999999995492,0.301,0.03473623108148433,1.1997989217524019,0.09212330334966722,0.03656848239925366
0.6160000000000001,0.011,-0.699,0.03517318758218097,1.1997989217524017,0.0934620857550307,0.03656848239925364
0.6170000000000002,0.008599999999997335,1.301,0.035139192835658584,1.194303179310818,0.09335792992156351,0.03617064504733628
0.6180000000000001,-0.0034,0.301,0.0350727316289371,1.1732962248820615,0.09315430074095608,0.03464994948879826
0.619,-0.0012,0.301,0.035199144771112044,1.173296224882061,0.09354161547430073,0.03464994948879822
0.6200000000000001,-0.0194,-0.699,0.035500243415499504,1.1676757524228225,0.09446414567294079,0.03424308291827102
0.621,-0.0314,1.301,0.03546741529131688,1.1691398455843762,0.0943635642306537,0.034349068770509215
0.6220000000000001,-0.0651,1.301,0.03573581411181479,1.1875644379442822,0.09518590608374444,0.03568282687735922
0.623,-0.0985,3.301,0.03626246267390554,1.1988127150408543,0.09679949422721636,0.03649709079552847
0.6240000000000001,-0.033,2.301,0.03625595862625957,1.253330438747514,0.09677956660389873,0.0404436343358349
0.625,-0.0236,0.301,0.036515692457587276,1.2639935997325071,0.09757535996755119,0.04121554163943041
0.6260000000000001,0.1051,0.301,0.036520102243595254,1.2745675547566895,0.09758887102393664,0.04198099131448865
0.627,0.1606,-0.699,0.03654501697089697,1.2745675547566895,0.09766520676557862,0.04198099131448865
0.6280000000000001,0.0435,-0.699,0.03670053045296651,1.2810546966861307,0.09814168145644506,0.04245059617573417
0.629,-0.0023,-1.699,0.03669197359356661,1.2810546966861307,0.09811546426367761,0.04245059617573417
0.6300000000000001,0.0115,1.301,0.03665322936265894,1.2823893525908763,0.09799675657866587,0.0425472120518435
0.631,0.0238,-0.699,0.03640538452250957,1.272087935083836,0.0972373896606246,0.04180149139525191
0.6320000000000001,-0.0103,-0.699,0.03632045090063591,1.2812607191054874,0.09697716321152276,0.04246551015953594
0.633,-0.0204,-0.699,0.03634431032799475,1.272087935083836,0.0970502656404811,0.04180149139525191
0.6340000000000001,-0.0298,0.301,0.03613119166833492,1.272087935083836,0.09639729558201454,0.04180149139525191
0.635,-0.0381,3.301,0.03595824788804363,1.2614931958247546,0.09586741654416547,0.04103453714732444
0.6360000000000001,-0.0305,1.301,0.03603955066248524,1.2628485256945923,0.09611651851142337,0.041132649613860504
0.637,0.0047,0.301,0.03634227942357896,1.2680472260035507,0.09704404319249259,0.04150898405571474
0.6380000000000001,0.011,-0.699,0.03663967810030499,1.2875091534294976,0.097955237133181,0.04291783495304963
0.639,0.052,-1.699,0.03608494032546775,1.281054696686131,0.09625558700471616,0.042450596175734184
0.6400000000000001,0.0365,-0.699,0.03605351137350915,1.2875091534294965,0.0961592924586135,0.04291783495304955
0.641,-0.0165,0.301,0.03576981654189937,1.2861798103017654,0.09529008545872629,0.04282160366940634
0.6420000000000001,0.0328,-0.699,0.035738608389391684,1.2810546966861305,0.09519446741570696,0.04245059617573415
0.643,-0.0251,2.301,0.034692360377214335,1.306883226373071,0.09198888876401866,0.04432032605550821
0.6440000000000001,-0.0018,0.301,0.033903919310122925,1.2560572519454383,0.08957319972722635,0.040641028619385594
0.645,-0.0086,-0.699,0.03427319994324098,1.2519648049981935,0.09070463137653641,0.04034477597041958
0.6460000000000001,-0.0024,-0.699,0.03471089993131027,1.2519648049981935,0.09204569173819882,0.04034477597041958
0.647,-0.0316,0.301,0.03486643663719435,1.2453261374800653,0.09252223758405262,0.03986420215646353
0.6480000000000001,-0.0365,1.301,0.03510852942190273,1.251964804998194,0.09326398089286324,0.040344775970419605
0.649,-0.0413,0.301,0.03570308951079891,1.2519648049981904,0.09508564182404639,0.04034477597041935
0.6500000000000001,-0.0283,0.301,0.03570466248197363,1.2414109456185605,0.09509046121940841,0.039580781021105405
0.651,0.0315,0.301,0.036331604470482254,1.252175613632242,0.09701133641421793,0.04036003642878759
0.6520000000000001,0.0568,-2.699,0.0363807851873771,1.2980948910074026,0.09716202024283019,0.04368413756836511
0.653,0.018,0.301,0.036399588955934856,1.2930170058948283,0.0972196327384894,0.04331654895081246
0.6540000000000001,0.0111,0.301,0.036509820073836054,1.2943393269425445,0.09755736768678377,0.04341227190537225
0.655,0.0173,-1.699,0.03651742116095547,1.2852598871563783,0.09758065650770964,0.04275501033974825
0.6560000000000001,-0.0,-0.699,0.0367284721847022,1.2852598871563783,0.09822729157727744,0.04275501033974825
0.657,-0.005,-0.699,0.03887716918577649,1.2839282152037836,0.10481064194489835,0.04265861047223732
0.6580000000000001,-0.0189,0.301,0.042229790378324035,1.324683508936743,0.1150826719004558,0.04560889031298303
0.659,-0.0055,-0.699,0.04264393386353067,1.3642218059764148,0.11635155795754984,0.04847107163985256
0.6600000000000001,-0.0013,0.301,0.0426211780634035,1.4250744502274233,0.11628183691030222,0.052876200719921725
0.661,0.0025,1.301,0.046909000564171986,1.425074450227423,0.12941921171122303,0.05287620071992171
0.6620000000000001,-0.001,-0.699,0.05192389670938013,1.434461508777666,0.14478425311288656,0.05355573083903074
0.663,-0.022,1.301,0.052162268643745326,1.4495175528090547,0.14551459618170876,0.0546456393912359
0.6640000000000001,-0.0518,0.301,0.05223767728001262,1.4506972294860163,0.14574563921525135,0.054731036305350714
0.665,-0.0558,0.301,0.052238256428687645,1.4449718915519625,0.1457474136574555,0.05431657851248158
0.6660000000000001,-0.0015,-0.699,0.05224094619993302,1.4461552762798708,0.14575565479452982,0.05440224385277996
0.667,0.0061,-0.699,0.0523014548401915,1.4449718915519625,0.14594104602414049,0.05431657851248158
0.6680000000000001,0.0413,0.301,0.05246715636049814,1.4768551506161838,0.14644873564444558,0.05662461086505848
0.669,0.0475,-0.699,0.052533739213243925,1.4768551506161838,0.14665273753390792,0.05662461086505848
0.6700000000000002,-0.0055,-0.699,0.052544360676560584,1.4780130079395117,0.14668528042590032,0.056708428273954045
0.671,0.0438,-2.699,0.05255378574676617,1.4859151279178957,0.14671415771263352,0.0572804635394618
0.6720000000000002,0.0626,-1.699,0.05247258234255987,1.4893648695285568,0.14646536020387993,0.05753019068402374
0.673,-0.002,-3.699,0.052218901479080676,1.484941192795028,0.14568811240904933,0.057209960277283936
0.6740000000000002,-0.0448,-1.699,0.051691552899753676,1.4475200493499492,0.14407237949657212,0.05450103991353779
0.675,-0.0058,-1.699,0.05190353875170042,1.429040560916234,0.1447218787678264,0.053163307874345235
0.6760000000000002,0.0153,0.301,0.05185591877301856,1.4475200493499492,0.14457597685424595,0.05450103991353779
0.677,0.0344,1.301,0.05154523127509286,1.453235348294703,0.14362406755634974,0.054914770982954816
0.6780000000000002,-0.0066,0.301,0.04954645363477285,1.4520577336305789,0.13750005216161781,0.05482952333815813
0.679,-0.0016,-0.699,0.04936970535657318,1.4520577336305789,0.13695851659765493,0.05482952333815813
0.6800000000000002,-0.0064,-1.699,0.049575057715011896,1.4485191453984356,0.13758769163896759,0.05457336457766933
0.681,-0.002,-1.699,0.049685489805745046,1.4520577336305789,0.13792604234395847,0.05482952333815813
0.6820000000000002,-0.014,-0.699,0.04964328922022917,1.4508791631488545,0.13779674480222462,0.05474420650162856
0.683,-0.0104,-0.699,0.04993483375031805,1.4508791631488545,0.1386900023384798,0.05474420650162856
0.6840000000000002,-0.0073,0.301,0.04999400162056073,1.455406374379958,0.13887128560928008,0.05507193178113306
0.685,-0.0281,-0.699,0.0499667874069114,1.4565812817425148,0.1387879045167653,0.055156983444095115
0.6860000000000002,-0.0471,1.301,0.04982600697107984,1.4184121324682843,0.1383565701157203,0.052393914862623785
0.687,-0.0493,2.301,0.0497324985864686,1.4137664619755739,0.13807007162016777,0.05205761430517481
0.6880000000000002,-0.0157,0.301000000000111,0.049807601233828755,1.414975944934678,0.1383001771403321,0.0521451688990725
0.6890000000000001,0.0565,1.300999999999889,0.04984879173348913,1.4324430102217771,0.13842637989993292,0.05340961152415025
0.6900000000000002,0.0463,0.30099999999988897,0.04958717035467415,1.4230426367679643,0.13762480331675814,0.05272911753782335
0.6910000000000001,0.018,-0.699000000000222,0.04945339705298531,1.427658122445922,0.1372149379358269,0.05306323301347546
0.6920000000000002,-0.0074,-2.698999999999778,0.049479863711955,1.427658122445922,0.1372960286103011,0.05306323301347546
0.6930000000000001,-0.015,-0.6989999999997779,0.04965425829758035,1.4264593926393285,0.1378303527420022,0.05297645684137702
0.6940000000000002,-0.0502,1.300999999999889,0.05068455834339835,1.4264593926393285,0.14098706873406835,0.05297645684137702
0.6950000000000001,-0.0562,0.301,0.052220567602048094,1.464418810190037,0.14569321721035194,0.055724342922142414
0.6960000000000002,-0.0386,0.301000000000111,0.05265096634312459,1.4813029752308762,0.1470119074253394,0.05694658933936125
0.6970000000000001,0.0413,1.301,0.05288130412660967,1.4979968482000512,0.14771763481771968,0.05815506049424085
0.6980000000000002,0.0753,1.3009999999996669,0.053713633287239354,1.4979968482000512,0.15026779171879667,0.05815506049424085
0.6990000000000001,0.0444,-1.699,0.05741451346310417,1.5365874969885545,0.1616068455054028,0.060948641468236975
0.7000000000000002,0.0724,-1.699000000000222,0.05783642388988567,1.6056798294136396,0.16289952854161793,0.0659502424096867
0.7010000000000001,0.0294,-3.6989999999996668,0.05776756710693571,1.6274125665596826,0.16268855960224668,0.06752347745263138
0.7020000000000002,-0.0209,-0.699,0.05770908278883789,1.635638802813775,0.16250937065338286,0.06811897552816194
0.7030000000000001,-0.0285,-0.699,0.057430587530682524,1.6223109990175206,0.16165609452406302,0.06715417446160249
0.7040000000000002,-0.007500000000007083,-0.699,0.05740872617057537,1.6274125665596826,0.16158911393395367,0.06752347745263138
0.7050000000000001,-0.0394,0.301,0.0573987658303943,1.632498191747703,0.16155859664409852,0.06789162637502943
0.7060000000000002,-0.12760000000000826,0.301,0.05738783651053888,1.6242560495764868,0.16152511051652818,0.06729497686854743
0.7070000000000001,-0.1649,3.301,0.057432464062501735,1.6242560495764866,0.16166184399289724,0.06729497686854742
0.7080000000000002,-0.06199999999998464,3.301,0.057448397814681626,1.6283012875730674,0.16171066310197527,0.06758781205679387
0.7090000000000001,0.0072,4.301,0.05742371462449949,1.6365230565396305,0.16163503676234786,0.06818298674492779
0.7100000000000002,0.19600000000000595,1.301,0.05749709905009448,1.6354774222987494,0.1618598778567306,0.06810729317633574
0.7110000000000001,0.2228,-1.699,0.05750720533709732,1.6354774222987496,0.16189084231017478,0.06810729317633575
0.7120000000000002,0.050199999999995096,-2.699,0.05758402745095828,1.6304010900958743,0.16212621606984173,0.06773981697407348
0.7130000000000001,0.0281,-0.699,0.05763661248422291,1.6344311191090646,0.16228733031624362,0.06803155118247203
0.7140000000000002,0.007799999999995892,0.301,0.05772458945103684,1.6344311191090646,0.16255688120989084,0.06803155118247203
0.7150000000000001,-0.0107,-0.699,0.05754894973388408,1.6394949732692858,0.16201874214425788,0.06839812409796289
0.7160000000000002,-0.027400000000003352,0.301,0.05728030577406424,1.6445432349556526,0.16119564921363302,0.06876356827269231
0.7170000000000001,-0.0425,3.301,0.05731384043837101,1.6836823925102269,0.16129839541027294,0.07159685585181352
0.7180000000000002,0.02669999999999172,0.301,0.05746773052562506,1.6906234691928936,0.1617698962137788,0.07209932109581645
0.7190000000000001,-0.0106,-0.699,0.05732050556061649,1.6916350168764738,0.1613188165468795,0.07217254713507341
0.7200000000000002,-0.021799999999997734,-1.699,0.05717009254496525,1.6916350168764738,0.16085796907448693,0.07217254713507341
0.7210000000000001,-0.0116,-1.699,0.05728920637661827,1.6916350168764736,0.1612229195942715,0.0721725471350734
0.7220000000000002,-0.039800000000005595,-0.699,0.0576362687640413,1.6707378858193493,0.1622862771987576,0.07065980170153
0.7230000000000001,-0.065,0.301,0.05774553199290126,1.6676633760749051,0.16262104665090604,0.07043723762976441
0.7240000000000002,-0.05729999999998905,0.301,0.05774517515936179,1.6270881577081617,0.1626199533556615,0.06749999346301588
0.7250000000000001,-0.008,2.301,0.05765351266481248,1.619874858505214,0.16233911044626734,0.066977822003201
0.7260000000000002,0.08849999999999693,1.301,0.05795232263970396,1.6167036246655504,0.16325462843557298,0.06674825606438693
0.7270000000000001,0.0747,0.301,0.05882094428159901,1.617761393328318,0.16591598115428308,0.06682482804500822
0.7280000000000002,0.011899999999987344,-0.699,0.05891279844339535,1.620930557721132,0.16619741130917562,0.06705424417635528
0.7290000000000001,-0.0451,1.301,0.058922243120822664,1.6219855698158945,0.16622634867008879,0.06713061660873954
0.7300000000000002,-0.034999999999989546,-1.699,0.05895439544027117,1.6209305577211317,0.16632485952757842,0.06705424417635526
0.7310000000000001,0.0121,0.301,0.0590664843668651,1.6177613933283181,0.16666828657928903,0.06682482804500824
0.7320000000000002,0.05489999999999487,-0.699,0.059152409670631706,1.609443784128503,0.1669315514229859,0.06622271547268319
0.7330000000000001,0.0318,1.301,0.05919798360048878,1.6135261580762086,0.16707118448792177,0.06651823893619244
0.7340000000000002,0.024899999999992914,-0.699,0.05922660654766218,1.612465611124565,0.16715888177129964,0.06644146583495804
0.7350000000000001,-0.007,0.301,0.059285244487590844,1.6288654688419213,0.16733854139906146,0.06762865319598263
0.7360000000000002,-0.001200000000005884,-0.699,0.05922665268541308,1.6328992878043358,0.16715902313184475,0.06792066175918934
0.7370000000000001,-0.0277,-0.699,0.05905748884433279,1.6278149157225337,0.16664072537520094,0.06755260354927733
0.7380000000000002,-0.022999999999997092,2.301,0.05885107602369206,1.612465611124565,0.16600830120466065,0.06644146583495804
0.7390000000000001,-0.0099,0.301,0.05886871197645026,1.6207677127006888,0.16606233565252185,0.06704245580883357
0.7400000000000002,0.0021999999999943822,1.301,0.058615151662478264,1.6239310101551678,0.165285457206949,0.0672714472319204
0.7410000000000001,-0.0231,0.301,0.05846370967092761,1.629027504373923,0.16482145707559043,0.06764038296455409
0.7420000000000002,-0.05290000000001151,0.301,0.058436701078257575,1.6279770558180098,0.1647387059811391,0.06756434088720929
0.7430000000000001,-0.1047,2.301,0.05843573775616075,1.6062519562818685,0.16473575447756408,0.06599165873161886
0.7440000000000002,-0.12569999999998713,3.301,0.05842553299299125,1.6051866032715574,0.1647044883049349,0.06591453771931079
0.7450000000000001,-0.0677,2.301,0.05820917979591972,1.6051866032715583,0.16404160801108023,0.06591453771931086
0.746,0.0494,2.301,0.057944250763961834,1.610342421842519,0.16322989717467035,0.06628776794780868
0.7470000000000001,0.0994,0.301,0.057816866768440736,1.6103424218425189,0.16283960786290438,0.06628776794780866
0.748,0.2061,-3.699,0.057674488208550125,1.6051866032715578,0.16240337700107113,0.06591453771931083
0.7490000000000001,0.0811,-4.699,0.05722308006790372,1.6051866032715607,0.16102031650106308,0.06591453771931104
0.75,-0.0026,-2.699,0.05717618283603297,1.6019862933595692,0.16087662899718405,0.06568286696067652
0.7510000000000001,-0.0177,-1.699,0.05706785414995692,1.6101785059938274,0.16054472287224134,0.06627590206292161
0.752,-0.0039,-1.699,0.05704505540138481,1.5849753710210837,0.16047487023610024,0.06445144456984395
0.7530000000000001,0.0085,1.301,0.057060381892867315,1.589120604381466,0.1605218287711032,0.06475151843260285
0.754,-0.0028,1.301,0.05747340045311642,1.593255052964217,0.16178726819280423,0.0650508115842168
0.7550000000000001,-0.0131,0.301,0.05762586375700986,1.5973788005111074,0.16225439750290876,0.06534933008676108
0.756,-0.0226,-0.699,0.05750005361008959,1.6025597388507709,0.1618689302748334,0.06572437873785923
0.7570000000000001,-0.0144,1.301,0.05620077020577071,1.603626836992417,0.15788808147521677,0.06580162608040138
0.758,0.0087,-1.699,0.053916356071472264,1.5701287511760669,0.15088891005955743,0.06337669625569929
0.7590000000000001,0.0296,0.301,0.05359280279640069,1.5435060330150898,0.14989758156078706,0.06144947499185977
0.76,0.0109,0.301,0.05377442715206831,1.4830770218158742,0.15045405684234398,0.057075012751312534
0.7610000000000001,-0.0298,0.301,0.050085797463898546,1.5141581229067649,0.13915253708339761,0.05932497680696297
0.762,-0.0246,1.301,0.045034895627183984,1.522822891283529,0.1236771785535877,0.05995222026726527
0.7630000000000001,-0.0387,1.301,0.04488012047414128,1.5007154716145967,0.12320296601446616,0.058351861918543343
0.764,-0.0257,1.301,0.04507985457583547,1.5007154716145972,0.12381492738973568,0.05835186191854338
0.7650000000000001,-0.0057,1.301,0.04592105499678538,1.509632259266186,0.12639226477035967,0.058997349079673016
0.766,0.0197,-3.699,0.04593546509273128,1.5173697222344902,0.12643641557915006,0.05955746480754577
0.7670000000000001,0.0425,-1.699,0.04689871706735352,1.5173697222344895,0.12938770430811944,0.05955746480754572
0.768,0.0036,-0.699,0.047440041297331634,1.5043067401215302,0.13104625694101593,0.05861183420945931
0.7690000000000001,-0.023,-0.699,0.04738562986721408,1.5098070912001338,0.13087954683331432,0.05901000518107728
0.77,-0.0373,-0.699,0.047373982429113504,1.5086736349858298,0.1308438604774145,0.05892795417093514
0.7710000000000001,-0.0768,0.301,0.04734083728897441,1.5052681454447885,0.1307423077361902,0.058681430438174524
0.772,-0.0719,1.301,0.047360890633980544,1.4974681545708868,0.13080374878448697,0.05811678830888317
0.7730000000000001,0.0002,0.301,0.047281848341617,1.5018549339001506,0.1305615726636896,0.058434347708791516
0.774,0.0309,-0.699,0.04683377573937626,1.5029935323270949,0.12918873185402327,0.05851677096422746
0.7750000000000001,0.0591,1.301,0.04648314369388831,1.5041312688571864,0.12811443724458849,0.05859913182686294
0.776,0.1019,-0.699,0.04654251120777968,1.4863557802315144,0.12829633219962686,0.057312362405070906
0.7770000000000001,0.0476,-1.699,0.045697921990626174,1.4819231211170631,0.12570861195314434,0.05699148176286645
0.778,0.0125,-0.699,0.045083853801571656,1.4819231211170634,0.12382718053860094,0.05699148176286647
0.7790000000000001,-0.0195,0.301,0.04507105666263521,1.480768321232084,0.12378797163698306,0.05690788568224259
0.78,-0.0369,1.301,0.044938382919330014,1.4842300254256533,0.12338147517129934,0.057158478799392745
0.7810000000000001,-0.0319,0.301,0.04499930619914644,1.475159698778857,0.12356813680687458,0.05650187693485066
0.782,-0.0271,1.301,0.04508531253030222,1.4763188858231748,0.12383164990879125,0.05658579060238334
0.7830000000000001,0.0212,0.301,0.04476698381807947,1.475159698778857,0.12285632884510095,0.05650187693485066
0.784,0.0274,2.301,0.04480770758724866,1.4751596987788569,0.12298110159835414,0.05650187693485065
0.7850000000000001,0.0099,1.301,0.045113881992204445,1.4919223135575022,0.12391918331970155,0.057715324316279494
0.786,0.0149,0.301,0.0459987102709075,1.4919223135575024,0.12663019123332023,0.05771532431627951
0.7870000000000001,0.0006,-0.699,0.046149232440261055,1.4997511478334073,0.1270913731395887,0.05828205442236294
0.788,-0.0213,-1.699,0.04608152838659457,1.5075393265730999,0.1268839360247364,0.05884584147006264
0.7890000000000001,0.0145,-1.699,0.04612710016923031,1.498786203603398,0.12702356251084315,0.05821220201182963
0.79,0.0192,1.301,0.04613625912593027,1.5427395590504893,0.12705162445765444,0.06139398986393911
0.7910000000000001,-0.0026,0.301,0.04617337801167259,1.5460625130536787,0.12716535227966713,0.06163453884075599
0.792,-0.0066,0.301,0.04623213427766703,1.5471685784059566,0.1273453744443284,0.0617146070236221
0.7930000000000001,-0.0103,0.301,0.04594181107548131,1.5471685784059566,0.12645585891055017,0.0617146070236221
0.794,-0.0005,1.301,0.04490375866548076,1.5353019005210544,0.12327539060274775,0.060855577009758244
0.7950000000000002,-0.0092,1.301,0.04332073535495318,1.504657621260487,0.11842519670006917,0.05863723453064323
0.796,0.0043,0.301,0.04279262263177953,1.4868884250981889,0.11680712254232974,0.05735092062091209
0.7970000000000002,-0.0076,0.301,0.042868566709582015,1.4700684119800447,0.11703980610463269,0.056133318167874
0.798,0.0219,1.301,0.04186285526342017,1.4791699589212985,0.11395842663814679,0.056792180072693654
0.7990000000000002,-0.0378,1.301,0.036491462872070765,1.4332684690691502,0.09750112341831337,0.0534693665737084
0.8,-0.0632,2.301,0.03558644827537664,1.3566772797833737,0.09472826704309167,0.04792492262468041
0.8010000000000002,-0.0245,2.301,0.035647008304989763,1.331814780668359,0.0949138157235326,0.046125123795841015
0.802,0.0248,1.301,0.03576518190683305,1.3216988985896156,0.0952758854917452,0.045392834067693594
0.8030000000000002,0.0745,1.301,0.03576810974263683,1.3115049931507305,0.09528485603012522,0.04465489622060384
0.804,0.0426,1.301,0.03626523441025649,1.305169208492198,0.09680798649556124,0.04419624812752783
0.8050000000000002,-0.0103,1.301,0.03645479963397066,1.298802517141464,0.09738879164612592,0.043735362695873345
0.806,0.039,-0.699,0.03669871236757931,1.309095340304406,0.09813611106048127,0.04448046120702529
0.8070000000000002,0.0453,-0.699,0.03665468094812891,1.314111098245884,0.09800120406276093,0.044843552432370454
0.808,-0.0192,-1.699,0.03795799501131646,1.3077879393349123,0.10199440231859758,0.04438581831843903
0.8090000000000002,-0.0447,-0.699,0.0381894166256535,1.3480177764939012,0.10270345043895117,0.04729806030458037
0.81,0.0096,3.301,0.038093921518332144,1.349286197024343,0.10241086486286682,0.04738988139523599
0.8110000000000002,-0.0397,2.301,0.038458527099654284,1.3893557119290423,0.10352797271317501,0.05029051763715296
0.812,-0.0335,-0.699,0.038449403480035664,1.3905864266584471,0.10350001903495037,0.05037960920105293
0.8130000000000002,-0.0508,-0.699000000000111,0.038383586580365545,1.3846125543788637,0.10329836393401139,0.04994715998174105
0.8140000000000001,-0.0878,-1.699,0.03845376161963386,1.379853092621554,0.1035133718529194,0.04960262206312374
0.8150000000000002,-0.0157,-1.698999999999778,0.038390457470720556,1.3738325490954566,0.10331941551947081,0.04916679430755017
0.8160000000000001,0.0985,0.3009999999996669,0.03862252948396073,1.3690356110882673,0.10403045638419738,0.04881954347940874
0.8170000000000002,0.0832,-2.6989999999995558,0.038667267359656414,1.3206038608217332,0.10416752787927579,0.04531356417277867
0.8180000000000001,0.014,1.300999999999889,0.038468103950829786,1.3167120452121295,0.10355731503862871,0.04503183524666305
0.8190000000000002,0.0017,0.301000000000111,0.03854543904305613,1.315412214581367,0.10379426050259302,0.04493774037566421
0.8200000000000001,0.0128,1.300999999999778,0.03859148362054184,1.315412214581367,0.10393533557551674,0.04493774037566421
0.8210000000000002,-0.018,-0.6989999999997779,0.03841198360719254,1.315412214581367,0.10338536902449524,0.04493774037566421
0.8220000000000001,0.029,1.300999999999778,0.037671085507315794,1.315412214581367,0.10111534594736776,0.04493774037566421
0.8230000000000002,0.0036,-0.699,0.037154010128415925,1.315412214581367,0.09953108889108378,0.04493774037566421
0.8240000000000001,-0.0039,-0.6989999999998889,0.03719727708329839,1.315412214581367,0.09966365366089026,0.04493774037566421
0.8250000000000002,-0.0248,0.30099999999988897,0.03709829663439445,1.3204039771206957,0.09936038941546467,0.04529909457141771
0.8260000000000001,-0.0059,-0.6989999999998889,0.03664497276694771,1.3141110982458841,0.09797145935789271,0.04484355243237047
0.8270000000000002,0.0,0.301,0.03520093843951824,1.314111098245884,0.09354711105955796,0.044843552432370454
0.8280000000000001,-0.005,0.30099999999977795,0.03489503461422573,1.3038578707279784,0.0926098583619048,0.044101320253972676
0.8290000000000002,-0.02900000000000291,-1.698999999999778,0.03492760143107184,1.3128086923829194,0.09270963918979673,0.04474927114005171
0.8300000000000001,-0.0421,0.30099999999988897,0.03514769575452688,1.3128086923829194,0.09338398184699993,0.04474927114005171
0.8310000000000002,-0.030299999999995983,-0.6989999999998889,0.03496125614977018,1.3128086923829194,0.09281275321871942,0.04474927114005171
0.8320000000000001,-0.0122,0.301000000000111,0.03491008008581243,1.3128086923829194,0.09265595588559093,0.04474927114005171
0.8330000000000002,0.037100000000004664,1.301,0.03493468030995111,1.3064792300427144,0.09273132802719394,0.04429108072023971
0.8340000000000001,0.0581,2.301,0.0351241788517277,1.3128086923829194,0.0933119288722851,0.04474927114005171
0.8350000000000002,0.09009999999998827,0.301,0.03580608891090366,1.2988025171414643,0.0954012196547993,0.043735362695873366
0.8360000000000001,0.0373,-1.699,0.03580390680760439,1.298802517141464,0.09539453395153344,0.043735362695873345
0.8370000000000002,-0.012000000000004174,-1.699,0.035825951129332116,1.298802517141464,0.09546207511414391,0.043735362695873345
0.8380000000000001,-0.0308,-1.699,0.03593409639603308,1.3038578707279784,0.0957934192640805,0.044101320253972676
0.8390000000000002,-0.013500000000001133,-3.699,0.036045572429881004,1.2999159202997475,0.09613496848579334,0.04381596206325932
0.8400000000000001,-0.0186,-1.699,0.03626366411642827,1.2895498316757805,0.09680317530326839,0.04306555985796395
0.8410000000000002,-0.03279999999999521,-0.699,0.036964619045837824,1.3101999966884619,0.0989508172881117,0.044560427394539116
0.8420000000000001,-0.0112,0.301,0.037024787107343214,1.3204039771206957,0.09913516502519726,0.04529909457141771
0.8430000000000002,-0.03920000000000082,1.301,0.03704506317709552,1.3305297043921478,0.09919728847545153,0.046032096994062376
0.8440000000000001,-0.0429,1.301,0.037038720306400576,1.3367452930655874,0.09917785467901562,0.04648204408760488
0.8450000000000002,0.006400000000010925,0.301,0.03706340946583181,1.3305297043921478,0.0992534993077076,0.046032096994062376
0.8460000000000001,0.0556,-0.699,0.03726650642890844,1.3305297043921478,0.09987576408764855,0.046032096994062376
0.8470000000000002,0.036799999999996134,-1.699,0.037530454415240354,1.3367452930655874,0.10068446911771198,0.04648204408760488
0.8480000000000001,0.0194,0.301,0.03865168331898986,1.3367452930655874,0.1041197802444069,0.04648204408760488
0.8490000000000002,-0.0069000000000031085,-0.699,0.039064842346215226,1.3367452930655874,0.10538565004010639,0.04648204408760488
0.8500000000000001,-0.0209,-0.699,0.03888907224308869,1.3367452930655874,0.10484711148745969,0.04648204408760488
0.8510000000000002,-0.033999999999993785,0.301,0.03847969270155462,1.3167120452121295,0.10359282158343538,0.04503183524666305
0.8520000000000001,-0.006,0.301,0.038992943420942616,1.2963692535232445,0.10516536034086618,0.04355921849612617
0.8530000000000002,-0.060399999999994854,0.301,0.040410983418867466,1.2912845824813832,0.10951006512566007,0.04319113864446521
0.8540000000000001,-0.0372,0.301,0.040362104231129535,1.2848490917967654,0.1093603051462853,0.04272527282206334
0.8550000000000002,-0.044199999999987125,-1.699,0.04014656053227528,1.2848490917967654,0.10869990505805457,0.04272527282206334
0.8560000000000001,0.0138,1.301,0.040362276868845616,1.279718648830546,0.10936083408757905,0.04235387953616263
0.8570000000000002,0.09969999999998738,0.301,0.040306932364257565,1.279718648830546,0.10919126515140824,0.04235387953616263
0.8580000000000001,0.0429,-3.699,0.040273018207939694,1.2848490917967654,0.10908735623667938,0.04272527282206334
0.8590000000000002,0.012099999999985345,-0.699,0.04022712207585892,1.2808486411283788,0.10894673598270439,0.042435679793040616
0.8600000000000001,-0.0539,3.301,0.04060603381665948,1.2795123781126785,0.11010767619290997,0.042338947578006506
0.8610000000000002,-0.028599999999991407,-0.699,0.04066602838541315,1.2372700548752373,0.11029149236897494,0.039281021520835215
0.8620000000000001,0.0101,0.301,0.040471609467398015,1.217004985980555,0.10969581608016013,0.0378140311312419
0.8630000000000002,0.04519999999999291,-0.699,0.040342099427507654,1.2170049859805552,0.10929901282297845,0.03781403113124191
0.8640000000000001,0.0133,0.301,0.040051439226566295,1.2170049859805545,0.1084084647653587,0.03781403113124186
0.8650000000000002,0.04269999999999654,-0.699,0.039109815005318134,1.2059264092090463,0.10552344088343608,0.03701205183679007
0.8660000000000001,0.0271,-0.699,0.03907833814370491,1.1961760692686418,0.10542699954788745,0.036306223741056604
0.8670000000000002,-0.016299999999990895,1.301,0.03781951061634068,1.1961760692686427,0.1015701027118509,0.036306223741056666
0.8680000000000001,0.0247,0.301,0.036893892710478396,1.173521165443382,0.09873412026398211,0.03466623295881267
0.8690000000000002,0.029799999999992628,-0.699,0.037457742137867095,1.1735211654433833,0.10046168740501053,0.03466623295881277
0.8700000000000001,-0.0034,-0.699,0.03821141944551326,1.1805636831644208,0.10277086444480683,0.0351760415298566
0.8710000000000002,-0.016300000000004394,0.301,0.0385190953685903,1.1805636831644233,0.10371354663791485,0.03517604152985678
0.8720000000000001,-0.0361,1.301,0.03847888509866768,1.1805636831644246,0.10359034718487664,0.03517604152985688
0.873,-0.0179,0.301,0.0389600299467219,1.1749779748916416,0.10506451739628056,0.034771691542307866
0.8740000000000001,-0.0147,1.301,0.039036390495274756,1.1749779748916416,0.10529847697510243,0.034771691542307866
0.875,0.0121,0.301,0.03916587062445827,1.1849027627688768,0.10569518858945928,0.03549014794185541
0.8760000000000001,0.0012,-0.699,0.039279771858053265,1.1863455959180575,0.10604416833285037,0.035594594779644856
0.877,0.0109,0.301,0.03953296260451143,1.1961760692686614,0.10681991446780574,0.03630622374105802
0.8780000000000001,0.0196,-1.699,0.039563980283952416,1.1961760692686614,0.10691494892415228,0.03630622374105802
0.879,0.0439,0.301,0.039618270679597174,1.1976053208081032,0.10708128819671957,0.03640968740474301
0.8800000000000001,0.0076,1.301,0.03951834774524933,1.1877866764242788,0.10677513628872894,0.035698914743432966
0.881,-0.0257,0.301,0.03932004310448055,1.2099564278176835,0.10616755461059872,0.037303785292001984
0.8820000000000001,-0.0301,0.301,0.03990004005031768,1.230337600013416,0.1079445958149597,0.03877918041131647
0.883,-0.0421,1.301,0.03988250534394318,1.2370567061658568,0.10789087157389687,0.03926557718615667
0.8840000000000001,-0.0747,1.301,0.04008949454734422,1.2303376000134156,0.10852506171220977,0.038779180411316436
0.885,-0.009,1.301,0.040188353379389474,1.209956427817684,0.10882795333814041,0.03730378529200201
0.8860000000000001,0.0195,0.301,0.03922756377528723,1.209956427817684,0.10588420901764738,0.03730378529200201
0.887,0.0279,1.301,0.03907685142450355,1.227768656121414,0.10542244441824566,0.03859321430280942
0.8880000000000001,0.0355,1.301,0.03911292973636291,1.2181931526721574,0.10553298404645928,0.03790004263837638
0.889,0.0423,0.301,0.03899162766377676,1.2071254805295202,0.10516132901843346,0.0370988527311129
0.8900000000000001,0.0742,-2.699,0.038998686120847,1.1576032770597047,0.10518295528585273,0.03351393540666366
0.891,0.0213,-1.699,0.038954133962721044,1.1928699712772892,0.1050464528071737,0.03606689497264365
0.8920000000000001,-0.0139,-1.699,0.03881813918788709,1.1914350392019812,0.10462978109848234,0.03596302009439201
0.893,-0.0077,1.301,0.03881110156405322,1.2026471153717238,0.10460821866160515,0.036774663423801895
0.8940000000000001,-0.0135,0.301,0.03861387785710656,1.1971644480127341,0.10400394883529566,0.03637777257843767
0.895,-0.0399,1.301,0.03838124179481214,1.1916565558328205,0.1032911797917953,0.035979055705732156
0.8960000000000001,-0.0446,1.301,0.03837819576757225,1.1930912214898712,0.10328184712900502,0.03608291129793916
0.897,-0.0927,0.301,0.03800951777499786,1.1930912214898706,0.10215226189817216,0.03608291129793911
0.8980000000000001,-0.0607,1.301,0.03784055281690109,1.1817884884032699,0.10163457349517942,0.03526470530513676
0.899,-0.0078,1.301,0.03780039410029148,1.18178848840327,0.10151153199532026,0.03526470530513678
0.9000000000000001,-0.0288,0.301,0.03786975366235815,1.1873421578672174,0.101724041389712,0.0356667360000695
0.901,0.0677,0.301,0.03782568845817233,1.1928699712772854,0.10158903087960705,0.03606689497264337
0.9020000000000001,0.109,-0.699,0.03782749335847441,1.1928699712772854,0.10159456087804856,0.03606689497264337
0.903,0.0718,0.301,0.03785305971794328,1.1928699712772854,0.10167289314263682,0.03606689497264337
0.9040000000000001,-0.0087,1.301,0.03792113656414487,1.1928699712772854,0.10188147244918569,0.03606689497264337
0.905,-0.0429,-0.699,0.03779063790694073,1.1928699712772854,0.10148164018691261,0.03606689497264337
0.9060000000000001,-0.0327,-0.699,0.037557174055453016,1.1815651217353054,0.10076633489642753,0.03524853576942177
0.907,-0.0421,1.301,0.03754264825300194,1.1815651217353043,0.10072182957675775,0.035248535769421684
0.9080000000000001,0.0008,1.301,0.03627801001314876,1.1815651217353043,0.09684712941331808,0.035248535769421684
0.909,0.0712,0.301,0.03631941015910588,1.1235705914422796,0.09697397450407312,0.03105030584822115
0.9100000000000001,0.0241,-0.699,0.036543114843260505,1.1294105730336725,0.0976593788742247,0.03147306270705539
0.911,-0.0012,-0.699,0.03615519543806647,1.0873871775747377,0.0964708402587221,0.028430984853941674
0.9120000000000001,-0.0088,-0.699,0.03624839550243459,1.0873871775747377,0.09675639409796205,0.028430984853941674
0.913,-0.0157,-0.699,0.03651110370938415,1.0949838164178964,0.0975613005924253,0.028980906309133442
0.9140000000000001,0.0162,0.301,0.03628441424816936,1.0949838164178964,0.09686675122270122,0.028980906309133442
0.915,-0.0012,-0.699,0.03626443237781457,1.11899371166392,0.09680552916417916,0.030718985057550687
0.9160000000000001,0.0039,0.301,0.036589830550527044,1.1174639193309746,0.09780251020844868,0.03060824323564189
0.917,-0.0007,1.301,0.03723511519755875,1.1159320298609994,0.09977958511297565,0.030497349601771123
0.9180000000000001,-0.0662,1.301,0.03733101642841637,1.1159320298609994,0.10007341500295369,0.030497349601771123
0.919,-0.0755,1.301,0.037453724022152766,1.1233356486521904,0.10044937637951376,0.0310332983158532
0.9200000000000002,-0.0502,1.301,0.03879080635904101,1.1218117773476906,0.10454603658320541,0.030922985117793216
0.921,0.004,-0.699,0.039985266867971665,1.1322027113255106,0.10820572058083083,0.03167518588077018
0.9220000000000002,0.0676,-0.699,0.04017902890244507,1.1439954593469954,0.10879938425711635,0.03252886410433414
0.923,0.0247,-0.699,0.04076096915328391,1.138230311703325,0.11058237951534859,0.03211152448255421
0.9240000000000002,0.0321,-1.699,0.04072726907646693,1.1397322309284321,0.11047912651458071,0.032220248567363795
0.925,0.0389,-0.699,0.041129412002967936,1.1324358144963247,0.11171124429651687,0.0316920602429125
0.9260000000000002,0.0451,-1.699,0.04125072656508966,1.1324358144963247,0.1120829375909844,0.0316920602429125
0.927,0.0157,0.301,0.04133328117473483,1.1324358144963247,0.11233587503143534,0.0316920602429125
0.9280000000000002,-0.0213,-0.699,0.04145086463031263,1.1324358144963247,0.11269613666214327,0.0316920602429125
0.929,-0.0072,-0.699,0.04140482865861146,1.1439954593469954,0.11255508795631311,0.03252886410433414
0.9300000000000002,0.0146,2.301,0.04120394212265297,1.1439954593469954,0.1119395956604281,0.03252886410433414
0.931,0.0743,2.301,0.041320038149615594,1.1439954593469954,0.11229529998793523,0.03252886410433414
0.9320000000000002,-0.0031,1.301,0.04124005891029304,1.1454898195721321,0.11205025317382745,0.03263704099237035
0.933,-0.055,0.301,0.04115512680752808,1.1454898195721321,0.11179003137909281,0.03263704099237035
0.9340000000000002,-0.0645,-0.699,0.040939636848696684,1.1454898195721321,0.11112979594385834,0.03263704099237035
0.935,-0.0219,0.301,0.040363056107739825,1.138230311703325,0.10936322158225982,0.03211152448255421
0.9360000000000002,-0.0144,-2.699,0.04038815956427857,1.1427301473623626,0.10944013556768925,0.032437268041624445
0.937,0.0207,-0.699,0.04049309621167616,1.1427301473623626,0.10976164889221869,0.032437268041624445
0.9380000000000002,0.0019,0.301000000000111,0.04078392056780276,1.1369585837507505,0.11065269990167322,0.03201946396727545
0.9390000000000001,-0.0154,1.301000000000222,0.04093517205697265,1.1311575719758136,0.11111611635654423,0.03159952813740106
0.9400000000000002,0.0002,3.300999999999667,0.04076817259648573,1.142961103499119,0.11060445000291717,0.03245398697975389
0.9410000000000001,-0.0045,0.30099999999977795,0.04009221382979825,1.1133361813209064,0.10853339326809432,0.030309435863064046
0.9420000000000002,0.0085,-1.698999999999889,0.04008552933046885,1.101215156617685,0.10851291276242246,0.029431993657263563
0.9430000000000001,-0.0035,-0.699,0.0400673465256273,1.138230311703325,0.10845720282524746,0.03211152448255421
0.9440000000000002,-0.0072,-0.699,0.04010473546147552,1.138230311703325,0.10857175804845401,0.03211152448255421
0.9450000000000001,-0.0041,-0.699,0.04008689229922141,1.1613464646721678,0.10851708873550464,0.03378490513701425
0.9460000000000002,0.0165,-0.6989999999998889,0.0401192492098838,1.1556678772382005,0.10861622643597978,0.03337383161758095
0.9470000000000001,0.0084,0.301,0.03992301854637527,1.1499612488923068,0.10801499917587679,0.0329607282136935
0.9480000000000002,-0.0084,0.301000000000111,0.0393409320574534,1.1615737193254931,0.10623155586166588,0.033801356124383265
0.9490000000000001,-0.0239,1.301,0.038935861258970486,1.1659834701393577,0.10499046743050426,0.03412057843238825
0.9500000000000002,-0.0102,1.300999999999889,0.0393396490629807,1.1588523496869956,0.10622762492020263,0.033604355900650765
0.9510000000000001,-0.0342,0.301,0.03926536509287775,1.1603275762093752,0.10600002772914167,0.033711147698006656
0.9520000000000002,0.0152,0.301,0.038683327879914686,1.190220160862029,0.10421673539056919,0.03587507492832833
0.9530000000000001,0.0646,0.301,0.037117440378077175,1.1957346695018627,0.09941904355420471,0.03627427076723752
0.954,0.02,0.301,0.03642160938056121,1.195734669501862,0.09728710068324224,0.03627427076723747
0.9550000000000003,0.014099999999997734,0.301000000000111,0.03644352730677488,1.1902201608620286,0.0973542545851298,0.035875074928328296
0.9560000000000002,0.009,1.300999999999889,0.03625373652926952,1.1957346695018598,0.0967727583647524,0.036274270767237306
0.9570000000000001,-0.0244,0.301,0.03621201114362395,1.1943031793107932,0.09664491677852989,0.036170645047334485
0.958,-0.0462,0.301000000000111,0.03603285944168529,1.1887820303089918,0.09609601741197049,0.035770968511949955
0.9590000000000003,-0.042099999999985475,1.301,0.036038349831040394,1.1887820303089918,0.09611283930764085,0.035770968511949955
0.9600000000000002,-0.0094,1.301,0.03537237774499604,1.188782030308991,0.09407238056669537,0.035770968511949906
0.9610000000000001,0.0387,-0.699,0.03535871243508656,1.188782030308991,0.09403051169315421,0.035770968511949906
0.962,0.0449,1.301,0.035453691313749036,1.1873421578671897,0.09432151560643105,0.03566673600006749
0.9630000000000003,-0.019699999999988765,-0.699,0.03544273933208163,1.1859005371918259,0.09428796004578185,0.03556237693338044
0.9640000000000002,0.0056,2.301,0.03552583056184241,1.184457161899496,0.09454254162602244,0.035457890849793526
0.9650000000000001,-0.0647,0.301,0.03548919317017201,1.184457161899496,0.09443028904420128,0.035457890849793526
0.966,-0.0741,0.301,0.03550871151925125,1.1899983768481726,0.09449009092902819,0.035859019961104494
0.9670000000000003,-0.031299999999968735,1.301,0.036029101990448086,1.2012238627229277,0.09608450503122466,0.03667163402041827
0.9680000000000002,0.0391,1.301,0.03862228287050537,1.1943031793107834,0.10402970079009491,0.03617064504733378
0.9690000000000001,0.1053,0.301,0.03863088919836181,1.1943031793107834,0.10405606954829079,0.03617064504733378
0.97,0.0971,-1.699,0.03862166390604609,1.23268708626241,0.10402780435709458,0.038949259958820995
0.9710000000000003,0.0427000000000155,-1.699,0.0440226659605311,1.23268708626241,0.12057582803988368,0.038949259958820995
0.9720000000000002,0.0776,-0.699,0.045757476862458166,1.2595078737792105,0.12589108095048213,0.04089081948338769
0.9730000000000001,0.0069,-0.699,0.045442742218225515,1.310199996688439,0.1249267716808289,0.04456042739453746
0.974,-0.0592,0.301,0.04537783661287772,1.3152115418626291,0.12472790867659264,0.04492321365723202
0.9750000000000003,-0.033799999999996576,0.301,0.0453003382058881,1.3049669606449692,0.12449046283574582,0.04418160738538466
0.9760000000000002,-0.0261,-0.699,0.04523516456821458,1.313910226808446,0.12429077861255257,0.04482901132867143
0.9770000000000001,-0.033,0.301,0.045050806032648515,1.3036554194410868,0.12372592613112494,0.04408666478481171
0.978,-0.0011,2.301,0.045032636063792535,1.3099985255340034,0.12367025552187298,0.04454584287726425
0.9790000000000003,0.016300000000006927,0.301,0.04513674807638202,1.3288461873710986,0.12398924226407632,0.045910227026413564
0.9800000000000002,0.0319,1.301,0.045223617909371155,1.347430236591174,0.12425540103223126,0.047255528231519926
0.9810000000000001,-0.0014,-0.699,0.04520367693379036,1.3682642020981524,0.12419430427040078,0.048763701104491304
0.982,-0.0144,0.301,0.0446159415239502,1.3499669899496995,0.12239355333878942,0.047439164064048585
0.9830000000000003,-0.002499999999985567,1.301,0.04474544921007225,1.3499669899496995,0.12279034938430679,0.047439164064048585
0.9840000000000002,0.03,0.301,0.04440813449666922,1.3560934916948018,0.1217568574860189,0.047882662145826635
0.9850000000000001,0.0169,-1.699,0.04394731477873143,1.3560934916948018,0.12034496103995138,0.047882662145826635
0.986,-0.035,0.301,0.0438952258436585,1.3817573974571504,0.1201853667790156,0.049740474883027505
0.9870000000000003,-0.055999999999997295,-0.699,0.04388125792928761,1.3560934916948018,0.12014257076163275,0.047882662145826635
0.9880000000000002,-0.0499,-0.699,0.0438523407511878,1.3647017527481424,0.1200539719899219,0.04850581503526364
0.9890000000000001,-0.0205,-1.699,0.04386215480606615,1.3745011842219552,0.1200840410791229,0.04921519687207219
0.99,0.0059,-0.699,0.04383931577425276,1.3782298257685868,0.12001406501995328,0.0494851136112441
0.9910000000000003,0.019999999999994227,0.301,0.04388832887743423,1.3478219583173423,0.12016423530021457,0.04728388500694815
0.9920000000000002,0.007,3.301,0.04395341067851394,1.3539581661135414,0.12036363814707914,0.04772808571074806
0.9930000000000001,0.019,1.301,0.04455793451553269,1.3842312440128217,0.12221582680964219,0.049919556885726774
0.994,-0.0063,2.301,0.04527853698844294,1.4020813776991425,0.12442366651555249,0.05121172987101871
0.9950000000000003,0.04309999999997176,-0.699,0.0454151585650723,1.4067656372747452,0.12484225866990378,0.05155082389608629
0.9960000000000002,-0.0205,-0.699,0.04588087010299474,1.4055490893171136,0.1262691430667518,0.051462757866229704
0.9970000000000001,-0.0631,-1.699,0.045874128939032456,1.405549089317114,0.12624848894742874,0.05146275786622974
0.998,0.0228,-1.699,0.04682512258750735,1.4150656783181035,0.12916221963265898,0.05215166470778626
0.9990000000000003,0.05679999999996781,0.301,0.04700969829332488,1.4245186925511293,0.12972773749773728,0.05283596936545148
1.0000000000000002,-0.0157,-0.699,0.04748050458865154,1.4281167503527634,0.13117023162132352,0.053096433134098404
1.0010000000000001,-0.0064,-2.6989999999991117,0.047688592797644536,1.4317057658082888,0.13180778898119636,0.053356242326394764
1.002,0.0019,1.301,0.04757063499863465,1.441049628334293,0.1314463804070292,0.05403264548093456
1.003,-0.0057,0.30099999999977795,0.04756747280655466,1.4503332936935944,0.13143669182907622,0.054704690956480374
1.0040000000000002,0.0154,-0.699,0.04717113457962032,1.4595579105571026,0.13022235895166917,0.05537246190543569
1.0050000000000001,-0.0215,1.300999999999778,0.047137586054997974,1.4595579105571028,0.13011957028868168,0.05537246190543571
1.006,-0.0277,0.301,0.047121136483699706,1.4607294787217338,0.1300691707715792,0.055457271843521734
1.007,-0.0219,-0.6989999999995559,0.04715778597666047,1.4550436164402505,0.1301814604303053,0.05504567169714
1.0080000000000002,-0.0063,1.301,0.047160933171139056,1.4550436164402505,0.1301911030574031,0.05504567169714
1.0090000000000001,0.0176,0.30099999999977795,0.0469518360317763,1.4562188164834209,0.12955045445566726,0.05513074454728131
1.01,0.022,-0.699,0.04679196228295318,1.4562188164834209,0.12906062042948235,0.05513074454728131
1.011,0.026,0.301,0.046824482375422215,1.4505152730037791,0.1291602580994768,0.05471786445717426
1.0120000000000002,0.0007,0.301,0.04669531093186516,1.4493354482245906,0.12876449226092335,0.05463245682192424
1.0130000000000001,-0.0289,0.301,0.046480640099888386,1.4619001079908034,0.12810676653230493,0.05554201381486299
1.014,-0.001,0.301,0.046464367588562906,1.4663932945392981,0.12805690950576132,0.05586727604414766
1.015,-0.0118,1.3009999999993338,0.0464969187773235,1.4538674664516946,0.12815664245107025,0.054960530080356035
1.0160000000000002,-0.0611,-1.699,0.04623761568955783,1.4630698006179934,0.1273621688341229,0.05562668798260373
1.0170000000000001,-0.1391,0.30100000000022203,0.046217371878802226,1.4642385588479863,0.12730014422157246,0.05571129450923673
1.018,-0.0667,1.301,0.046129514969549916,1.459738739874685,0.12703096116992066,0.05538555215804864
1.019,0.0751,3.300999999999556,0.04601343947385103,1.4552250067136143,0.12667531974774762,0.05505880255739878
1.0200000000000002,0.2172,1.301,0.044826759714470726,1.460910163024334,0.12303947503522711,0.05547035159848543
1.0210000000000001,0.1249,-2.699000000000222,0.04407512433537946,1.469888853444496,0.12073655422006174,0.05612031990730118
1.022,0.0412,-3.699,0.04466395065909962,1.4607294787217342,0.12254064758119636,0.05545727184352177
1.023,-0.0043,1.300999999999778,0.04467044720959709,1.4595579105571033,0.12256055223414855,0.05537246190543574
1.0240000000000002,-0.018,0.301,0.044665522367912616,1.4595579105571033,0.12254546310883317,0.05537246190543574
1.0250000000000001,-0.0303,-1.699,0.04428994942074605,1.4687245915227003,0.12139475256259921,0.05603603886887392
1.026,-0.0191,0.301,0.04437682725045607,1.4687245915227003,0.1216609358317496,0.05603603886887392
1.027,-0.009,1.301,0.04443287066437514,1.4766764173238411,0.12183264614243665,0.05661167234392491
1.0280000000000002,-0.0373,2.301,0.04471341849039911,1.5002790369431058,0.12269221109397087,0.058320268368475
1.0290000000000001,-0.0289,2.301,0.04471419085797446,1.5059693779672936,0.12269457753575332,0.05873219273149469
1.03,-0.0056,3.301,0.04508381237016914,1.5497190165712649,0.12382705359774382,0.06189923350069967
1.031,0.0154,-0.699,0.045245566970589464,1.5530270369614199,0.12432265032804554,0.062138701431756614
1.0320000000000003,0.0342,1.301,0.045913828160293144,1.5519251469695032,0.12637012260854993,0.0620589355036499
1.0330000000000001,0.0047,1.301,0.04619345417799383,1.5519251469695032,0.12722686324974122,0.0620589355036499
1.034,0.0097,-0.699,0.04619304763561527,1.546574594881594,0.12722561765256488,0.061671608496138924
1.035,0.0049,-2.699,0.04610348542575186,1.5636656759229133,0.12695120976400057,0.06290883358358755
1.0360000000000003,0.0093,0.301,0.046073129709408175,1.560380209708167,0.12685820348333343,0.06267099835157257
1.0370000000000001,0.0132,-1.699,0.0460199536619626,1.561476133210417,0.1266952784402378,0.06275033236488807
1.038,0.0095,-1.699,0.0456775759322623,1.561476133210417,0.1256462740661633,0.06275033236488807
1.039,0.0062,-1.699,0.045423374407541336,1.560380209708167,0.12486743102762188,0.06267099835157257
1.0400000000000003,-0.0207,-1.699,0.045384818025577145,1.5570878111520698,0.12474929888928354,0.06243266128666514
1.0410000000000001,-0.0243,1.301,0.04538332468147708,1.55708781115207,0.12474472346174525,0.06243266128666516
1.042,-0.0736,3.301,0.04534382336562186,1.5581860503082414,0.12462369615909301,0.06251216293040253
1.043,-0.0805,2.301,0.04533942728710688,1.5225661609880063,0.12461022710082505,0.0599336355351725
1.0440000000000003,-0.0359,1.301,0.0453036422358758,1.5182392255700223,0.1245005859880671,0.05962040824206228
1.0450000000000002,-0.0653,0.301,0.04532126334750516,1.5017703863340823,0.1245545749644863,0.05842822730192144
1.046,0.0145,-0.699,0.04530154987097107,1.509548147296691,0.12449417523249855,0.05899126020568299
1.047,0.0943,-1.699,0.04563842802369214,1.5138999232225248,0.1255263295611223,0.05930628570567213
1.0480000000000003,0.0425,-1.699,0.04562606440890485,1.513899923222525,0.1254884489255956,0.059306285705672146
1.0490000000000002,0.0709,-1.699,0.04595135933801329,1.5061446350853274,0.12648511364382276,0.05874487961201799
1.05,0.0457,-1.699,0.04563707553846454,1.5061446350853274,0.12552218570830553,0.05874487961201799
1.051,0.007,-1.699,0.04613887871687376,1.5050084205942043,0.12705965057068586,0.05866262892993757
1.0520000000000003,-0.0141,-1.699,0.04624776446286539,1.490513009108829,0.12739326346051827,0.05761330462451535
1.0530000000000002,-0.0203,-1.699,0.046295786906792855,1.4849411927950242,0.1275403984794278,0.057209960277283665
1.054,0.0091,0.301,0.046302470931186494,1.4849411927950247,0.12756087752995332,0.05720996027728369
1.055,-0.0065,-0.699,0.0463141929771211,1.4893648695285533,0.12759679247532454,0.057530190684023486
1.0560000000000003,-0.0206,0.301,0.046342017975593466,1.483788741810189,0.12768204493941349,0.0571265342337791
1.0570000000000002,-0.025,0.301,0.04626776455491292,1.483788741810189,0.12745454134812537,0.0571265342337791
1.058,-0.013,-0.699,0.04624530768347953,1.483788741810191,0.1273857361826075,0.057126534233779246
1.059,-0.0166,1.301,0.046278212472245686,1.4793483909466272,0.12748655251600022,0.056805096785077565
1.0600000000000003,-0.0198,0.301,0.046395564992852925,1.4793483909466276,0.12784610658960605,0.0568050967850776
1.0610000000000002,-0.0169,0.301,0.04634505550673401,1.4793483909466274,0.12769135157117253,0.056805096785077586
1.062,-0.0035,2.301,0.04628070928957088,1.4805042983839083,0.1274942024653637,0.05688877304152473
1.063,-0.0154,1.301,0.04633795967406085,1.4860927500652092,0.12766961078938055,0.05729332162469418
1.0640000000000003,0.0183,1.301,0.04628546032793329,1.4950967504713806,0.12750875907810813,0.05794512212596036
1.0650000000000002,0.0423,-1.699,0.04651970365910056,1.4950967504713806,0.12822645260101145,0.05794512212596036
1.066,0.0729,-0.699,0.0465255205909938,1.4950967504713866,0.12824427498392474,0.0579451221259608
1.067,0.0131,-0.699,0.04613194860375883,1.4916602649596662,0.1270384175337802,0.057696354591743666
