time_sec,bts_raw,diy_raw,bts_rms,diy_rms,bts_norm_rms,diy_norm_rms
0.0,0.0245,0.303,0.025971207897289256,1.298749945894573,0.06986927740864922,0.01830550973551818
0.001000000000000112,0.0045999999999992,-2.697,0.0255556273042703,1.3363705962106383,0.06856158263891414,0.01974191288789654
0.0020000000000000018,0.001,-3.697,0.02471765347708933,1.3364531797691335,0.06592475596946125,0.019745066030725296
0.0030000000000001137,0.004199999999994027,-4.697,0.024573177352208892,1.4217843733911966,0.06547013735629342,0.023003116981072602
0.0040000000000000036,-0.0227,0.303,0.024529574052794035,1.5022764416457337,0.06533293218467127,0.02607640411489173
0.0050000000000001155,-0.04809999999999926,-0.697,0.024375380043020874,1.5786697595849923,0.06484773459967325,0.02899319587119305
0.006000000000000005,-0.0448,3.303,0.024375380043020874,1.6515332005541115,0.06484773459967325,0.031775212540811434
0.006999999999999895,-0.0242,5.303,0.02415456137720335,1.6618784048159017,0.06415289124269223,0.032170205287847704
0.008000000000000007,-0.0216,4.303,0.024412766505630963,1.665842720490429,0.06496537744064172,0.0323215677838193
0.008999999999999897,-0.0239,0.30299999999999827,0.024444593050126067,1.716723135390512,0.06506552505695039,0.03426424521610145
0.010000000000000009,0.0098,-0.697,0.024367167659377253,1.766138351817068,0.06482189294268008,0.03615097955094768
0.010999999999999899,0.0819,0.303,0.02400388034793119,1.945054409215488,0.06367874784623072,0.04298221682885444
0.01200000000000001,0.03,-0.697,0.02321734617219403,2.0120423491322303,0.06120378475818668,0.045539899571160766
0.0129999999999999,0.0017,0.30299999999999827,0.023124333360196096,2.054366269406607,0.060911104181154786,0.04715587941181664
0.014000000000000012,-0.0067,-0.697,0.02305132198211469,2.065571182896388,0.060681361505842114,0.047583696924901345
0.014999999999999902,0.0009,-0.697,0.023054479027111115,2.065624613261237,0.060691295682988464,0.04758573696258961
0.016000000000000014,-0.0061,-0.697,0.02299884208530281,2.073905244405244,0.06051622461607882,0.04790190174387343
0.016999999999999904,-0.0,-0.697,0.02299678846222301,2.0756522561236914,0.060509762543004254,0.04796860482100095
0.018000000000000016,-0.0059,-1.697,0.023014554054173766,2.077397798672937,0.060565664989041215,0.0480352518034237
0.018999999999999906,-0.0009,-1.697,0.0230634347868507,2.0791418757533022,0.060719476498857144,0.04810184283242453
0.020000000000000018,-0.0249,-1.697,0.023093455974591125,2.0808844910496003,0.060813943254160126,0.048168378048694206
0.020999999999999908,-0.0293,-2.697,0.023108838676297757,2.0840519192448785,0.06086234753218482,0.048289314391006366
0.02200000000000002,-0.0094,-0.697,0.023105563678853736,2.0872145407518055,0.060852042197671166,0.048410067207987566
0.02299999999999991,0.0014,0.303,0.023108079562870035,2.090372377387167,0.060859958853127755,0.048530637332629786
0.02400000000000002,-0.0084,2.303,0.023146764349519313,2.092105638280025,0.060981687090729236,0.04859681538615833
0.02499999999999991,0.0064,1.303,0.023317539157588555,2.1002818671749774,0.061519058967727525,0.04890899395990993
0.026000000000000023,0.0088,1.3029999999999964,0.023348020138402998,2.1020069569732174,0.06161497253986496,0.04897486003089779
0.026999999999999913,-0.0032,0.303,0.023349820396517798,2.10373063217314,0.06162063735713612,0.049040672090765035
0.028000000000000025,-0.0011,2.303,0.023328927650860438,2.1229670479980802,0.061554894791962286,0.049775142337803946
0.028999999999999915,0.021,-1.697,0.023199924772943865,2.142030718973882,0.0611489653728169,0.05050301697196071
0.030000000000000027,0.0296,-0.697,0.023371656943881613,2.160926216965736,0.06168934975433758,0.05122447055272637
0.030999999999999917,-0.0057,-0.697,0.02337864688783525,2.168843017608878,0.06171134479766362,0.051526743833624565
0.03200000000000003,-0.0199,1.303,0.0234033578830071,2.179459469172838,0.06178910213206278,0.05193209313953574
0.03299999999999992,-0.0243,-0.697,0.023477956892800078,2.190024456599404,0.06202384055963232,0.05233547748076486
0.03400000000000003,-0.0443,0.303,0.02346551194544832,2.1930342581731415,0.06198468042358436,0.052450395442900775
0.03499999999999992,-0.0117,0.303,0.023396713010083597,2.2035341613547508,0.061768192913216696,0.05285129478682548
0.03600000000000003,0.0539,0.303,0.023365271018205642,2.203584246530193,0.06166925535689299,0.0528532071010276
0.03699999999999992,0.0633,0.303,0.023365304151765937,2.205228527190738,0.06166935961725601,0.05291598777877663
0.038000000000000034,0.0035,-0.697,0.02276763855912701,2.215670643365614,0.059788703535924304,0.053314680743015146
0.038999999999999924,0.0111,1.303,0.02268390252547832,2.223392524889191,0.059525213914223524,0.05360951176984675
0.040000000000000036,0.0041,-0.697,0.02266701216534852,2.225022167375626,0.059472065533448026,0.05367173354392824
0.040999999999999925,0.0102,-2.697,0.02263059019932102,2.2250717688675974,0.05935745764444236,0.05367362739049474
0.04200000000000004,-0.0072,-2.697,0.022643192411840665,2.2267001823755646,0.05939711264199484,0.05373580224065199
0.04299999999999993,-0.0337,-1.6969999999999863,0.022750652723214165,2.2448831186352343,0.059735254724415945,0.05443004932951029
0.04400000000000004,-0.0195,0.303,0.02296876653468648,2.2967071905312233,0.060421586798773234,0.05640875675787958
0.04499999999999993,-0.0238,0.303,0.023784713269978504,2.37007514986832,0.06298910149038231,0.05921003656537855
0.04600000000000004,-0.0118,1.303,0.025078474073989904,2.441239134744659,0.0670601391305273,0.06192716589071954
0.04699999999999993,-0.008,-0.697,0.025551602788301743,2.5103865857660974,0.06854891881733247,0.06456730144902775
0.04800000000000004,0.0414,-0.697,0.025378988062275915,2.5195643180380864,0.06800575732664918,0.06491771866554089
0.04899999999999993,0.0064,0.303,0.025550974633293623,2.553489907343439,0.06854694222113789,0.0662130397994154
0.050000000000000044,0.0125,3.303,0.02780678341936244,2.5869706339807728,0.07564522688750115,0.0674913755241237
0.050999999999999934,0.0066,0.3029999999999653,0.030965514891402313,2.637664514238527,0.08558471081522076,0.06942693083209332
0.052000000000000046,-0.0093,-4.697,0.03169663953860958,2.672273439493798,0.08788531843077832,0.07074834258121107
0.052999999999999936,-0.0047,-4.697,0.03176428245127265,2.6940282082587252,0.08809816831978916,0.07157896667119018
0.05400000000000005,-0.0179,-4.697,0.03176485646639837,2.6686249704004057,0.088099974555668,0.07060903949997577
0.05499999999999994,-0.0379,-4.697,0.03170765670265531,2.671054218536835,0.08791998580466905,0.0707017912108516
0.05600000000000005,-0.0053,-1.697,0.031400482305441665,2.678328742988805,0.086953409503031,0.07097954158909005
0.05699999999999994,0.0515,1.303,0.03107992222189583,2.6622362862980964,0.08594471287070389,0.0703651116064649
0.05800000000000005,0.0283,4.303,0.030991831225850655,2.612019336737,0.08566751962173094,0.06844776610482212
0.05899999999999994,0.0214,4.3030000000000275,0.030991137329784462,2.5945799612761995,0.08566533616015516,0.06778190909073677
0.06000000000000005,0.0533,8.303,0.03100800860249913,2.6011348223454873,0.08571842447914396,0.06803218182723188
0.06099999999999994,0.0004,5.303,0.031066548657729225,2.6063251827620117,0.08590263068446333,0.06823035623415041
0.062000000000000055,-0.0205,4.303,0.03001653403358023,2.6076732066308805,0.08259858171006298,0.0682818254596544
0.06299999999999994,-0.0143,2.303,0.02989790612056434,2.61285057874761,0.08222529887635667,0.06847950395715582
0.06400000000000006,-0.0085,0.303,0.029900146407686987,2.6153316333842977,0.08223234831947843,0.06857423370455307
0.06499999999999995,-0.0034,-1.697,0.029954047680700292,2.6204938746087008,0.08240195781035843,0.06877133448579352
0.06600000000000006,0.0013,-0.697,0.030077638181686413,2.6345863689437112,0.08279085626818683,0.06930940342180654
0.06699999999999995,-0.0117,-0.697,0.030141030521002143,2.639710955711847,0.0829903310077608,0.06950506650914141
0.06800000000000006,-0.0236,-0.697,0.030141034161821446,2.644825613152273,0.0829903424642158,0.0697003504824125
0.06899999999999995,-0.0127,-0.697,0.030145298405704377,2.63837930090122,0.08300376063030984,0.06945422227461079
0.07000000000000006,-0.0094,1.303,0.03020912146468717,2.6406307879556796,0.08320459070231581,0.06954018684660501
0.07099999999999995,-0.0007,1.303,0.030220010808427962,2.636635199540506,0.0832388558679537,0.06938763031855608
0.07200000000000006,-0.0087,1.3029999999999722,0.0301033985163089,2.6400139412073456,0.08287191552701252,0.06951663487165516
0.07299999999999995,0.0134,-0.697,0.03008889389035506,2.6386824393033725,0.08282627426316279,0.06946579647529048
0.07400000000000007,0.0283,-1.697,0.030088695289681604,2.6386824393033725,0.08282564933248435,0.06946579647529048
0.07499999999999996,-0.0122,-0.697,0.030081666507362635,2.6312983104033316,0.08280353207765936,0.06918386126310044
0.07600000000000007,-0.0064,-0.697,0.030077105132334903,2.6301688133832237,0.08278917893805958,0.06914073566408357
0.07699999999999996,-0.0013,-2.697,0.03006535851699766,2.6277017679285564,0.08275221622205059,0.06904654080465468
0.07800000000000007,0.0035,-2.697,0.03006617453089053,2.629038831104631,0.0827547839480649,0.06909759153729506
0.07899999999999996,0.034,-2.697,0.030072917663186583,2.629038831104631,0.08277600235668,0.06909759153729506
0.08000000000000007,0.0061,-1.697,0.03000470940660549,2.622553714777586,0.08256137351721497,0.0688499817416789
0.08099999999999996,0.0171,2.303,0.029894830991463287,2.622553714777586,0.08221562246145843,0.0688499817416789
0.08200000000000007,-0.0191,2.303,0.029982152409717543,2.6277017679285564,0.08249039410348197,0.06904654080465468
0.08299999999999996,-0.0049,1.303,0.02997137463601962,2.6406307879556796,0.0824564800118932,0.06954018684660501
0.08400000000000007,-0.0092,2.303,0.029886790014798794,2.6546163841244033,0.08219032016557562,0.07007417427786605
0.08499999999999996,0.0028,0.303,0.029558100394517377,2.6698453007066067,0.0811560425680926,0.07065563322666692
0.08600000000000008,-0.008,-0.6969999999999583,0.029641112075412104,2.6849878421602926,0.08141725289108763,0.07123379426578659
0.08699999999999997,0.0019,2.3029999999999444,0.02928263355210056,2.693529751828685,0.08028923946151087,0.07155993498562871
0.08800000000000008,-0.0068,-1.697,0.028589638955415903,2.7118290398074256,0.07810861451231395,0.07225862452762523
0.08899999999999997,0.0013,-0.697,0.028756704169727337,2.7189944755919297,0.07863431352384061,0.07253220976505614
0.09000000000000008,-0.0055,0.303,0.02921715706667476,2.7347529632010907,0.08008320660297447,0.07313388839337184
0.09099999999999997,-0.0076,-0.697,0.029399501354209722,2.735839282775006,0.08065698380794048,0.07317536542386846
0.09200000000000008,-0.0256,-2.697,0.029459076681939034,2.7272308275783543,0.08084444767363962,0.07284668391311057
0.09299999999999997,-0.0324,-4.697,0.030408856047324986,2.718595113769715,0.08383308941818049,0.07251696163469293
0.09400000000000008,-0.0619,-5.697,0.030491476025442138,2.712324133294228,0.08409306718199897,0.07227752781183722
0.09499999999999997,-0.0819,-5.697,0.030440788475851747,2.712324133294228,0.0839335702165403,0.07227752781183722
0.09600000000000009,-0.0492,-5.697,0.030361765121216185,2.7207802218275545,0.0836849098380728,0.07260039177415618
0.09699999999999998,0.0077,2.303,0.030345635908453412,2.7207802218275545,0.08363415653648908,0.07260039177415618
0.09800000000000009,0.0621,4.303,0.030335653674107434,2.7207802218275545,0.08360274574430152,0.07260039177415618
0.09899999999999998,0.1115,4.303,0.030072649127189464,2.73435590295965,0.08277515736265281,0.07311872814022102
0.10000000000000009,0.1384,5.303,0.030104925650505605,2.7491431368507744,0.08287672091358557,0.07368332309532463
0.10099999999999998,0.0678,5.303,0.03008012122670971,2.74589867849864,0.08279866959018631,0.07355944564595539
0.10200000000000009,0.0207,5.302999999999972,0.030181929076578226,2.74589867849864,0.08311902524448644,0.07355944564595539
0.10299999999999998,-0.0047,3.3029999999999724,0.030186866269507343,2.7040423767862816,0.08313456095880765,0.07196132006276054
0.10400000000000009,-0.012300000000001554,1.3030000000000137,0.03021188775630869,2.660207173144656,0.08321329530774203,0.0702876375461909
0.10499999999999998,-0.0193,2.303,0.03025092588448792,2.6169806699564497,0.08333613539435286,0.0686371959689139
0.1060000000000001,-0.00040000000000126566,1.303,0.030429323269655948,2.5741826394486553,0.0838974930020889,0.0670031140107206
0.10699999999999998,-0.0061,0.303,0.03109795925520173,2.5741826394486558,0.08600146945296948,0.06700311401072062
0.1080000000000001,-0.021500000000000997,-2.697,0.031633236345082076,2.6169806699564497,0.0876858095365874,0.0686371959689139
0.10899999999999999,-0.026,-1.697,0.03178147051409904,2.6731820671286664,0.088152253472555,0.07078303511278874
0.1100000000000001,-0.02149999999999909,-1.697,0.031777478289928246,2.6687321181166603,0.0881396912625879,0.07061313053285545
0.11099999999999999,-0.0174,-0.697,0.03196452616863759,2.557233985258294,0.08872826911436235,0.06635599334419641
0.1120000000000001,-0.013899999999997824,-1.697,0.03244866312045064,2.5049128980397173,0.09025168808617301,0.06435830925353798
0.11299999999999999,-0.0041,1.303,0.03363961772042125,2.5049128980397173,0.09399922858141083,0.06435830925353798
0.1140000000000001,-0.019200000000001795,-1.697,0.03498519161281981,2.625341322776692,0.0982333048855981,0.06895641607718005
0.11499999999999999,-0.0273,-2.697,0.03503585304245456,2.748852179879763,0.09839271966018948,0.07367221399681474
0.1160000000000001,-0.020499999999995494,-1.697,0.03504896090613865,2.7738090671751117,0.0984339657748301,0.07462509894918576
0.11699999999999999,-0.0002,-1.697,0.03510321204466885,2.7748800969736647,0.09860467617685525,0.07466599219706978
0.1180000000000001,0.007700000000002642,0.30300000000002775,0.03508872741627738,2.775950713542711,0.09855909783872478,0.07470686966733801
0.119,0.0196,2.302999999999986,0.03505207238090945,2.775950713542711,0.09844375655753819,0.07470686966733801
0.1200000000000001,0.026099999999996938,1.303,0.03503133128240877,2.789257885635635,0.09837849117584442,0.07521495402481003
0.121,0.0123,3.303,0.035019564246520134,2.8014414021544605,0.09834146420310956,0.07568013581692863
0.12200000000000011,-0.0004999999999996892,0.303,0.03505223732379824,2.800380530975645,0.09844427557829274,0.07563963043776278
0.123,0.0009,0.303,0.03505594557829067,2.8062613071462703,0.09845594422953889,0.07586416577564106
0.12400000000000011,0.005199999999998001,-0.697,0.035189542303568654,2.8131862258199085,0.09887632896798547,0.07612856777106669
0.125,-0.0038,-0.697,0.03518404952310047,2.8094360569871366,0.09885904500331,0.07598538166747495
0.1260000000000001,-0.002800000000000244,0.303,0.03518370547719404,2.808184887791095,0.09885796240455552,0.07593761047366905
0.127,-0.0039,-0.697,0.035185653731122535,2.808184887791095,0.09886409291573725,0.07593761047366905
0.1280000000000001,-0.0064999999999998444,2.303,0.03520472754111166,2.7949678308445693,0.09892411189155252,0.07543296682440585
0.129,-0.0058,0.303,0.035211483093499855,2.786542047264827,0.09894536938209254,0.07511125994285225
0.13000000000000012,-0.014900000000001933,-0.697,0.03509559322563707,2.773221843382272,0.09858070227151229,0.07460267801546717
0.131,-0.0236,-1.697,0.03512335615801249,2.7683444146874905,0.09866806304357363,0.0744164517303332
0.13200000000000012,-0.01819999999999798,-2.697,0.03516317605311167,2.76130704217674,0.0987933630922942,0.07414775610774355
0.133,-0.0091,-2.697,0.035211030526782414,2.7591540294625507,0.09894394530421378,0.07406555140836196
0.1339999999999999,0.0021,-2.697,0.035415984145658774,2.7580768928479342,0.09958886660214039,0.07402442499465622
0.135,0.025,-2.697,0.035477199119725876,2.75209315633444,0.0997814898929334,0.07379595850301468
0.1359999999999999,0.0282,2.303,0.03547911199191163,2.7831461269610487,0.09978750906946497,0.0749815994880597
0.137,0.0014,3.303,0.035533818861692525,2.784213564986709,0.09995965350710909,0.07502235559759382
0.1379999999999999,-0.0312,2.303,0.03553495654738851,2.782078279376872,0.09996323342796976,0.07494082774107276
0.139,-0.0529,3.303,0.03555359024734717,2.777216404657626,0.10002186752298305,0.07475519532604213
0.1399999999999999,-0.033,1.303,0.03584897817657979,2.778286120927279,0.10095135570551411,0.07479603842176138
0.14100000000000001,0.0213,-1.697,0.035845537026068075,2.784408547303975,0.10094052754221286,0.07502980026462712
0.1419999999999999,0.0757,-1.6969999999999446,0.036267003877327765,2.7976754899133174,0.10226674442112248,0.07553634861045262
0.14300000000000002,0.0404,0.303,0.037391882472499124,2.7976754899133174,0.10580636556850705,0.07553634861045262
0.1439999999999999,0.0083,0.3030000000000555,0.03725250697948936,2.770005588135055,0.10536779695799015,0.0744798773956708
0.14500000000000002,-0.0092,2.303,0.036748077405403895,2.7347529632010907,0.103780523810947,0.07313388839337184
0.1459999999999999,0.0063,1.303,0.03582521544554633,2.6778273642288015,0.10087658224494095,0.07096039832534116
0.14700000000000002,0.0016,-0.697,0.03549646318061123,2.6286258025381133,0.09984210752543793,0.06908182159366082
0.1479999999999999,-0.0114,-2.697,0.03554345678220043,2.635301990507892,0.09998998085744985,0.06933672674189971
0.14900000000000002,-0.0154,-2.697,0.035014997465124265,2.6180177121522425,0.09832709405145613,0.06867679152791331
0.1499999999999999,0.0028,-2.697,0.03324593577331019,2.5915609787982468,0.09276044161247081,0.06766664059027562
0.15100000000000002,0.0256,0.303,0.03025096915580031,2.5558593586265412,0.08333627155487106,0.06630350839216595
0.1519999999999999,0.0107,-0.697,0.029485955677164603,2.532918160858966,0.08092902698764672,0.0654275849693694
0.15300000000000002,0.0131,0.303,0.029441845622471142,2.496378009007915,0.08079022722465411,0.06403243659032022
0.15399999999999991,-0.0236,-0.697,0.02949848566385845,2.4928045911272676,0.0809684547143973,0.06389599905759806
0.15500000000000003,-0.0502,1.303,0.029505097907508254,2.5064295535023033,0.08098926125970358,0.06441621704272366
0.15599999999999992,-0.0644,-1.697,0.029442222977781072,2.504057404253012,0.08079141463709207,0.06432564543827324
0.15700000000000003,-0.0776,-4.697,0.029444857691000404,2.508264193947233,0.08079970520877551,0.06448626589345956
0.15799999999999992,-0.0418,-6.697,0.02943863517019798,2.5150440264933835,0.08078012499245985,0.06474512832034668
0.15900000000000003,0.0208,-3.697,0.02936238218936922,2.505677126231332,0.08054018206470642,0.06438748843503403
0.15999999999999992,0.0635,-2.697,0.02927746319444247,2.505677126231332,0.08027297005485252,0.06438748843503403
0.16100000000000003,0.0558,0.303,0.029333214856428393,2.505677126231332,0.08044840210824417,0.06438748843503403
0.16199999999999992,0.091,4.303,0.029317981191547358,2.5204116825394207,0.0804004667998504,0.06495007209459393
0.16300000000000003,0.0971,8.303,0.029286429118041305,2.515044026493383,0.08030118285302693,0.06474512832034666
0.16399999999999992,0.0206,8.303,0.029339844981721437,2.5192324700280206,0.08046926492117153,0.0649050482963749
0.16500000000000004,-0.0102,4.303,0.029450038035359095,2.5192324700280206,0.08081600604027987,0.0649050482963749
0.16599999999999993,-0.0196,1.303,0.029608266994156796,2.5044909761229315,0.08131390027623844,0.06434219975074532
0.16700000000000004,0.0058,1.303,0.029760413685760594,2.499089125101394,0.08179265562763113,0.06413595036986469
0.16799999999999993,-0.0173,-0.697,0.02982590369805875,2.4936755725071587,0.081998731050764,0.0639292542084056
0.16900000000000004,0.0038,-2.697,0.029848439283262803,2.4936755725071587,0.08206964308900472,0.0639292542084056
0.16999999999999993,-0.0023,-2.697,0.030330754299899555,2.493675572507159,0.08358732903299632,0.06392925420840562
0.17100000000000004,0.0151,-0.697,0.030262032495026025,2.493675572507159,0.0833710842267915,0.06392925420840562
0.17199999999999993,0.01,2.303,0.030404073934421936,2.475183273627123,0.08381804168944472,0.06322319527048599
0.17300000000000004,-0.0335,2.3029999999999724,0.030414159589760934,2.482053469731418,0.08384977791331491,0.0634855078902509
0.17399999999999993,-0.0277,1.3029999999999722,0.030438252461164376,2.482053469731418,0.08392559021651537,0.0634855078902509
0.17500000000000004,-0.0121,0.30299999999997224,0.030443867832035443,2.4898802468717927,0.08394325993267049,0.06378434396200791
0.17599999999999993,-0.0074,-0.697,0.03045878732397447,2.497682498020697,0.08399020664265527,0.0640822436009503
0.17700000000000005,-0.0117,-0.697,0.030487203015078655,2.517405823079679,0.08407962143068812,0.06483530464726633
0.17799999999999994,-0.0078,-1.697,0.03048845863946086,2.535590207614571,0.08408357246561357,0.06552960703307131
0.17900000000000005,-0.0186,-0.697,0.0305442856504286,2.5265143754812063,0.08425924161734687,0.06518308049040666
0.17999999999999994,-0.0153,-0.697,0.030554439536949026,2.526514375481206,0.08429119254219344,0.06518308049040665
0.18100000000000005,-0.024,-0.697,0.030518489994851374,2.5276901908562492,0.08417807121515081,0.06522797458174047
0.18199999999999994,-0.0265,-1.697,0.030429414621666862,2.5235157851908654,0.08389778045667384,0.06506859058899479
0.18300000000000005,-0.0384,-0.697,0.030377161993807085,2.5141804477456122,0.08373335870718654,0.06471215581122723
0.18399999999999994,-0.0228,1.303,0.030493828035235357,2.4980027103634006,0.08410046817943875,0.06409446970588538
0.18500000000000005,-0.0047,4.303,0.030497584270936635,2.488571667985825,0.08411228781169051,0.06373438079494015
0.18599999999999994,-0.0213,1.303,0.030434349015744558,2.488571667985825,0.0839133073639347,0.06373438079494015
0.18700000000000006,0.0034,-1.697,0.030331106505167075,2.4956225512099124,0.08358843730656333,0.06400359227334476
0.18799999999999994,0.0133,-0.697,0.030337006475915997,2.505460452307215,0.08360700256446893,0.06437921555551109
0.18900000000000006,0.0459,1.303,0.03030297404455484,2.5124639399364894,0.08349991375127615,0.06464661741124235
0.18999999999999995,-0.0023,-1.697,0.02992732271291905,2.492701512882082,0.08231786316980991,0.0638920634021779
0.19100000000000006,0.0556,-2.697,0.02980433207086035,2.5427242192577717,0.08193085226976247,0.06580199245775978
0.19199999999999995,0.0945,-2.697,0.029728023836977504,2.6636742504271442,0.0816907354789099,0.07042001486280466
0.19300000000000006,0.0025,-2.697,0.029038546370248868,2.6894216751379374,0.07952117777521295,0.07140308351551253
0.19399999999999995,-0.0097,-3.697,0.028979417095054128,2.6979495469966563,0.07933511748941212,0.07172868825434692
0.19500000000000006,0.0016,-1.697,0.02899288898109078,2.6979495469966563,0.07937750906208065,0.07172868825434692
0.19599999999999995,-0.0085,-2.697,0.028989347950811626,2.691832155321094,0.07936636661016325,0.07149511864262337
0.19700000000000006,0.0198,-2.697,0.028985088033788742,2.6979495469966563,0.07935296205926767,0.07172868825434692
0.19799999999999995,0.0115,-2.697,0.029022612613332496,2.6966466516505863,0.07947103950857638,0.07167894209189117
0.19900000000000007,0.0191,-1.697,0.02901157564745213,2.6839874788705225,0.0794363098248569,0.07119559915297283
0.19999999999999996,0.0122,-2.697,0.028975498757855635,2.670155725453378,0.07932278777732593,0.0706674856290335
0.20100000000000007,0.0057,-3.697,0.0289855483327419,2.656251947690423,0.07935441046793659,0.07013662212611983
0.20199999999999996,-0.0131,-2.697,0.029081387797849214,2.6714715406405882,0.07965598558804651,0.0707177250870699
0.20300000000000007,-0.0189,-2.697,0.029076551593709088,2.71383023963865,0.07964076765206572,0.07233503282258982
0.20399999999999996,-0.0138,-2.6969999999999725,0.02911875554633526,2.7287287062697536,0.07977356954185195,0.07290387478185235
0.20500000000000007,0.0003,-1.697,0.029204225571891018,2.7274405141339857,0.08004251546297028,0.07285469000622671
0.20599999999999996,-0.004,-1.697,0.029095156453717946,2.726350848057115,0.0796993109972891,0.07281308520209102
0.20700000000000007,0.0001,-1.697,0.02840734397781256,2.7213894157985927,0.07753499246940496,0.07262365155656446
0.20799999999999996,-0.0035,-1.697,0.027364766801120818,2.6778381917163867,0.07425434668394895,0.07096081173226446
0.20900000000000007,-0.0133,-1.697,0.027330476665824614,2.6077828587141703,0.07414644696164814,0.06828601211237781
0.20999999999999996,-0.0281,-1.697,0.02734898043448755,2.581741363265835,0.07420467220581829,0.06729171547368674
0.21100000000000008,-0.0146,-2.697,0.027309981624909115,2.568515931364483,0.07408195584184869,0.06678675205824693
0.21199999999999997,-0.0027,-0.697,0.026848111947567452,2.571039769313577,0.07262860462308435,0.06688311532564699
0.21300000000000008,-0.0182,-1.697,0.025326053735088404,2.538776962790889,0.0678391904946908,0.0656512813035229
0.21399999999999997,-0.0319,-1.697,0.023389163731013053,2.4044993701489883,0.061744437827147565,0.060524396049169926
0.21500000000000008,-0.041,-0.697,0.02335875920946535,2.2622656730136783,0.06164876484705148,0.05509373684410179
0.21599999999999997,-0.0364,-0.697,0.023338301377561856,2.2268659048401327,0.0615843908117146,0.05374212973016973
0.21700000000000008,-0.0198,-0.697,0.023256746471956292,2.2239515175517215,0.06132776447906541,0.053630854803948226
0.21799999999999997,0.0139,0.303,0.023256011817915142,2.231352002293556,0.061325452765613644,0.05391341450249122
0.21900000000000008,0.0573,2.303,0.023197864494576264,2.231352002293556,0.06114248235775132,0.05391341450249122
0.21999999999999997,0.0163,1.303,0.023324187045465863,2.223463241597158,0.06153997767363673,0.0536122118215842
0.22100000000000009,0.0318,-0.697,0.023327923603874614,2.205153737019329,0.061551735387952604,0.052913132197145885
0.22199999999999998,0.0078,-1.697,0.02327899016270991,2.206500807914655,0.06139775802194672,0.052964565036936466
0.2230000000000001,0.0121,0.303,0.02335883301229333,2.196065345997316,0.061648997080158016,0.05256612614051503
0.22399999999999998,-0.0079,2.303,0.02311825954883348,2.193357558861502,0.06089199190429519,0.052462739464708634
0.2250000000000001,0.0102,2.303,0.022969717097766646,2.198159039709893,0.060424577906609156,0.05264606596674329
0.22599999999999998,0.0134,3.303,0.022940083546175733,2.1997572043613047,0.060331330914148315,0.0527070858779894
0.2270000000000001,0.0047,3.303,0.02299312499797949,2.198159039709893,0.0604982348318675,0.05264606596674329
0.22799999999999998,-0.0196,0.303,0.023438708042577833,2.198159039709893,0.06190033740039937,0.05264606596674329
0.2290000000000001,-0.009799999999998067,0.303,0.023816441012452803,2.198159039709893,0.06308893820938725,0.05264606596674329
0.22999999999999998,-0.0011,1.303,0.024196148229714436,2.2042984730157262,0.06428375132237842,0.052880477155285384
0.2310000000000001,-0.003499999999998468,1.303,0.024264571228207722,2.2210333060766447,0.06449905588366524,0.05351943386553034
0.23199999999999998,0.0034,-1.697,0.024148084352108936,2.237642986551706,0.06413251018548773,0.05415361209461286
0.2330000000000001,0.028099999999994914,0.303,0.024682904973129912,2.2481269380409024,0.06581541391247599,0.0545539023831099
0.23399999999999999,0.0052,-1.697,0.025240921324117427,2.268470928273178,0.06757130693508336,0.05533066119658306
0.2350000000000001,-0.015599999999999444,-2.697,0.025188662939187766,2.2671606782455593,0.06740686706999996,0.055280634223251565
0.236,-0.0131,-2.6970000000000276,0.025185868173263667,2.261912088307593,0.06739807286535476,0.055080236540885695
0.2370000000000001,-0.0061999999999924945,-3.6969999999999725,0.02517602507911817,2.310501647027952,0.0673670999013899,0.05693544623907618
0.238,0.0276,-2.696999999999917,0.02529804368186042,2.353615016047077,0.0677510521149841,0.05858156821326964
0.2390000000000001,0.022999999999999046,0.30300000000013877,0.025285702699350553,2.3521213934406404,0.0677122191219314,0.058524539847137624
0.24,0.0187,5.303,0.02491091951233342,2.349362390897216,0.06653290030464343,0.058419197703461226
0.2410000000000001,-0.0012000000000088596,8.303,0.025075204728051838,2.3448705424647334,0.06704985157943497,0.05824769335161676
0.242,-0.0411,4.303,0.025422559446805874,2.348669047616541,0.06814286207267696,0.058392724995901014
0.2430000000000001,-0.03599999999999471,2.303,0.02420561282458474,2.3313430705043303,0.06431353327422475,0.05773119767160095
0.244,-0.0122,0.303,0.024225947708679366,2.315405649951272,0.06437752043344347,0.057122687161259865
0.2450000000000001,-0.007999999999997358,1.303,0.02428236947866999,2.2860359473159106,0.06455506109524373,0.05600131543867076
0.246,0.0039,2.303,0.02440265128329733,2.3359709314228523,0.06493354817921182,0.05790789514908435
0.2470000000000001,0.014799999999994916,0.303,0.024466272102182388,2.339783884628169,0.06513374186847405,0.05805347843799548
0.248,-0.0081,1.303,0.024394196680477234,2.3322619182587467,0.06490694433852784,0.057766280420035954
0.2490000000000001,-0.005199999999997046,-0.697,0.024461047966483775,2.3247156135652918,0.06511730324009672,0.05747815313463766
0.25,0.0081,-0.697,0.024706170713363902,2.327270570180802,0.06588862350726718,0.057575704551369594
0.2510000000000001,0.034799999999994335,-2.697,0.024695839635312772,2.3125903073620933,0.0658561150192383,0.05701519388466452
0.252,0.0093,-4.697,0.02470921739285383,2.28318438990358,0.06589821040064228,0.05589243943515015
0.2530000000000001,-0.020500000000002665,-2.697,0.024692056498423123,2.2754753320776,0.06584421073783805,0.055598098033019315
0.254,-0.0325,0.303,0.024701509487841996,2.260458716669935,0.06587395617116452,0.0550247450067317
0.2550000000000001,-0.04339999999999341,-0.697,0.024720709392280237,2.24534167392059,0.06593437192453477,0.0544475575398121
0.256,-0.0137,-0.697,0.024734132299153437,2.2393147698265583,0.06597660937596438,0.05421744285633327
0.2570000000000001,0.014100000000005617,0.303,0.024825511226369813,2.2332716010557756,0.0662641486576156,0.053986707167296026
0.258,0.0394,3.303,0.024826120354211115,2.2272120352137748,0.06626606538160501,0.05375534541771517
0.2590000000000001,0.023100000000008593,1.303,0.024840225384901587,2.2272120352137748,0.06631044925123399,0.05375534541771517
0.26,0.0618,1.303,0.024811510772598674,2.221135938100129,0.06622009385698731,0.053523352483651754
0.2609999999999999,0.0248,1.303,0.02465392875570799,2.221135938100129,0.06572423533338477,0.053523352483651754
0.262,-0.0187,-0.697,0.02463355056765934,2.202807089301401,0.06566011191093543,0.05282353427283479
0.2629999999999999,-0.0013,0.303,0.024646285087988738,2.204155594352228,0.06570018323743522,0.05287502187046356
0.264,-0.0169,0.303,0.02460155317878085,2.1964163301960618,0.06555942670381924,0.052579527153131175
0.2649999999999999,-0.0028,1.303,0.02447756686143973,2.1916110313439527,0.06516928274274573,0.05239605487497276
0.266,0.0015,0.303,0.024158745564591987,2.19000692200444,0.06416605749745877,0.052334807988151884
0.2669999999999999,0.0055,2.303,0.02393687115501952,2.1884016368450783,0.06346789206382232,0.05227351620706886
0.268,-0.0053,-0.697,0.023869840605962016,2.186795173276426,0.06325696908068155,0.05221217943285559
0.2689999999999999,0.0245,2.303,0.02384778247062797,2.1945683672256284,0.0631875594193764,0.052508969631825504
0.27,0.0047,0.303,0.023205682954135835,2.202560621148276,0.061167084465850646,0.0528141238126451
0.2709999999999999,0.0011,1.303,0.023191837483627093,2.2073420832930517,0.061123517346324506,0.05299668597571331
0.272,-0.0218,0.303,0.022975395586402287,2.2057494142343925,0.06044244623350788,0.05293587589302379
0.2729999999999999,-0.0011,-1.697,0.0229626683380809,2.2057494142343925,0.060402397789613774,0.05293587589302379
0.274,-0.009,-1.697,0.022945381316670038,2.2073420832930517,0.0603480012468901,0.05299668597571331
0.2749999999999999,0.003,-0.697,0.022954405845993824,2.1969106174896598,0.060376398457910735,0.05259839965588538
0.276,-0.0173,0.303,0.022931773767908042,2.1864293836758333,0.060305182788463765,0.05219821313160921
0.2769999999999999,-0.047,-0.697,0.022892368031493072,2.1636911130391314,0.060181185960235875,0.0513300377186966
0.278,-0.043,-1.697,0.022887648834214323,2.142352354252001,0.06016633620617509,0.05051529740633717
0.2789999999999999,-0.0466,-1.697,0.022810699789948628,2.1439921184673776,0.05992420299684649,0.050577905640600426
0.28,-0.0238,-2.697,0.02279416684381606,2.1456306295192973,0.059872179279788836,0.05064046602752652
0.2809999999999999,0.0031,-2.697,0.02279412275929195,2.1442453187295674,0.05987204056036214,0.05058757314107522
0.28200000000000003,0.0575,-2.696999999999667,0.022803368438669636,2.1412184804860077,0.05990113365750852,0.05047200469772665
0.2829999999999999,0.0652,3.302999999999778,0.022897772773188003,2.1412184804860077,0.060198192895990224,0.05047200469772665
0.28400000000000003,0.0159,-0.6970000000001665,0.022837783487922356,2.160069990536936,0.06000942644274428,0.051191778764276545
0.2849999999999999,-0.0028,-3.6970000000000556,0.023232314744391497,2.1709285935514746,0.06125088590752292,0.05160637371331303
0.28600000000000003,-0.0201,-4.697,0.023528834722940768,2.160069990536936,0.06218393627509182,0.051191778764276545
0.2869999999999999,-0.0251,-4.696999999999723,0.02349559017732032,2.142859112367388,0.06207932667791533,0.05053464606055553
0.28800000000000003,-0.0108,0.303,0.02389693849174602,2.1160784453544403,0.06334223717092897,0.04951212693350667
0.2889999999999999,-0.0152,0.303,0.02403629913270653,2.099922286602315,0.06378075904695574,0.048895264727061294
0.29000000000000004,0.0287,1.303,0.025188109335592623,2.123343548963677,0.06740512506246149,0.04978951761226925
0.2909999999999999,0.0696,3.303,0.028618436750593824,2.083901392937763,0.0781992316555749,0.04828356710965318
0.29200000000000004,0.0538,0.303,0.029073393666861236,1.9214174911913227,0.07963083070002439,0.04207972994260512
0.2929999999999999,0.0102,-0.697,0.02878742368291558,1.8761555246248995,0.07873097767851937,0.04035157184558543
0.29400000000000004,-0.0192,1.303,0.0286054259750333,1.8729852988491678,0.07815829104516983,0.04023052868817707
0.29499999999999993,-0.0243,5.303,0.028607110827802408,1.8729852988491678,0.07816359271996154,0.04023052868817707
0.29600000000000004,-0.0196,3.303,0.028624927372462226,1.8695193296637105,0.07821965549733319,0.04009819368008417
0.29699999999999993,-0.0065,2.303,0.028695205926487447,1.8590826519629724,0.07844079887858617,0.03969970836354259
0.29800000000000004,0.0214,2.303,0.02878609634673618,1.8625680423942996,0.0787268009902701,0.03983278489892321
0.29899999999999993,0.0396,2.303,0.028851752266203665,1.8590826519629722,0.07893339846842967,0.03969970836354257
0.30000000000000004,0.0099,1.303,0.02888745389219479,1.8571913505475235,0.0790457396854256,0.03962749612658164
0.30099999999999993,-0.01,1.303,0.028893818965953035,1.8587906078916598,0.07906576846877701,0.03968855775819306
0.30200000000000005,-0.0093,2.303,0.028721897987204138,1.8403771751631968,0.07852478997147888,0.03898551002788903
0.30299999999999994,-0.0201,1.303,0.02870742646294393,1.7849096234874855,0.07847925286771835,0.03686769001647689
0.30400000000000005,-0.0169,1.303,0.028668932852305113,1.7657259093340796,0.07835812619783485,0.03613523198471048
0.30499999999999994,-0.0082,-0.697,0.028593740233415574,1.7677150735270677,0.07812151987863637,0.036211180744059435
0.30600000000000005,0.0216,-0.697,0.028276396542556037,1.775343678124309,0.07712294417102022,0.036502450341997415
0.30699999999999994,0.0017,-0.697,0.028243407501905602,1.7960797209528974,0.07701913856353561,0.0372941782105111
0.30800000000000005,-0.0091,-1.697,0.028270908738064728,1.818512619384773,0.07710567586409935,0.03815069413338364
0.30899999999999994,-0.0058,-0.697,0.028112599134305315,1.955582441103992,0.07660752786510082,0.04338419016174307
0.31000000000000005,-0.0028,-1.697,0.02826113749291911,2.0689445227466585,0.07707492898518978,0.047712495229934974
0.31099999999999994,-0.0106,0.303,0.027753827992882413,2.101350615582539,0.07547859366304291,0.0489498001014525
0.31200000000000006,-0.0084,1.303,0.027705273943985698,2.117495876438415,0.07532581011910874,0.04956624621268434
0.31299999999999994,-0.0105,0.303,0.027648790366857034,2.1560718483686885,0.07514807497067338,0.051039124730763594
0.31400000000000006,-0.0202,1.303,0.028299385330959655,2.216642245361722,0.07719528228993856,0.05335177771391654
0.31499999999999995,-0.0113,0.303,0.02849231390325891,2.275600991500166,0.07780236474077062,0.055602895865836735
0.31600000000000006,-0.016,0.303,0.028537258125683466,2.310254117986397,0.0779437893539063,0.05692599527284866
0.31699999999999995,-0.0084,0.303,0.02853798347101692,2.3130597690920056,0.07794607177593164,0.05703311851656486
0.31800000000000006,0.0094,-1.697,0.02853444102426469,2.3046325690303417,0.07793492486684164,0.05671135755197229
0.31899999999999995,0.0163,-2.697,0.028530141670440514,2.31048909811679,0.07792139622136694,0.05693496710606278
0.32000000000000006,0.0142,-1.697,0.028431690110361833,2.318081716403081,0.0776116017017242,0.057224862701955155
0.32099999999999995,-0.0039,0.303,0.028435035378644367,2.31959725775907,0.07762212815534095,0.057282727953167266
0.32200000000000006,-0.0018,-1.697,0.028556589134480934,2.31959725775907,0.07800461764936281,0.057282727953167266
0.32299999999999995,-0.0083,-0.697,0.028485250065918146,2.3408215770023926,0.07778013717937833,0.05809309882161487
0.32400000000000007,-0.0102,0.303,0.02848553544777075,2.389611996829603,0.07778103518174488,0.05995597764632623
0.32499999999999996,-0.0011,0.303,0.02849028020358764,2.3920976397855056,0.07779596536007767,0.06005088258144962
0.32600000000000007,0.0004,0.303,0.028517640407811927,2.3920976397855056,0.07788205887975594,0.06005088258144962
0.32699999999999996,-0.001,-0.697,0.028533858096664314,2.399205765837869,0.0779330905863508,0.060322279662131065
0.32800000000000007,0.0055,-0.697,0.028144939555231563,2.4145901298961614,0.07670929248069333,0.060909673788628424
0.32899999999999996,0.0044,-0.697,0.02784490781837623,2.4145901298961614,0.07576519177043145,0.060909673788628424
0.33000000000000007,-0.001,-0.697,0.027565249468424934,2.4075274259766335,0.07488519937500368,0.06064001098139107
0.33099999999999996,-0.0074,0.303,0.02746271453833706,2.3933394931988023,0.07456255583956566,0.0600982980871005
0.3320000000000001,-0.0211,-1.697,0.027479315406994862,2.3790669499996264,0.07461479328636067,0.05955335466184031
0.33299999999999996,-0.0228,-2.697,0.02687042092502488,2.3716695767275056,0.07269880360164416,0.05927091376307529
0.3340000000000001,-0.043,-2.697,0.02612391213457719,2.3507237957740315,0.0703497871720315,0.05847117783246728
0.33499999999999996,-0.0404,-1.697,0.026296521112642003,2.349228334951101,0.07089293057578129,0.058414079280946545
0.3360000000000001,-0.0038,-0.697,0.02648720923882884,2.3174898905092434,0.07149296308320335,0.05720226605430485
0.33699999999999997,0.044,-1.697,0.026538307665663195,2.266189846682494,0.07165375294354683,0.05524356666844059
0.3380000000000001,0.0378,1.303,0.0264205627257483,2.2213803452726015,0.07128324853435163,0.05353268425304048
0.33899999999999997,0.0787,3.303,0.02641005192353147,2.222961815381579,0.0712501745137752,0.05359306674592251
0.3400000000000001,0.1371,3.303,0.026366741646231928,2.224542161193109,0.07111389138590113,0.05365340631173168
0.34099999999999997,0.0512,1.303,0.026209986759457984,2.2216247255571435,0.07062063556739531,0.053542014995814624
0.3420000000000001,-0.0056,0.303,0.02526785537890106,2.2069796991845148,0.06765605950332157,0.05298284970038311
0.34299999999999997,-0.0158,-1.697,0.024710030084052873,2.208571481046904,0.06590076767123734,0.05304362590881719
0.3440000000000001,0.0125,0.303,0.024809602291430977,2.214682049680012,0.06621408849753824,0.05327693500830589
0.345,-0.0129,0.3029999999999445,0.02491626411741205,2.244985423690002,0.06654971801034247,0.05443395546356002
0.3460000000000001,-0.0205,-0.6969999999998889,0.024894927065437052,2.1868084320002605,0.06648257736003786,0.05221268566739838
0.347,-0.0273,1.3029999999999444,0.024881435214000158,2.164074144088153,0.06644012296285365,0.051344662319857154
0.3480000000000001,-0.0211,0.303,0.024873061634489917,2.172178600510692,0.06641377407574621,0.05165410053147353
0.349,-0.0153,0.3030000000000555,0.024877422422406873,2.161577447393194,0.06642749603400587,0.05124933533924831
0.3500000000000001,-0.0102,1.303,0.025157911189386657,2.1737958659445766,0.06731010147735525,0.05171584973431686
0.351,-0.015,1.3029999999998334,0.025253936576494898,2.1737958659445766,0.06761226163255168,0.05171584973431686
0.3520000000000001,-0.0021,-1.697,0.025263518371360094,2.1813665149434627,0.06764241237404534,0.05200490651553114
0.353,-0.0141,1.303,0.025253582699179936,2.1708102314755373,0.06761114809760402,0.05160185450225288
0.3540000000000001,-0.024999999999996383,-0.697,0.02518607653251948,2.1708102314755373,0.06739872850306651,0.05160185450225288
0.355,-0.0087,-1.697,0.025143802166233215,2.167820485040221,0.0672657050447649,0.05148770227020956
0.3560000000000001,-4.196643033082622e-15,-2.697,0.025188313428760413,2.167820485040221,0.06740576727620425,0.05148770227020956
0.357,-0.0189,-2.697,0.025097786480781568,2.166198758442742,0.06712090889161984,0.051425782734599614
0.3580000000000001,-0.02580000000000251,-7.697,0.025103985479894505,2.166198758442742,0.06714041509295299,0.051425782734599614
0.359,-0.0371,-6.697,0.025093364195874886,2.1599510334259273,0.06710699342265931,0.051187236834038356
0.3600000000000001,-0.03139999999999718,-3.697,0.02515978600000079,2.1599510334259273,0.06731600088670096,0.051187236834038356
0.361,-0.0187,-2.697,0.02515957495844735,2.152052805633599,0.06731533680868512,0.05088567268765096
0.3620000000000001,0.005900000000012079,4.303,0.02520289967804722,2.1627006472633123,0.06745166538170491,0.05129222050525779
0.363,0.0603,5.303,0.025389671928247204,2.161326277597956,0.06803937592166033,0.051239745364523505
0.3640000000000001,0.03709999999999536,5.303,0.025754703484253832,2.1629516574617615,0.06918800957923912,0.051301804386379
0.365,0.0162,4.303,0.025845260047806854,2.167820485040219,0.06947296115424702,0.051487702270209476
0.3660000000000001,-0.002599999999998712,1.303,0.02600921787653829,2.169440999345489,0.06998888225039752,0.05154957551899725
0.367,0.0032,-0.697,0.025962808337481425,2.1772761511125402,0.06984284677013218,0.051848731344401724
0.3680000000000001,-0.0018000000000010436,-1.697,0.026392213146479306,2.1772761511125402,0.07119404177841304,0.051848731344401724
0.369,-0.0065,-2.697,0.027269134408958902,2.1800039130879707,0.07395342315395705,0.05195288068439261
0.3700000000000001,0.006400000000004419,-0.697,0.027476452403554796,2.161326277597955,0.07460578436080641,0.05123974536452347
0.371,0.0263,1.303,0.027778185913583685,2.155064426868554,0.0755552399887803,0.05100066012671211
0.3720000000000001,0.008099999999997824,3.303,0.027779245504800626,2.1566945259436796,0.075558574172127,0.05106289933391687
0.373,-0.0017,5.303,0.02787669607818154,2.1504191879618,0.0758652189174751,0.05082329913605527
0.3740000000000001,-0.010400000000000555,2.303,0.02816238553177591,2.1594482862784323,0.07676418920268469,0.051168041323555576
0.375,-0.0129,-0.697,0.02837028113681274,2.161075078610644,0.07741836795868152,0.05123015427520905
0.3760000000000001,-0.01979999999999547,-1.697,0.02845261073821847,2.161075078610644,0.07767743200296362,0.05123015427520905
0.377,0.0006,-2.697,0.028670041314556097,2.16407414408815,0.07836161416217294,0.05134466231985705
0.3780000000000001,-0.012900000000002665,-1.697,0.028986783427097585,2.165446769733343,0.07935829690165412,0.0513970708717355
0.379,-0.0249,0.303,0.028991299016919048,2.174413467973637,0.07937250597034257,0.051739430546822875
0.3800000000000001,-0.000300000000002176,1.303,0.028988203127617886,2.183343341497555,0.07936276422995618,0.052080384208504214
0.381,-0.0101,1.303,0.028996850376994256,2.184703860549393,0.07938997426567979,0.05213233051561248
0.3820000000000001,-0.0014999999999958256,2.303,0.028988315002269706,2.1863118607784586,0.07936311626250897,0.05219372596142881
0.383,0.0173,0.303,0.02899273469507713,2.1801217760252345,0.07937702357498987,0.051957380837718295
0.3840000000000001,0.03399999999999952,0.303,0.028915958955146034,2.1630704495547834,0.07913543569712221,0.0513063400160255
0.385,0.0318,0.303,0.028725581568435826,2.1983928125563503,0.07853638098412838,0.05265499170435735
0.3860000000000001,0.02589999999999469,0.303,0.028446941602830317,2.243661458674827,0.07765959310764334,0.054383404834970166
0.387,0.002,-1.697,0.028462942917559377,2.2748851672087285,0.07770994395638745,0.05557556480536513
0.3880000000000001,-0.0077999999999980455,-0.697,0.02812726839752925,2.2689367399081757,0.07665368718802408,0.05534844646332629
0.389,0.001,-0.697,0.027872767559355593,2.3036901151981595,0.07585285716717251,0.05667537349417041
0.3899999999999999,-0.0015,0.303,0.02674393051793695,2.339429622429241,0.07230078009778193,0.05803995226726122
0.391,0.0007,-1.697,0.02296138731633284,2.339429622429241,0.06039836683757223,0.05803995226726122
0.3919999999999999,-0.0106,-0.697,0.022382253548232568,2.3577263984052803,0.058576024282978624,0.05873854589787479
0.393,-0.0245,-1.697,0.02243578247677312,2.3577263984052803,0.058744462128869114,0.05873854589787479
0.3939999999999999,-0.03,-3.697,0.022426386222758814,2.35049283793311,0.05871489522310879,0.0584623595752607
0.395,-0.022,-0.697,0.022391339278774937,2.3676786868192816,0.05860461407400608,0.05911853662985705
0.3959999999999999,-0.0178,0.303,0.022362607462226913,2.398753163863021,0.05851420454368636,0.060304998756618204
0.397,-0.0001,-2.697,0.022321669433241133,2.445839552846308,0.05838538609718703,0.06210281556737188
0.3979999999999999,0.0219,0.303,0.02216088409597789,2.459724678778502,0.057879447783124226,0.06263296692022227
0.399,0.0545,3.303,0.02213853067536452,2.4611530000536637,0.05780910895664189,0.06268750200042462
0.3999999999999999,0.0241,1.303,0.02223097217863734,2.495828462164132,0.05809999181394316,0.06401145420930986
0.401,0.0121,2.303,0.022211450677610142,2.545789727260286,0.05803856410240062,0.06591903736053148
0.4019999999999999,-0.006,0.303,0.022175286045278218,2.57681189701161,0.057924765957481736,0.06710350232990471
0.403,-0.0079,1.303,0.022203337728613926,2.5727171958334525,0.058013035333377976,0.06694716155347104
0.4039999999999999,0.0084,0.303,0.022535745841307853,2.570195005056676,0.059059013797457795,0.0668508611771558
0.405,0.017,-0.697,0.02240283283891368,2.5688273141138045,0.058640780508944446,0.06679864103834068
0.4059999999999999,0.0036,0.303,0.02240441380979468,2.5621898019418574,0.058645755301769034,0.06654521258009674
0.40700000000000003,0.0058,-0.697,0.022409458395664838,2.547696880049227,0.0586616289461805,0.06599185482261911
0.4079999999999999,-0.0054,-0.697,0.022341747558222918,2.5342937902871467,0.05844856532034092,0.06548010820941289
0.40900000000000003,-0.0192,-0.6969999999999444,0.022195797371753867,2.416707150194481,0.0579893083225563,0.060990504252871
0.4099999999999999,-0.0026,0.303000000000111,0.021884349869217272,2.324936661157764,0.05700928597080134,0.057486593006250336
0.41100000000000003,-0.0182,2.3029999999998334,0.021660073052490465,2.3002767854832435,0.05630356095588685,0.056545048326438835
0.4119999999999999,-0.0319,-0.697,0.021579591130544598,2.2900315926973542,0.056050310948175266,0.05615387414176263
0.41300000000000003,-0.0445,-0.6970000000000555,0.021582933519526216,2.259738095717918,0.05606082834158369,0.05499723080380191
0.4139999999999999,-0.0296,-1.6969999999999446,0.0207280770515863,2.2003543425195318,0.05337087758166398,0.05272988535449171
0.41500000000000004,-0.0313,-0.6970000000000555,0.020478599117805585,2.162317372914265,0.05258585298078115,0.05127758661460008
0.4159999999999999,-0.0037,-1.696999999999889,0.020457700366641775,2.145377592753311,0.05252009151826343,0.05063080476953984
0.41700000000000004,0.0481,0.303,0.020650317357628165,2.1439921184673882,0.05312619352568686,0.050577905640600836
0.4179999999999999,0.0692,2.303,0.020768430367078077,2.1439921184673882,0.053497856128055486,0.050577905640600836
0.41900000000000004,0.0374,0.303,0.020774311498783865,2.1376794918249873,0.05351636210571895,0.05033688171536953
0.41999999999999993,0.0432,-0.697,0.020785299604196856,2.126651126886587,0.053550938041696826,0.04991580504524262
0.42100000000000004,-0.0046,-0.697,0.021194509256588775,2.1266511268865864,0.054838585566983476,0.04991580504524261
0.42199999999999993,-0.0234,-0.697,0.021127357067291283,2.1235992111905513,0.05462727982221163,0.04979927911361336
0.42300000000000004,-0.0409,2.303,0.02135347019232008,2.108273364906659,0.05533878309242119,0.04921411926841929
0.42399999999999993,-0.0358,-0.697,0.021456287626623806,2.04621312351908,0.05566231557525401,0.0468445821759567
0.42500000000000004,-0.0217,0.303,0.021432089281774574,2.0433067620859764,0.05558617138198044,0.04673361368685862
0.42599999999999993,0.0352,1.303,0.02161329695329046,2.052807039432308,0.056156372032005464,0.04709634607489797
0.42700000000000005,0.0427,1.303,0.02168346641911678,2.0528070394323072,0.05637717214875199,0.04709634607489793
0.42799999999999994,0.0075,2.303,0.021704412206514805,2.0346890555022275,0.05644308161875251,0.046404578946651516
0.42900000000000005,0.0013,2.303,0.021796145775756285,2.026302633867473,0.05673173684164148,0.04608437495304348
0.42999999999999994,0.0071,1.303,0.022125907364824803,2.0280362319986796,0.057769387570593474,0.046150565882751016
0.43100000000000005,0.0021,-0.697,0.02237888333872479,2.0248356853287,0.05856541934756956,0.046028365035942966
0.43199999999999994,-0.0217,-0.697,0.022664568565020093,2.0216300717148252,0.05946437633086619,0.04590597072692406
0.43300000000000005,-0.0086,-0.697,0.022670884115420595,2.0186883176920265,0.05948424928057912,0.04579365090479527
0.43399999999999994,0.0273,-4.697,0.02263238786774444,2.0550466907374245,0.05936311431281069,0.04718185874328275
0.43500000000000005,-0.006,-4.697,0.0224337538982969,2.0550466907374245,0.05873807886288434,0.04718185874328275
0.43599999999999994,-0.0103,-3.697,0.02223657102149488,2.0582002591656856,0.05811760952190248,0.04730226590247693
0.43700000000000006,-0.0064,-0.697,0.0220852387072994,2.061349003092041,0.057641416747048084,0.04742248885619653
0.43799999999999994,-0.0027,4.303,0.022091276759173006,2.061349003092041,0.057660416500614896,0.04742248885619653
0.43900000000000006,-0.006,5.303,0.022096634250109475,2.061349003092041,0.05767727475384955,0.04742248885619653
0.43999999999999995,0.0027,3.303,0.022130900345040876,2.061349003092041,0.057785098829068085,0.04742248885619653
0.44100000000000006,0.0002,3.303,0.022131772868391887,2.063053151721907,0.05778784437166981,0.0474875553673678
0.44199999999999995,-0.0165,0.303,0.0221371714837259,2.054782499017209,0.05780483202979124,0.0471717715752896
0.44300000000000006,-0.0144,0.303,0.02214423559841476,2.056228083094169,0.057827060463906316,0.0472269657707043
0.44399999999999995,-0.0006,-2.697,0.0220155231271127,2.0479298672422437,0.057422044858392474,0.046910129583432665
0.44500000000000006,-0.0061,-3.697,0.021949691169664724,2.0131892504927107,0.05721489344689185,0.04558368968950855
0.44599999999999995,0.0153,-4.697,0.022161851712297915,2.0198909754193535,0.057882492551869606,0.04583956987047638
0.44700000000000006,-0.0053,-2.697,0.022345510056121162,2.0562280830941693,0.05846040465765676,0.047226965770704316
0.44799999999999995,-0.0186,-0.697,0.022353957499936437,2.093354035577214,0.058486985971318746,0.04864448074542345
0.44900000000000007,-0.0254,4.303,0.022484229449491012,2.1126326943202502,0.05889690873945903,0.04938056387953926
0.44999999999999996,0.004,5.303,0.023103455813320326,2.090772890161773,0.06084540944152315,0.048545929407784745
0.45100000000000007,0.0079,4.303,0.024394463345680795,2.1284373364964218,0.06490778344578603,0.0499840047465455
0.45199999999999996,0.0113,1.303,0.024478678927747237,2.1206777430041384,0.06517278204785852,0.049687733829911956
0.45300000000000007,0.041,0.303,0.024471475207113763,2.1206777430041384,0.06515011431997789,0.049687733829911956
0.45399999999999996,0.005,0.303,0.024704556631287154,2.128437336496422,0.0658835445244534,0.04998400474654551
0.45500000000000007,-0.0091,0.303,0.024769821844682297,2.131482324841292,0.06608891257973835,0.05010026618330379
0.45599999999999996,-0.0048,-0.697,0.025540399771108547,2.131482324841292,0.06851366662501433,0.05010026618330379
0.4570000000000001,0.0072,1.303,0.025778630662476404,2.150419187961796,0.0692633005007638,0.050823299136055114
0.45799999999999996,0.0036,-1.697,0.025786869150558344,2.1504191879617958,0.06928922429979642,0.0508232991360551
0.4590000000000001,0.0004,-1.697,0.02581639419768495,2.1504191879617958,0.06938212986457067,0.0508232991360551
0.45999999999999996,-0.0026,-1.697,0.02587664212703385,2.188414885835991,0.06957171018526032,0.052274022069996616
0.4610000000000001,-0.0001,-1.697,0.026209957913231652,2.210898896310078,0.07062054479785522,0.053132489514119856
0.46199999999999997,-0.0071,-1.697,0.026408129778696002,2.203429718413154,0.07124412615927975,0.052847307025601455
0.4630000000000001,-0.005,0.303,0.026223721499022228,2.203429718413154,0.0706638542532376,0.052847307025601455
0.46399999999999997,-0.0188,3.303,0.025878140021762322,2.209554506742799,0.06957642356489098,0.05308115905076422
0.4650000000000001,-0.0134,3.303,0.025997792543766177,2.2201710998363526,0.06995293050443162,0.053486513760451056
0.46599999999999997,-0.0283,-0.697,0.026050263269472865,2.2367871827938495,0.07011803853575807,0.0541209364442646
0.4670000000000001,-0.0224,-0.697,0.026049156008715053,2.2307371666849742,0.07011455435212186,0.053889939315354865
0.46799999999999997,0.0052,-0.697,0.025600899534210443,2.241011182093347,0.06870403938328927,0.054282213983554005
0.4690000000000001,0.0093,-1.6969999999999446,0.024647771286796853,2.2527988201315883,0.06570485981387024,0.05473228064361901
0.47,0.0419,-0.6969999999999444,0.024376657763183776,2.2906305129508997,0.06485175516271753,0.05617674166087749
0.4710000000000001,0.0202,0.30299999999988897,0.024292939933363508,2.3462345537424087,0.06458832282244813,0.0582997729962447
0.472,0.032,-1.6969999999999446,0.024357850902573693,2.3657350240570616,0.06479257618836679,0.059044325171645734
0.4730000000000001,0.021,-0.6970000000000555,0.024290421782959017,2.3739453281840412,0.06458039903541697,0.05935780478007617
0.474,-0.0019,-1.696999999999778,0.023949695627043008,2.3669907087878435,0.06350824643857284,0.05909226877417613
0.4750000000000001,0.0307,2.302999999999778,0.023684116929140214,2.365505531848707,0.06267255805457582,0.059035562874110804
0.476,0.0263,-1.6969999999999446,0.023605036262728675,2.368245727733018,0.06242371733489183,0.05914018695618515
0.4770000000000001,-0.0096,-0.6969999999999444,0.023350491144401905,2.365505531848707,0.06162274797903376,0.059035562874110804
0.478,-0.0238,0.3029999999999445,0.02297337309273231,2.3627621580446854,0.060436082114397216,0.05893081745511505
0.4790000000000001,-0.045499999999997355,-0.6969999999999444,0.02296113507010024,2.3557745243908896,0.06039757310204992,0.05866402092385756
0.48,-0.0336,0.303,0.02299081119474148,2.347500669352951,0.060490954057829026,0.05834811486271907
0.4810000000000001,-0.037299999999990494,0.303,0.02297975064016648,2.351987494749065,0.06045615014828402,0.058519427428796573
0.482,0.0055,-1.697,0.023001133894659208,2.3504928379331087,0.060523436182641194,0.05846235957526064
0.4830000000000001,0.01120000000000111,-3.697,0.022908321944421568,2.3504928379331087,0.0602313876511807,0.05846235957526064
0.484,0.0162,0.303,0.022904154589345537,2.3504928379331087,0.06021827436213858,0.05846235957526064
0.4850000000000001,0.01149999999999709,1.303,0.022800512548134463,2.2999290445074867,0.059892147113915,0.05653177114410435
0.486,-0.0016,1.303,0.022962310534680747,2.2511112909143915,0.06040127190057364,0.054667848682264084
0.4870000000000001,-0.0056000000000008,-1.697,0.023090298242282297,2.2179692664592277,0.06080400691426879,0.05340244502752531
0.488,-0.0092,-0.697,0.02312430372460064,2.2163842339893463,0.06091101092773095,0.05334192651927966
0.4890000000000001,-0.012399999999996714,-0.697,0.023146812681763846,2.1788763260181288,0.06098183917632815,0.05190982800964897
0.49,0.0024,-0.697,0.023182346300064913,2.1280478911259704,0.061093651728652866,0.04996913523862642
0.4910000000000001,0.004900000000001554,0.303,0.02328635232815948,2.107758291523954,0.06142092432329488,0.0491944531269675
0.492,0.0119,1.303,0.023440679251322386,2.08584740396141,0.06190654014280027,0.04835786822740221
0.4930000000000001,0.005399999999993316,0.303,0.0234232743406203,2.1051948070086017,0.06185177264144156,0.049096576104428295
0.494,-0.0247,-0.697,0.02348295203301518,2.1051948070086017,0.062039558614909965,0.049096576104428295
0.4950000000000001,-0.03769999999999911,-1.697,0.023496323296431688,2.1051948070086017,0.062081633561450404,0.049096576104428295
0.496,-0.0337,-3.697,0.023581721293754052,2.0714148287131073,0.062350352833524816,0.047806814579753096
0.4970000000000001,0.006100000000005885,-4.697,0.023663588999204323,2.0138561073738197,0.0626079634438996,0.0456091511134383
0.498,0.0326,-2.697,0.023667654425796502,2.005111829749432,0.06262075599769215,0.045275283733703556
0.4990000000000001,0.07610000000000129,-0.697,0.023613745570242713,2.003358394177131,0.06245112264706338,0.04520833538585774
0.5,0.0819,4.303,0.023509191908087663,1.959989600136834,0.06212212682903546,0.04355246096712848
0.5010000000000001,0.023599999999994847,1.303,0.023537066839116782,1.903324726757885,0.062209840023842514,0.041388925726062085
0.502,0.0004,0.303,0.02357430348992567,1.869947112634543,0.062327011456587963,0.04011452696519952
0.5030000000000001,-0.03479999999999669,2.303,0.023741712971164647,1.8664755016692314,0.06285379376234948,0.039981976546944915
0.504,-0.0199,1.303,0.023549425050902687,1.8664755016692314,0.062248727231732345,0.039981976546944915
0.5050000000000001,-0.06459999999999348,-0.697,0.023551028683726667,1.8699471126345433,0.06225377333420132,0.040114526965199536
0.506,-0.0352,-2.697,0.02358108408463884,1.8699471126345433,0.06234834774704774,0.040114526965199536
0.5070000000000001,-0.008800000000001045,-0.697,0.02357680247593237,1.8680668108419252,0.062334874939593415,0.04004273470749935
0.508,-0.0135,-0.697,0.023604619050178032,1.8680668108419252,0.06242240450489086,0.04004273470749935
0.5090000000000001,0.026000000000003486,4.303,0.023686856026548648,1.860818372514625,0.06268117708880161,0.03976598032989871
0.51,0.0417,3.303,0.023787423568098476,1.8516446276015521,0.06299762990276597,0.03941571535570112
0.5110000000000001,0.03699999999999325,1.303,0.023941690109661577,1.8424252056361483,0.06348305572133393,0.03906370637491651
0.512,0.0066,-0.697,0.023973546318546847,1.8350754872980728,0.06358329668167384,0.03878308500071884
0.5130000000000001,-0.013300000000005639,-1.697,0.023971855678257298,1.8350754872980728,0.06357797679546817,0.03878308500071884
0.514,-0.0387,-2.697,0.02400669144020782,1.857037378979132,0.0636875934245112,0.03962161730087405
0.5150000000000001,-0.035399999999992764,-2.697,0.023988389391266168,1.8394919946363968,0.06363000292563209,0.038951712736017746
0.516,-0.0028,-0.697,0.023951228974277143,1.8159812738279206,0.06351307137552116,0.03805404421619524
0.5170000000000001,0.001599999999999112,2.303,0.023808699288280503,1.817616790836668,0.0630645775621893,0.03811649028683453
0.518,-0.0024,3.303,0.023720769465835595,1.8156822971131938,0.06278789147326576,0.0380426289139101
0.5189999999999999,0.0085,4.303,0.02375953279028117,1.8263670006892994,0.06290986684335412,0.03845058416641121
0.52,0.0382,5.303,0.023848901510373142,1.8884957668045692,0.06319108066759269,0.04082273761808194
0.5209999999999999,0.0183,3.303,0.02347714639754019,1.8900685365024423,0.062021290198932016,0.04088278791846246
0.522,0.0147,2.303,0.023447502571420295,1.8990566766789212,0.061928010875924366,0.04122596627330338
0.5229999999999999,0.005,1.303,0.02324043572271424,1.9785172828063387,0.06127643994218233,0.04425987090207524
0.524,-0.0037,0.303,0.02315091820402359,2.092056931359707,0.06099475789793421,0.04859495569544858
0.5249999999999999,0.0097,1.303,0.02315219062088984,2.119141192231538,0.06099876177325676,0.049629066413080784
0.526,-0.0069,0.303,0.0232396321771964,2.187918679215849,0.06127391145002322,0.052255076284971246
0.5269999999999999,-0.009,0.303,0.023643223585370646,2.198639747922054,0.06254388021768269,0.052664420003303555
0.528,0.0008,1.303,0.023923698870337767,2.197040770414061,0.06342644323759428,0.052603369056183624
0.5289999999999999,-0.0118,-0.697,0.023945462454037104,2.207471621176436,0.06349492604225936,0.05300163189298168
0.53,-0.0005,-1.697,0.023693872922114712,2.2058790456455633,0.062703256939944,0.052940825381299204
0.5309999999999999,0.0101,0.303,0.023538874525544862,2.2281868371334457,0.062215528215560395,0.05379256456567237
0.532,0.0065,-0.697,0.02644475944212289,2.340003508802229,0.07135938760335375,0.05806186396172534
0.5329999999999999,-0.0074,-0.697,0.028672391564788055,2.412340702918556,0.07836900962285501,0.06082378787292703
0.534,-0.0166,0.303,0.02895141926877856,2.4021214596663483,0.07924701758388346,0.06043360447367504
0.5349999999999999,-0.0279,1.303,0.028909071872075677,2.4048199335310834,0.07911376432299856,0.06053663555722494
0.536,-0.0264,0.303,0.028894141764490552,2.4035840116939395,0.07906678420908414,0.06048944652651835
0.5369999999999999,-0.0141,0.303,0.028895545692718152,2.4008841487151926,0.07907120190719412,0.060386362404870254
0.538,0.0105,-0.697,0.028918305254913804,2.3937810064810834,0.07914281872699916,0.06011515561255946
0.5389999999999999,0.0141,2.303,0.028931500473501348,2.3994199510028946,0.07918433971864867,0.06033045751774097
0.54,-0.0222,1.303,0.028909354870566256,2.397954859247686,0.07911465482571256,0.06027451849494298
0.5409999999999999,-0.0269,-0.697,0.028932618125116584,2.39648887180985,0.07918785659887884,0.06021854527386989
0.542,-0.0138,-2.697,0.028933918224246395,2.397954859247686,0.07919194758113535,0.06027451849494298
0.5429999999999999,0.022,0.303,0.028931541486301494,2.4023474540193015,0.07918446877237531,0.06044223321874655
0.544,0.0079,-2.697,0.02893296428621966,2.4023474540193015,0.07918894585345806,0.06044223321874655
0.5449999999999999,0.0209,-0.697,0.028847781003023095,2.4035840116939395,0.07892090221577086,0.06048944652651835
0.546,0.0249,0.303,0.028783397170619108,2.397954859247686,0.07871830757515356,0.06027451849494298
0.5469999999999999,0.0068,2.303,0.028725264608472717,2.3668699013391112,0.07853538361588516,0.059087656195745616
0.548,-0.0095,0.303,0.02873628724089564,2.3340985286192883,0.07857006819695153,0.057836404484596475
0.5489999999999999,-0.0123,0.303,0.028581474487775482,2.318180051838174,0.07808292363114576,0.057228617270995596
0.55,0.0121,2.303,0.027637443014882142,2.3240024412684215,0.07511236860450234,0.05745092333061229
0.5509999999999999,0.0154,2.303,0.026510493147106056,2.294157560567374,0.07156622984682173,0.056311408719323545
0.552,0.0303,0.303,0.0264171181975886,2.2913287644922518,0.07127240974270853,0.0562034017719262
0.5529999999999999,0.0278,0.303,0.02648716013961647,2.2928619891460396,0.07149280858421016,0.05626194219341021
0.554,0.0057,1.303,0.026342431895110072,2.3005127847235385,0.07103739663390929,0.056554059070534714
0.5549999999999999,-0.015,0.303,0.026275405934842098,2.3483037789782037,0.07082648809017249,0.05837877858564057
0.556,-0.0016,0.303,0.02592668418910416,2.364019421858797,0.06972917601483797,0.05897882134900814
0.5569999999999999,-0.0136,1.303,0.025717369961343377,2.364019421858797,0.06907053332200791,0.05897882134900814
0.558,-0.0201,-0.697,0.025759584538051807,2.3697291873137623,0.06920336864226954,0.059196827285374176
0.5589999999999999,-0.0219,0.303,0.02575597492240023,2.369729187313762,0.06919201037485377,0.05919682728537416
0.56,-0.0273,0.303,0.02572925659756099,2.3359585193342314,0.06910793663744813,0.057907421240125496
0.5609999999999999,-0.0124,-0.697,0.02538842743067533,2.3245926091105336,0.06803545989912939,0.05747345667178848
0.562,-0.0065,-1.697,0.025121377013522607,2.3430052517587385,0.06719514050108122,0.05817647423584701
0.563,0.0138,-2.696999999999889,0.025440983911391338,2.362532377057393,0.06820083777312666,0.058922044131641635
0.5640000000000001,0.0162,-1.696999999999667,0.025461554174165305,2.365046480625673,0.06826556559125257,0.0590180357282925
0.565,-0.0005,1.303,0.025268185191571868,2.3576051162385454,0.06765709731478786,0.058733915194121356
0.5660000000000001,0.0108,1.302999999999889,0.025081133337675386,2.3418464286865346,0.06706850695441337,0.05813222893173934
0.567,0.009,0.30300000000022204,0.025112033436332698,2.3418464286865346,0.06716573935187668,0.05813222893173934
0.5680000000000001,0.0145,2.303000000000333,0.02524322268518515,2.333523190027326,0.06757854855772429,0.05781443734260832
0.569,0.0226,5.302999999999556,0.025243122698735916,2.3296999901451194,0.06757823393341576,0.05766846282284759
0.5700000000000001,-0.0002,1.3029999999996669,0.025576610043864023,2.2940455565415188,0.06862760838526118,0.05630713226651197
0.571,-0.0165,-1.6970000000004442,0.025426944968400433,2.2431774730181053,0.06815666185964513,0.05436492566150612
0.5720000000000001,-0.0078,-5.697000000000111,0.02537049080903582,2.2239384802683233,0.06797901927919014,0.05363035702427631
0.573,-0.0053,-6.696999999999667,0.02540767211831208,2.221264671564997,0.06809601657042375,0.053528267687222124
0.5740000000000001,-0.0031,-3.697000000000222,0.025402675421861174,2.2260059577607123,0.0680802936181864,0.05370929588265832
0.575,-0.0368,-5.696999999999667,0.025424528490069556,2.228917658798782,0.06814905800102528,0.053820468244505565
0.5760000000000001,-0.0509,-2.696999999999667,0.025406206522544324,2.2260059577607123,0.06809140482494709,0.05370929588265832
0.577,-0.0378,0.303,0.025431994864335575,2.23630170939073,0.06817255221307601,0.054102400466795354
0.5780000000000001,-0.0259,2.303,0.025465567885727555,2.2392000225845736,0.06827819541493865,0.05421306166412291
0.579,-0.0295,0.303,0.025489411656035375,2.2583090029002824,0.06835322387932335,0.054942666265149674
0.5800000000000001,0.0198,3.303,0.025472315679555532,2.2567523032666488,0.068299428491854,0.054883229539780184
0.581,0.1261,7.303,0.025473658557735344,2.250755953900418,0.06830365408564167,0.05465428147375652
0.5820000000000001,0.1109,6.303,0.025453471956595967,2.2536356781292395,0.06824013352387305,0.054764232921312786
0.583,0.0416,3.303,0.025459066157701493,2.25495378692663,0.06825773662577297,0.05481455995223444
0.5840000000000001,0.0043,1.303,0.025450651467106414,2.25495378692663,0.06823125837566946,0.05481455995223444
0.585,-0.0069,-0.697,0.025397014793870125,2.25495378692663,0.06806248149283295,0.05481455995223444
0.5860000000000001,0.0032,0.303,0.025253378490552675,2.2536356781292395,0.06761050552054845,0.054764232921312786
0.587,0.0127,0.303,0.025116312619097372,2.2536356781292395,0.06717920452569401,0.054764232921312786
0.5880000000000001,-0.0127,-1.697,0.02508602666954918,2.2536356781292395,0.06708390465249031,0.054764232921312786
0.589,-0.005,0.303,0.02507378008921976,2.2536356781292395,0.06704536871189792,0.054764232921312786
0.5900000000000001,-0.0119,0.303,0.02503936375279366,2.2449854236899776,0.06693707187635296,0.054433955463559086
0.591,-0.0057,-0.697,0.02512039603017452,2.274885167208707,0.06719205367071657,0.05557556480536432
0.5920000000000001,-0.0114,-1.697,0.025747884829583782,2.439535053700876,0.06916655352667449,0.06186210196006886
0.593,-0.0062,0.303,0.025910167024955615,2.4532345734797723,0.06967720195846781,0.0623851666394711
0.5940000000000001,-0.0108,1.303,0.02596820428957968,2.4546666712198673,0.06985982604793091,0.062439845909794824
0.595,-0.0324,-0.697,0.026070995170002876,2.4380940679051313,0.07018327497447822,0.061807083332741826
0.5960000000000001,-0.0283,0.303,0.026104272047086898,2.4380940679051313,0.07028798630808447,0.061807083332741826
0.597,-0.0101,-2.697,0.02666504866914813,2.447497802939137,0.07205256499144402,0.06216612961539497
0.5980000000000001,-0.0134,-0.697,0.028625780791568967,2.447497802939137,0.07822234092519248,0.06216612961539497
0.599,-0.0222,-1.697,0.029067242820589402,2.4676222791481828,0.07961147601976684,0.06293450711083376
0.6000000000000001,-0.0248,-1.697,0.02906809289697573,2.487583954302858,0.07961415092918983,0.06369666865982442
0.601,-0.0081,0.303,0.02907110174212261,2.5312029051148017,0.07962361877039226,0.06536209437477962
0.6020000000000001,-0.0193,-0.697,0.02903478172437651,2.5740828199609624,0.07950933167893251,0.06699930277870876
0.603,-0.0211,-2.697,0.028901725076017012,2.6072567934312887,0.07909064638404373,0.0682659262865258
0.6040000000000001,0.006400000000009326,-4.697,0.02882634953903451,2.6261573075598834,0.07885346448206426,0.06898757138962207
0.605,0.0484,-2.697,0.028848351006963643,2.6324273227895643,0.07892269582977571,0.06922696835819409
0.6060000000000001,0.012400000000001044,-2.697,0.028819440743345325,2.6324273227895643,0.07883172478550556,0.06922696835819409
0.607,0.0171,-1.697,0.02882624918236432,2.6324273227895643,0.07885314869279278,0.06922696835819409
0.6080000000000001,0.012699999999992006,-0.697,0.02879509545126973,2.631298310403311,0.07875511819787918,0.06918386126309967
0.609,-0.0233,1.303,0.028742039078152933,2.6364292883770775,0.0785881673277196,0.06937976837460312
0.6100000000000001,0.0006000000000009326,2.303,0.028658987684793073,2.6517626544349504,0.07832683204272245,0.06996521533410703
0.611,0.0048,3.303,0.028532268317907557,2.653087591795084,0.07792808807805236,0.07001580308803501
0.6120000000000001,0.04069999999999467,3.303,0.028569791695996556,2.658176511072615,0.07804616174678003,0.07021010434628103
0.613,0.0167,2.303,0.02869034687122876,2.658176511072615,0.07842550903768795,0.07021010434628103
0.6140000000000001,-0.02269999999999887,2.303,0.028989032628040597,2.642880356954275,0.07936537439362237,0.06962607818484419
0.615,-0.0176,-0.697,0.02954581145741658,2.637761927637448,0.08111737334474034,0.0694306501966476
0.6160000000000001,-0.012800000000002887,-0.697,0.03002722340781824,2.637761927637448,0.08263221763776894,0.0694306501966476
0.617,-0.0258,-0.697,0.030120533509955617,2.6353019905078754,0.08292583368861019,0.06933672674189909
0.6180000000000001,0.0022000000000088377,-2.697,0.030295473814175924,2.637761927637448,0.08347631300522813,0.0694306501966476
0.619,0.042,-0.697,0.030833124889541336,2.661527906735401,0.08516812323652477,0.07033806479498271
0.6200000000000001,0.02639999999999256,-1.697,0.030959232795615035,2.613779863618194,0.08556494313611833,0.06851498520764857
0.621,-0.0071,1.303,0.03099528068669769,2.611297334609197,0.08567837393491075,0.06842019916688545
0.6220000000000001,-0.02019999999999558,-1.697,0.030997429954745997,2.633045946864461,0.08568513697108891,0.06925058819367948
0.623,-0.0003,-1.697,0.031007085890438994,2.569772518790593,0.08571552100926284,0.06683473012680606
0.6240000000000001,-0.011199999999997825,1.303,0.031111842237428865,2.479415665854002,0.08604515460947515,0.06338479326216649
0.625,-0.0014,0.303,0.031261894311524936,2.4493647476351197,0.08651731889187796,0.06223741188255664
0.6260000000000001,0.013300000000000554,2.303,0.03104508709708464,2.38121555239959,0.08583509824652778,0.05963539096994734
0.627,0.0158,1.303,0.030647897408289437,2.3641281107728225,0.08458527357387638,0.05898297122673282
0.6280000000000001,-0.011099999999995959,3.303,0.030497975922429203,2.366869901339136,0.08411352020949012,0.05908765619574657
0.629,0.0071,0.303,0.030559943853653865,2.3571445264190776,0.08430851280759273,0.05871632930278033
0.6300000000000001,-0.002699999999999334,-0.697,0.03055994385365387,2.3586349680924688,0.08430851280759273,0.058773236216938085
0.631,0.0003,1.303,0.03061345645315051,2.3375723936494444,0.08447689927137907,0.057969040965846305
0.6320000000000001,0.00839999999999738,1.303,0.02796497350800611,2.225633585188721,0.07614299881193223,0.053695078235388154
0.633,-0.0034,-0.697,0.025705288511134357,2.173414548200926,0.0690325169913261,0.05170129054928322
0.6340000000000001,-0.0012000000000012877,0.303,0.025411528847994674,2.1847038605493974,0.06810815242401973,0.05213233051561265
0.635,-0.007,-0.697,0.025409200696915532,2.258789746361411,0.06810082650206742,0.05496102164755931
0.6360000000000001,0.0020000000000010435,0.303,0.025495440097378044,2.2751238003303764,0.06837219339172575,0.05558467611432224
0.637,0.0067,0.303,0.02551772514259164,2.277972719886827,0.06844231706342425,0.05569345140122924
0.6380000000000001,-0.0070999999999996006,-0.697,0.02549794841977332,2.277972719886827,0.06838008625326021,0.05569345140122924
0.639,-0.0053,-0.697,0.025476020461375724,2.2921642046639774,0.06831108621574837,0.056235299915265255
0.6400000000000001,-0.030000000000007236,-3.697,0.02560208690324646,2.293696870866764,0.06870777564119984,0.05629381901439647
0.641,-0.0626,-8.697,0.02559100605435373,2.2936968708667638,0.06867290787214454,0.05629381901439646
0.6420000000000001,-0.03209999999999911,-3.697,0.025608587712312843,2.2936968708667655,0.06872823153870314,0.05629381901439652
0.643,-0.0281,-0.697,0.025756897183893013,2.337120261832369,0.06919491242694835,0.057951778011541125
0.6440000000000001,-0.024499999999989076,0.303,0.02636523538762238,2.35440372517349,0.07110915168790112,0.058611682107260615
0.645,0.0247,-0.697,0.027025623272914287,2.354403725173491,0.073187174093421,0.05861168210726065
0.6459999999999999,0.0598,2.303,0.026853973392679704,2.3626534062928872,0.07264704865354471,0.058926665178166165
0.647,0.1043,2.303,0.02689768772945188,2.3834943539735827,0.07278460322303061,0.059722398444220844
0.6479999999999999,0.0513,3.303,0.027005745314953658,2.376110764257048,0.07312462472972407,0.05944048381872672
0.649,-0.0125,3.303,0.027013030491762208,2.3761107642570485,0.07314754877326501,0.05944048381872674
0.6499999999999999,0.0128,5.303,0.026939331823419933,2.3761107642570494,0.07291564342266257,0.059440483818726776
0.651,0.0052,5.303,0.02693209834357336,2.3859863700992405,0.07289288205237424,0.059817546714880696
0.6519999999999999,0.0122,4.303,0.026990980735496287,2.3874588064677664,0.07307816547811782,0.05987376616413684
0.653,0.0184,3.303,0.026933093239541843,2.38598637009924,0.07289601266115692,0.05981754671488068
0.6539999999999999,0.0126,2.303,0.026853730764661885,2.371669576727495,0.07264628518336536,0.05927091376307488
0.655,0.0075,0.303,0.02685606821245762,2.324359054769274,0.07265364035901205,0.05746453927697423
0.6559999999999999,-0.0065,0.303,0.026426282044502668,2.328191025195538,0.07130124534013893,0.05761084866699974
0.657,-0.0021,-0.697,0.02640388240261187,2.310711506648465,0.07123076107057344,0.05694345894002444
0.6579999999999999,0.0098,-1.697,0.026348883579745144,2.3208654121337506,0.0710576979530637,0.05733114766218851
0.659,-0.001,-2.697,0.02631805241949932,2.3367655958185134,0.070960682481996,0.05793823642265141
0.6599999999999999,-0.0043,-0.697,0.026216158952335145,2.335493660527328,0.07064005741836439,0.057889672353542275
0.661,-0.0192,-1.697,0.02621920019985966,2.325637079796765,0.07064962721913971,0.05751333585977873
0.6619999999999999,-0.0271,-1.697,0.026221238752961253,2.307085827507922,0.07065604187197376,0.056805026007493126
0.663,-0.0438,0.303,0.025903550521622014,2.2883841906572857,0.06965638200934451,0.05609097428586677
0.6639999999999999,-0.0594,-0.697,0.02586739454355724,2.2883841906572853,0.06954261109654397,0.056090974285866756
0.665,-0.0536,1.303,0.02578997591508394,2.2883841906572857,0.06929900026091963,0.05609097428586677
0.6659999999999999,-0.0261,0.303,0.025741515179013987,2.2883841906572857,0.06914651034160983,0.05609097428586677
0.667,0.0337,1.303,0.02573408338959382,2.2883841906572857,0.0691231249566381,0.05609097428586677
0.6679999999999999,0.0591,4.303,0.02562088643368569,2.2968710066537845,0.06876693154992568,0.0564150114608919
0.669,0.0359,1.303,0.025905412085066106,2.2819951893205634,0.06966223973422452,0.055847034279952024
0.6699999999999999,0.0149,0.303,0.026051256467192606,2.2804546585716303,0.07012116380071326,0.055788214902681495
0.671,-0.0169,-3.697,0.02611662841478971,2.274520796897647,0.0703268677132543,0.05556165269435499
0.6719999999999999,-0.011,1.303,0.026108348119784287,2.2894451800915614,0.0703008123616514,0.056131484180172955
0.673,0.026,1.303,0.02604720654539351,2.2819951893205634,0.07010842003537994,0.055847034279952024
0.6739999999999999,0.0307,0.303,0.026382764437417893,2.2845979223831967,0.07116430981395677,0.05594640986077151
0.675,0.0002,1.303,0.026384007628873263,2.2845979223831967,0.07116822172657078,0.05594640986077151
0.6759999999999999,-0.0117,0.303,0.026394446231618122,2.28613566116247,0.07120106855927205,0.056005122637172916
0.677,-0.0226,1.303,0.026363791410050495,2.276065343921622,0.07110460796774169,0.05562062541799467
0.6779999999999999,-0.0324,0.303,0.02632220718697267,2.274759468243475,0.07097375616201292,0.05557076546275878
0.679,-0.0295,-0.697,0.026300425527651987,2.254472225486025,0.07090521647934175,0.05479617333835251
0.6799999999999999,-0.0269,0.303,0.026295949649300817,2.2560304984128776,0.070891132369525,0.05485567013401106
0.681,-0.02,0.303,0.026322183352922354,2.25734720882871,0.07097368116413413,0.054905943772988096
0.6819999999999999,-0.0135,-3.697,0.026327386108390926,2.254472225486025,0.07099005251599404,0.05479617333835251
0.683,-0.0153,-3.697,0.026313896247515515,2.253153834972259,0.07094760438244892,0.05474583555114975
0.6839999999999999,-0.0027,-5.697,0.02631205213917381,2.2531538349722595,0.07094180158300693,0.05474583555114977
0.685,0.022,-2.697,0.026311803252420333,2.254713019062813,0.07094101841865506,0.05480536713617005
0.6859999999999999,0.0111,1.303,0.026305875949495804,2.2606988726083106,0.0709223671554266,0.05503391445872275
0.687,0.0078,0.303,0.02630622640521858,2.2622528565334226,0.07092346992375456,0.055093247494968085
0.688,-0.007,3.302999999999556,0.026299846785940845,2.2622528565334226,0.07090339537046084,0.055093247494968085
0.6890000000000001,-0.0259,-0.6969999999998889,0.026291102383491794,2.268218812455001,0.07087587962612828,0.05532103510152751
0.69,-0.0092,0.30299999999988897,0.026294248529117808,2.2682188124550007,0.07088577950655839,0.0553210351015275
0.6910000000000001,0.011,-0.697000000000444,0.02616578172586263,2.2369020538082,0.07048153693719059,0.0541253223622576
0.692,0.0298,-4.696999999999778,0.02541145764446086,2.054379091064025,0.06810792837003281,0.04715636895862084
0.6930000000000001,0.0566,-2.696999999999556,0.025212407499359706,2.018008689940773,0.0674815833528777,0.045767701873182506
0.694,0.0603,1.303000000000111,0.025163517728792488,2.016266470086564,0.06732774340380822,0.0457011817553829
0.6950000000000001,0.011,2.303000000000111,0.02509082160046656,2.0180086899407734,0.06709899271528061,0.04576770187318252
0.696,0.0321,3.302999999999889,0.025066601200262644,2.016266470086564,0.0670227791210955,0.0457011817553829
0.6970000000000001,0.0261,2.302999999999667,0.02435083102355744,2.024962579852045,0.06477048694929274,0.04603321002644209
0.698,-0.0148,-0.697000000000111,0.02212646943419198,2.0336215039202274,0.05777115621711845,0.046363818501395294
0.6990000000000001,-0.0097,-1.697000000000111,0.021827210319463417,2.010902980835063,0.05682948669332469,0.04549639707452604
0.7,-0.024,-2.696999999999778,0.021808004839442327,1.986156232821269,0.056769053395438016,0.04455153550090917
0.7010000000000001,-0.0196,-0.6969999999998889,0.021836844706935216,1.9183220669586463,0.05685980292636856,0.041961542801011074
0.702,-0.0077,0.303000000000111,0.021842596091384222,1.8499002995478848,0.056877900632298625,0.03934911474422791
0.7030000000000001,-0.0041,1.303,0.021832342867249516,1.812264518207598,0.05684563712481269,0.03791213387055266
0.704,-0.0074,1.303,0.021791645953105197,1.7867336290221862,0.05671757738702686,0.036937332813132134
0.7050000000000001,0.0075,3.303,0.021780516352319118,1.7758104752259523,0.05668255621187653,0.036520273235081085
0.706,0.006,0.303,0.02177122004361991,1.7758104752259523,0.0566533038009892,0.036520273235081085
0.7070000000000001,-0.002,-2.697,0.021783012977117808,1.7853739195150438,0.0566904122649408,0.036885417415445765
0.708,0.0002,-2.697,0.02181209159443931,1.7834044516607461,0.05678191306267107,0.036810220686770055
0.7090000000000001,0.0023,-0.697,0.021800299117301903,1.7867336290221862,0.056744806034735105,0.036937332813132134
0.71,0.004,0.303,0.02183974426696034,1.76588784256433,0.05686892688341343,0.036141414796555894
0.7110000000000001,0.0058,1.303,0.022154504342901022,1.7675697112007256,0.057859372808808866,0.03620563062990562
0.712,-0.0021,1.303,0.02244465562442272,1.7599074094034244,0.05877238299179531,0.035913074431018814
0.7130000000000001,-0.0097,2.303,0.022295917240764705,1.8453694662038949,0.05830435245900389,0.03917612190004444
0.714,0.0106,2.303,0.022226091989351635,1.935861573688705,0.0580846354712471,0.04263122295131564
0.7150000000000001,0.0076,-0.697,0.021434378739160088,2.0517630463022214,0.055593375547667814,0.04705648512059443
0.716,-0.0112,-0.697,0.021091413432201077,2.068295427470637,0.05451417708256907,0.047687711966146656
0.7170000000000001,-0.0091,2.303,0.021359897718061304,2.068295427470637,0.05535900839152161,0.047687711966146656
0.718,-0.0384,1.303,0.02109182779875104,2.1063618379690885,0.05451548095714658,0.04914113479590446
0.7190000000000001,-0.0503,0.303,0.02063976865476261,2.220055363122267,0.05309300024429573,0.05348209478896699
0.72,-0.0323,-0.697,0.02081971071415957,2.3984197007777417,0.053659218431288944,0.06029226672187471
0.7210000000000001,-0.0026,-2.697,0.020780475566242056,2.4530132673251224,0.05353575838868014,0.06237671689563336
0.722,0.0093,0.303,0.020763086013017837,2.4320983787639454,0.05348103921222835,0.061578160474930345
0.7230000000000001,0.0419,2.303,0.02073871864079267,2.4364294175759826,0.05340436314566914,0.06174352491574722
0.724,0.0114,1.303,0.021137400637519066,2.528322974044019,0.054658883618146685,0.0652521350297404
0.7250000000000001,0.0075,-0.697,0.02252001856804014,2.6194688814809,0.059009525266617166,0.06873219897517449
0.726,0.004,0.303,0.023429749386215663,2.661538800531313,0.06187214746981681,0.07033848073364028
0.7270000000000001,-0.0057,-0.697,0.023664823144938927,2.676728333166646,0.06261184689262013,0.07091843595443638
0.728,-0.0028,-0.697,0.023557739452980345,2.67430423921031,0.062274889907018606,0.07082588103655779
0.7290000000000001,0.00520000000000151,-0.697,0.02447810320643364,2.744035640834749,0.06517097044317037,0.07348831255413137
0.73,0.012,1.303,0.028371877050182348,2.9606398745537503,0.07742338977057901,0.08175853121113344
0.7310000000000001,0.005199999999998712,0.303,0.028343297084746633,3.0237752729180762,0.07733345806552033,0.08416911913226927
0.732,-0.0006,-0.697,0.028395533326027882,3.025919415124871,0.07749782825186105,0.08425098514466173
0.7330000000000001,0.001199999999999689,-0.697,0.028385173579816323,3.002516032261312,0.07746522955460662,0.08335741492088548
0.734,-0.0002,-0.697,0.028506126334604164,2.983461971506244,0.07784582789696927,0.08262990721689184
0.7350000000000001,0.0040999999999985345,-1.697,0.028562584145863205,3.004675345142145,0.078023481968729,0.08343986016845409
0.736,-0.0025,-0.697,0.028738533784577747,3.092445133080098,0.07857713732739799,0.08679101967841661
0.7370000000000001,-0.003499999999998801,0.303,0.028857546332910267,3.1452213055807046,0.07895163048131719,0.08880607949034025
0.738,0.0019,-1.697,0.02890908836601568,3.1686797626461667,0.07911381622397623,0.08970175251554506
0.7390000000000001,0.006600000000001843,-0.697,0.0289079069677326,3.1530330193397633,0.0791100987540517,0.08910434042349051
0.74,0.0149,-0.697,0.029143835904662352,3.193657097335273,0.0798524891400198,0.09065541817480458
0.7410000000000001,0.0046999999999979575,0.303,0.029380751278056207,3.382621929549234,0.0805979835155063,0.09787033015533653
0.742,-0.0045,0.303,0.029366644860216236,3.4205203628367005,0.08055359528097633,0.0993173394065581
0.7430000000000001,-0.023299999999998225,0.303,0.02923904411659115,3.387888425980654,0.08015207791501691,0.0980714115298616
0.744,-0.0153,-0.697,0.028693289886578547,3.3778208374289367,0.07843476973427682,0.09768701849542327
0.7450000000000001,-0.02219999999999656,0.303,0.02807533946677936,3.3759002064709,0.07649028400635419,0.09761368642010024
0.746,-0.0067,-2.697,0.02809837194057676,3.3701317462220515,0.07656275958876797,0.09739343944360719
0.7470000000000001,0.023400000000002866,-2.697,0.027916554432985664,3.360495641761706,0.07599063998617551,0.09702552100766307
0.748,0.0363,-0.697,0.02783299111258578,3.3587267431906405,0.07572769383598404,0.09695798226332002
0.7490000000000001,0.008399999999994337,0.303,0.027851788199161565,3.379664349941786,0.07578684205467935,0.0977574060927311
0.75,-0.0171,0.303,0.027913064979554342,3.3746220424967808,0.0759796598295512,0.09756488453214092
0.7510000000000001,-0.007300000000000666,-0.697,0.02786993436454124,3.3636314811737136,0.0758439420395111,0.09714525125099797
0.752,-0.0103,-1.697,0.027914816617967787,3.3676468543218747,0.07598517165669186,0.0972985631847242
0.7530000000000001,-0.012799999999999511,-0.697,0.02793869342997304,3.3676468543218743,0.07606030409237755,0.09729856318472418
0.754,-0.0106,-0.697,0.02793869342997304,3.3667643998335115,0.07606030409237755,0.09726486997638607
0.7550000000000001,-0.0040999999999969585,0.303,0.028028082016360492,3.3648374579268236,0.07634158042928182,0.09719129694120558
0.756,0.0096,-1.697,0.028021308683644035,3.3569569125248826,0.07632026698992549,0.09689040793044398
0.7570000000000001,0.011399999999998956,0.303,0.028055748159890002,3.3569569125248826,0.07642863663883545,0.09689040793044398
0.758,0.0067,2.303,0.028066599918870335,3.34590832569966,0.07646278353765458,0.09646855916356345
0.7590000000000001,-0.013200000000005395,-0.697,0.028089107494190153,3.334823134054341,0.07653360743804735,0.09604531277918996
0.76,-0.0375,1.303,0.028124228007039325,3.338873152682677,0.07664412008405337,0.09619994752037753
0.7610000000000001,-0.040799999999992766,-0.697,0.0281214776082545,3.343969365629334,0.07663546548813137,0.09639452725996919
0.762,-0.0082,-5.697,0.02812634544533846,3.342029280624063,0.07665078296253117,0.09632045240496162
0.7630000000000001,0.039999999999992916,-5.697,0.028136561142356225,3.3522043627549265,0.07668292838458345,0.09670894967775438
0.764,0.0081,-6.697,0.028138648422501113,3.350431086710742,0.07668949636531759,0.096641243796051
0.7650000000000001,0.03750000000000113,-2.697,0.028145592363605244,3.350431086710742,0.07671134665288097,0.096641243796051
0.766,0.0426,0.303,0.028161883945692613,3.356233407251987,0.07676261087706333,0.09686278360056083
0.7670000000000001,-0.0008999999999908961,4.303,0.028182741808506932,3.3562334072519873,0.0768282436774595,0.09686278360056085
0.768,0.0401,8.303,0.028168267924183126,3.354462261090271,0.07678269914735888,0.09679515904041533
0.7690000000000001,0.045099999999988254,9.303,0.027919029637667424,3.353576337231812,0.07599842863721151,0.09676133336721814
0.77,-0.0078,5.303,0.027470357495015477,3.353576337231812,0.07458660569810471,0.09676133336721814
0.7710000000000001,-0.014599999999995804,2.303,0.027283500591222372,3.3525282482568275,0.07399862878127117,0.09672131602846952
0.772,0.0043,-1.697,0.02728340878213679,3.3414650180418923,0.07399833988842335,0.09629890815878327
0.7729999999999999,-0.0485,-6.697,0.027292296344649726,3.3425165760365125,0.07402630611016008,0.09633905794900995
0.774,-0.0836,-6.697,0.02698564758194715,3.336690402767731,0.07306138380659719,0.09611660741773866
0.7749999999999999,-0.0647,-4.697,0.02728877765373463,3.339848593389484,0.07401523395283781,0.09623719105802093
0.776,-0.0353,-2.697,0.027431483771239117,3.3438925253433105,0.07446428293781125,0.09639159340241633
0.7769999999999999,0.0017,0.303,0.02742866390787891,3.355995084008656,0.07445540975982975,0.09685368412314273
0.778,0.0739,6.303,0.027447974594681183,3.356880369528825,0.07451617410868416,0.09688748542379125
0.7789999999999999,0.1464,11.303,0.027556212226024182,3.370538745987563,0.07485676216013172,0.09740897920013152
0.78,0.0236,6.303,0.027621952623932685,3.3949062530204968,0.07506362546402362,0.09833936088209731
0.7809999999999999,-0.0264,1.303,0.027603700617391477,3.3949062530204968,0.07500619243203885,0.09833936088209731
0.782,-0.0111,-0.697,0.02772713461959766,3.3968161375789125,0.0753945984399323,0.09841228264653623
0.7829999999999999,0.0303,-1.697,0.027893832757277286,3.396816137578913,0.07591914238262379,0.09841228264653624
0.784,0.0181,-6.697,0.028026392583346976,3.4007923292664706,0.07633626434197481,0.09856409858343486
0.7849999999999999,-0.0387,-7.697,0.028031484899002496,3.400792329266471,0.07635228817624529,0.09856409858343487
0.786,-0.0285,-5.697,0.02808774061005296,3.3968161375789134,0.07652930630544619,0.09841228264653626
0.7869999999999999,-0.019,-3.697,0.02846159604839843,3.3957813943532025,0.07770570580430124,0.0983727748650698
0.788,0.0064,0.303,0.029021660489651838,3.3957813943532025,0.0794680434900465,0.0983727748650698
0.7889999999999999,0.0451,5.303,0.029054975465009077,3.3917993283733985,0.07957287470632644,0.0982207346403976
0.79,0.0383,11.303,0.0290493127815017,3.3975310007578745,0.07955505611294252,0.09843957701053986
0.7909999999999999,-0.0063,5.303,0.029023160609791918,3.3964964753153595,0.07947276387231196,0.0984000775443063
0.792,-0.012,1.303,0.02904908251379302,3.398405466178001,0.0795543315365707,0.09847296518633063
0.7929999999999999,-0.0069,1.303,0.029099272848579407,3.405158223047239,0.07971226393137919,0.09873079383024634
0.794,-0.0116,0.303,0.029012111021002172,3.407062360700943,0.07943799446846876,0.09880349617072595
0.7949999999999999,-0.0159,-0.697,0.029037830446724564,3.4060307302524357,0.07951892500050695,0.09876410723895905
0.796,-0.0039,-1.697,0.029100515316636533,3.4060307302524357,0.07971617356769801,0.09876410723895905
0.7969999999999999,-0.0148,-1.697,0.029093850127975197,3.3951418448809547,0.07969520042193966,0.09834835607192506
0.798,-0.018,-3.697,0.02901184639842569,3.383179327794822,0.07943716178868286,0.09789161231261893
0.7989999999999999,-0.0209,0.303,0.028807688647079922,3.3871715277351053,0.07879474482282721,0.0980440394644882
0.8,-0.0183,-0.697,0.028868577194283256,3.3991199951079687,0.07898634095616959,0.09850024678829254
0.8009999999999999,-0.0252,-1.697,0.028910228873280038,3.411026608513371,0.07911740502338,0.0989548560756383
0.802,-0.0139,0.303,0.028946239828207345,3.4218649465676627,0.07923071959629957,0.0993686772833243
0.8029999999999999,-0.0041,-0.697,0.02894384445829079,3.428729838705531,0.0792231821588829,0.09963078739106374
0.804,0.0235,0.303,0.02894336294490368,3.4287298387055314,0.07922166699540209,0.09963078739106375
0.8049999999999999,-0.0044,2.303,0.028940523176608064,3.434399878288233,0.07921273118316778,0.09984727654428885
0.806,-0.0152,0.303,0.02903009529756207,3.441082000682916,0.07949458504269169,0.10010240827624092
0.8069999999999999,0.008,-0.697,0.0290212257598333,3.4380168051626088,0.07946667553899323,0.09998537530442796
0.808,0.0112,-0.697,0.029127384416860008,3.4390388405572936,0.079800721745404,0.10002439788512324
0.8089999999999999,0.0142,-1.697,0.029414581867618708,3.4333764619839005,0.08070443719927088,0.0998082012387482
0.81,0.0009,-1.697,0.02940593854900297,3.4373103618943444,0.08067723953235183,0.09995840242307194
0.8109999999999999,0.0078,0.303,0.02921503267472572,3.435422989715731,0.08007652184365871,0.09988634020925334
0.812,-0.0079,-2.697,0.02948064856111917,3.446184601385953,0.08091232724754438,0.10029723190830453
0.813,0.0102,-1.696999999999556,0.030109271540268084,3.398085953424612,0.08289039599227718,0.09846076579258445
0.8140000000000001,0.0123,2.303,0.029854595637790835,3.3492966406237663,0.08208901510192394,0.09659792923551457
0.815,-0.0123,2.302999999999667,0.029868633501696842,3.2795756465138575,0.08213318761988196,0.09393589508977147
0.8160000000000001,-0.0156,-0.697000000000111,0.02979505256415363,3.2795756465138575,0.08190165272919213,0.09393589508977147
0.817,-0.0007,-1.696999999999889,0.02972019041877814,3.2847638590573105,0.08166608630091524,0.09413398748822856
0.8180000000000001,-0.0086,-0.6969999999998889,0.029891362415633026,3.259573067316454,0.08220470799974423,0.09317217177362828
0.819,-0.0064,0.303,0.029631504194083197,3.157225669746318,0.0813870200641147,0.08926442102311331
0.8200000000000001,-0.0042,0.30299999999988897,0.02931781878913285,3.0381319088202785,0.08039995577312871,0.0847172733213707
0.821,-0.0025,-0.697,0.029420422095967295,3.0381319088202785,0.08072281446758851,0.0847172733213707
0.8220000000000001,-0.0117,-0.697,0.02938443083670371,3.0468371963580205,0.0806095618704129,0.08504965201117323
0.823,0.0097,-0.697000000000111,0.02960886067051723,3.057462007892344,0.08131576837952453,0.08545532051113562
0.8240000000000001,0.0421,-1.697,0.02923748057747178,2.9874431511201665,0.08014715797418467,0.08278191359901386
0.825,0.0289,-1.697000000000111,0.028030863552695646,2.913704447909752,0.07635033300478322,0.07996647832998287
0.8260000000000001,0.0009,-2.696999999999556,0.027351541536579857,2.8753264239181977,0.07421273114761472,0.07850115771004716
0.827,0.0117,1.303000000000222,0.027127725007072136,2.8671368034680644,0.0735084545044459,0.078188467830087
0.8280000000000001,-0.0246,3.303000000000111,0.027131490231458034,2.873069897925102,0.07352030242111725,0.07841500074511765
0.829,-0.0198,4.302999999999667,0.026107085793830177,2.807798211825658,0.07029684023909413,0.0759228467050729
0.8300000000000001,-0.0067,1.303,0.021621965651910754,2.5770225717723045,0.05618364956141032,0.06711154615391747
0.831,-0.0267,1.302999999999778,0.021531901275029925,2.504045825337857,0.055900246735183706,0.06432520334091207
0.8320000000000001,-0.0305,-0.697000000000111,0.021380052487850965,2.5176099524184683,0.055422428790553445,0.0648430985589416
0.833,-0.0273,-1.697,0.02136740442163707,2.5229721494296498,0.055382629506580586,0.06504783390045817
0.8340000000000001,0.0053,-0.697,0.02115100102697861,2.532275076108204,0.05470167954861448,0.0654030311949003
0.835,0.0182,-0.697,0.021107421407278674,2.4393125046602675,0.05456454888922865,0.06185360476130161
0.8360000000000001,0.046,0.303,0.02077830410663559,2.3413951222011575,0.05352892552300314,0.05811499748962343
0.837,0.0568,0.303,0.020974419667205663,2.2686974560001727,0.054146036372569324,0.0553393103065379
0.8380000000000001,0.014,-0.697,0.020925693474832807,2.2358161305744892,0.053992711150012106,0.05408386046452224
0.839,-0.0034,2.303,0.021136325147574544,2.2358161305744892,0.05465549940675911,0.05408386046452224
0.8400000000000001,-0.0085,0.303,0.020734386941787558,2.186311860778446,0.05339073272060067,0.052193725961428336
0.841,-0.0132,1.303,0.020539985859496575,1.8929386944935127,0.05277901676751438,0.04099237411518051
0.8420000000000001,-0.0177,2.303,0.020624235669540414,1.8929386944935125,0.053044123073718814,0.04099237411518051
0.843,-0.0059,1.303,0.0207000051287353,1.9155050802721763,0.053282544518702624,0.041853986750739244
0.8440000000000001,0.0195,0.303,0.020752410166209427,1.9240922842388233,0.05344744585087229,0.042181856863142395
0.845,0.0292,0.303,0.02073431595207649,1.9240922842388233,0.05339050933944326,0.042181856863142395
0.8460000000000001,0.0023,-0.697,0.020676155301035216,1.9311032371544812,0.053207496993706534,0.042449543752779366
0.847,-0.0086,0.303,0.020739543015776227,1.9240922842388233,0.053406957181272356,0.042181856863142395
0.8480000000000001,-0.0119,-1.697,0.02072751478634835,1.9362746996613154,0.053369108318798424,0.04264699661403548
0.849,-0.0206,-2.697,0.020774598350986336,1.9065944833619521,0.053517264734790564,0.041513769094109504
0.8500000000000001,-0.0231,-2.697,0.02090762465892188,1.9155050802721763,0.05393585455839319,0.041853986750739244
0.851,-0.0162,-2.697,0.02110435280909215,1.9136695425980352,0.05455489302495986,0.04178390364267773
0.8520000000000001,-0.0096,-2.697,0.020987978036669477,1.9047503588935446,0.054188700079998875,0.04144335813157845
0.853,0.0126,-0.697,0.02104371313337183,1.9136695425980355,0.05436408000791824,0.04178390364267775
0.8539999999999999,0.0097,2.303,0.02118716683288384,1.9152216398383468,0.05481548138638068,0.0418431646429542
0.8550000000000002,0.02309999999999258,2.303,0.022152851443250382,1.9186050493585025,0.0578541716799199,0.04197234742049017
0.8560000000000001,0.0064,1.303,0.0230283751840943,1.908436825851821,0.060609155516781234,0.04158411201848681
0.857,-0.0274,-0.697,0.023126717056334938,1.9173388607206763,0.06091860488505137,0.04192400276574339
0.8579999999999999,-0.0416,-0.697,0.02312410283072165,1.917338860720676,0.060910378781092636,0.04192400276574339
0.8590000000000002,-0.011099999999987611,-1.697,0.023097489201440315,1.917338860720676,0.06082663448600404,0.04192400276574339
0.8600000000000001,0.0168,0.303,0.02306173440947882,1.91183224263695,0.06071412597327164,0.041713753248312
0.861,0.0567,-2.697,0.023068695813739114,1.914938157450954,0.060736031211615596,0.04183234093333
0.8619999999999999,0.0617,1.303,0.023115360036093196,1.959304409666114,0.060882868096040085,0.04352629954397782
0.8630000000000002,0.008699999999990674,1.303,0.02333715249842592,1.9823404374045024,0.061580775668798014,0.044405843692834984
0.8640000000000001,-0.0123,-0.697,0.023323285928848667,1.9755113301340357,0.06153714215747688,0.044145099895776294
0.865,-0.0312,-2.697,0.023292209027309104,1.9725007966063086,0.06143935341977949,0.044030153986728
0.8659999999999999,-0.0371,-1.697,0.02329941046392678,1.962611824955706,0.0614620139606173,0.04365258076740913
0.8670000000000002,-0.031999999999989384,-0.697,0.023420926202336642,1.9694856612164275,0.06184438382636275,0.04391503237286735
0.8680000000000001,-0.0081,-0.697,0.023625823679677825,1.9694856612164287,0.062489128465433884,0.04391503237286738
0.869,0.0137,3.303,0.023687903596071532,1.9677004791014234,0.06268447344385049,0.04384687190259322
0.8699999999999999,0.0257,5.303,0.023713169131815325,1.9709938054633322,0.0627639757341444,0.043972615193267714
0.8710000000000002,0.000400000000016076,3.303,0.023709805443261286,2.014125667392741,0.06275339131802145,0.04561944324974325
0.8720000000000001,0.0366,3.303,0.023708624989070105,2.0368082450063087,0.06274967681884211,0.04648549223386414
0.873,0.0127,2.303,0.023754906861786083,2.038266576864614,0.06289531057532859,0.046541173155402835
0.8739999999999999,0.0084,-1.697,0.02373726654961528,2.0382665768646135,0.06283980234335203,0.04654117315540282
0.8750000000000002,0.020399999999988767,1.303,0.023430496375024968,2.041180114845041,0.06187449799670713,0.04665241565399069
0.8760000000000001,-0.0049,-1.697,0.0232558619919524,2.0345485167372312,0.061324981312828944,0.046399213002060555
0.877,0.0048,-1.697,0.023360016197357097,2.0345485167372375,0.0616527201724908,0.04639921300206079
0.8779999999999999,-0.0038,-0.697,0.023563470020102225,2.0330875179194754,0.062292922107700696,0.046343430252697784
0.8790000000000002,-0.00630000000000302,0.303,0.023715490053516464,2.0200181805620243,0.06277127890763357,0.04584442672080715
0.8800000000000001,-0.0131,-0.697,0.023731161871332417,1.9770148777704515,0.06282059293849646,0.0442025072118794
0.881,-0.0066,-2.697,0.023844490934439123,1.9737315980666819,0.06317720204289913,0.04407714751509019
0.8819999999999999,-0.0083,-1.697,0.023707370325925646,1.9820665546155907,0.06274572880861412,0.04439538650780309
0.8830000000000002,0.0008000000000049738,-2.697,0.023978971017162638,2.005111829749439,0.06360036641526205,0.045275283733703806
0.8840000000000001,0.012,-0.697,0.023912001092607944,1.9966011773107954,0.06338963419739418,0.04495033645371371
0.885,-0.0108,-3.697,0.023914712817307823,1.9980888550503872,0.0633981670987533,0.0450071378374463
0.8859999999999999,-0.0404,-0.697,0.02386966295845385,1.9980888550503872,0.0632564100826889,0.0450071378374463
0.8870000000000002,-0.012500000000007994,0.303,0.023483354838294328,1.9980888550503872,0.0620408261099894,0.0450071378374463
0.8880000000000001,-0.0305,0.303,0.022785196692029563,2.0095526577112333,0.05984395317690536,0.04544484006061205
0.889,0.0188,2.303,0.022758712805657957,2.019211752459569,0.05976061713987142,0.04581363629430465
0.8899999999999999,0.0258,2.303,0.022764267903745444,2.0110307545017765,0.05977809719749779,0.045501275631810834
0.8910000000000002,0.01959999999998179,5.303,0.02279126393752132,2.0110307545017765,0.05986304479313948,0.045501275631810834
0.8920000000000001,-0.0214,3.303,0.02290071405636243,2.0095526577112306,0.06020744814199574,0.04544484006061195
0.893,-0.0163,2.303,0.023061930221189825,1.9980888550503848,0.06071474212800705,0.04500713783744622
0.8939999999999999,0.0076,0.303,0.02306295400035931,1.9948402610128213,0.0607179636226769,0.04488310248247094
0.8950000000000002,0.0031999999999911626,-1.697,0.023011060703696216,2.003358394177135,0.06055467256970046,0.04520833538585789
0.8960000000000001,-0.0167,-0.697,0.022825480771664863,2.0118404618861505,0.05997071386094016,0.045532191265369726
0.897,-0.013,-2.697,0.022850073476480503,2.0301623660792636,0.06004809897468531,0.0462317443225194
0.8979999999999999,-0.0228,-1.697,0.022835965329926915,2.031892671113731,0.06000370530046497,0.04629780951770353
0.8990000000000002,-0.03150000000000115,-1.697,0.022823104024139104,2.0348153355528624,0.0599632350220323,0.04640940047581942
0.9000000000000001,-0.0341,0.303,0.022820335321184475,2.0147922143381627,0.05995452282893779,0.04564489283994353
0.901,-0.012,0.303,0.022712723998803946,1.9978171312292592,0.059615905564789275,0.04499676308448575
0.9019999999999999,0.0206,-1.697,0.022656754330856222,2.0022741381105233,0.059439787518690564,0.04516693714263291
0.9029999999999998,0.0249,1.303,0.022637614217417938,1.993479057512396,0.0593795599078352,0.044831130042265556
0.9040000000000001,0.0688,1.303,0.022605049515968995,1.9917153808863772,0.05927708955556633,0.044763790678269834
0.905,0.063,-0.697,0.02258403458083928,1.9801483144001244,0.05921096250050868,0.04432214571400061
0.9059999999999999,0.0261,-1.697,0.02250719021312699,1.968513280520084,0.05896915867369626,0.04387790567022384
0.9069999999999998,-0.0073,-0.697,0.022513099359785644,1.9768702388631354,0.05898775280515699,0.044196984718762454
0.9080000000000001,-0.0019,-0.697,0.02234911911300112,1.9750917312929153,0.05847176116680296,0.04412907909089769
0.909,-0.0062,1.303,0.021959521987760827,1.9750917312929157,0.05724582778218672,0.0441290790908977
0.9099999999999999,0.0057,2.303,0.021997890585556092,1.9750917312929177,0.05736656107797046,0.044129079090897784
0.9109999999999998,0.0166,4.303,0.022063725055834798,2.012237988943214,0.05757372039651885,0.04554736934212077
0.9120000000000001,0.033,4.303,0.02153935618023919,2.0122379889432134,0.05592370485790356,0.04554736934212075
0.913,0.0063,-0.697,0.020783341600294335,2.0290924329046236,0.05354477685056938,0.046190892945098344
0.9139999999999999,0.0027,-1.697,0.020823862853930578,2.025893554842393,0.05367228384279507,0.046068755807806484
0.9149999999999998,-0.0136,-0.697,0.020807008427263234,2.0354751073664636,0.0536192485327493,0.04643459138307236
0.9160000000000001,-0.0285,-1.697,0.02057912668314993,2.0268241022108455,0.052902180002839666,0.046104285262035825
0.917,-0.0311,-1.697,0.02054218692455633,2.0829824246341575,0.05278594279176778,0.04824847975850042
0.9179999999999999,-0.0192,0.303,0.020347085208865894,2.0844084515210803,0.05217202217694475,0.04830292723611028
0.9189999999999998,-0.0127,1.303,0.020494749944731924,2.1384276863848077,0.05263667429499374,0.05036544871289056
0.9200000000000002,0.0011,4.303,0.02065385400778929,2.1342550305865378,0.053137322194820535,0.05020613153224455
0.921,-0.0007,3.303,0.020493998482906773,2.079481833426767,0.05263430969300099,0.04811482283861096
0.9219999999999999,-0.0189,1.303,0.02062322143263987,2.0572698103740605,0.05304093160541546,0.047266740212033295
0.9229999999999998,0.0033,-0.697,0.02039095766562336,2.0362750946860815,0.05231007429776298,0.04646513589248694
0.9240000000000002,0.0181,2.303,0.02038109104483155,2.089337329967418,0.052279027303218116,0.04849111793665714
0.925,0.0047,-0.697,0.02037869305441414,2.122064775804103,0.05227148161995139,0.049740692464852694
0.9259999999999999,-0.0221,-2.697,0.02030074243379981,2.142218878673753,0.05202619678089175,0.05051020114298845
0.9269999999999998,-0.0331,-0.697,0.020331843943836515,2.1359010112514785,0.052124062953396125,0.05026897711827274
0.9280000000000002,-0.0364,2.303,0.02035237928507722,2.127913518285647,0.052188680884999034,0.049964004716697284
0.929,-0.0216,0.303,0.020410512828083763,2.1262613543545523,0.052371607930710135,0.04990092304588798
0.9299999999999999,-0.0242,0.303,0.020474528950015128,2.1262613543545523,0.052573045508004665,0.04990092304588798
0.9309999999999998,0.0076,2.303,0.02054824924130453,2.1276583744716557,0.05280501889887496,0.04995426300900091
0.9320000000000002,0.0471,3.303,0.020538372820175618,2.108517103467728,0.052773941065908436,0.049223425509394236
0.933,0.0205,0.303,0.020753924174440386,2.1035110156052204,0.05345220993436949,0.04903228685744705
0.9339999999999999,0.0064,1.303,0.021212041899539964,2.08725758248663,0.05489375499951242,0.048411710594879254
0.9349999999999998,0.0108,-0.697,0.021709563443403326,2.0855732117014707,0.05645929085866878,0.04834739922638215
0.9360000000000002,-0.0171,0.303,0.021735109009144785,2.0514701651555542,0.05653967431081064,0.04704530255466826
0.937,0.001,2.303,0.02136784446350945,2.051470165155554,0.05538401417291159,0.047045302554668246
0.938,-0.0088,2.302999999999889,0.02141371847074636,2.0531825132716524,0.05552836451154197,0.0471106821324073
0.9389999999999998,0.006,1.302999999999889,0.02198971741241218,2.0531825132716524,0.05734084280346011,0.0471106821324073
0.9400000000000002,0.0139,0.30299999999988897,0.022140487713527914,2.045137410318838,0.05781526710890749,0.0468035101099796
0.9410000000000001,0.0259,-0.6969999999998889,0.022003471073997808,2.0537112743741175,0.057384121030649646,0.04713087088799911
0.942,0.0324,0.303,0.021921426609671314,1.9967298661710273,0.0571259542185132,0.04495524995422366
0.9429999999999998,0.0062,0.30299999999977795,0.021868292335941203,1.9922604559008419,0.05695875822087101,0.044784602319283
0.9440000000000002,-0.012,-1.697,0.021832366686758763,1.9839683259637422,0.05684571207693554,0.04446799849979786
0.9450000000000001,-0.0022,-1.697000000000111,0.021911867613776285,1.9872346927693845,0.05709587521784323,0.04459271244113144
0.946,-0.0109,-2.696999999999778,0.021915765331334238,1.9786471478219512,0.05710814004673578,0.04426482930965838
0.9469999999999998,-0.003,-0.6969999999996669,0.02198548385667321,1.9801483144001246,0.05732752120281217,0.04432214571400061
0.9480000000000002,0.009,2.302999999999778,0.02198147020209685,1.9628736510272586,0.05731489155844186,0.0436625776119983
0.9490000000000001,0.0202,0.303000000000111,0.0218864843113968,1.9541790555972074,0.05701600235487067,0.04333060716014657
0.95,0.0064,1.303000000000222,0.021693297345543754,1.945445602624886,0.05640810682492831,0.04299715307907148
0.9509999999999998,-0.0027,3.302999999999889,0.021444265740413925,1.9487765388805773,0.05562448667279058,0.04312433236220055
0.9520000000000002,0.0021,2.302999999999778,0.021411339004941344,1.9487765388805771,0.05552087711910774,0.04312433236220055
0.9530000000000001,0.0035,0.303,0.021318813038118434,1.9418293962679156,0.05522972848293098,0.04285908182918178
0.954,-0.0001,0.303,0.021175187247368728,1.9402985834073325,0.05477778559022258,0.04280063349295767
0.9549999999999998,-0.0138,0.30300000000022204,0.020031679182184098,1.9369530678500306,0.05117954365806479,0.04267289755398621
0.9560000000000002,-0.0083,2.302999999999778,0.019016851649597172,1.9351378743574066,0.04798621683087454,0.04260359121204166
0.9570000000000001,-0.0036,0.30299999999988897,0.018837388162735315,1.9263180952818293,0.047421504553472875,0.042266841093130766
0.958,0.0007,-0.697000000000111,0.018824751463925985,1.9244928708439193,0.04738174103896505,0.042197151757237164
0.9589999999999999,-0.0171,-1.697000000000222,0.018824399823802455,1.924492870843919,0.04738063454371938,0.042197151757237164
0.9600000000000002,-0.024,-3.697,0.018815569064056455,1.9330401484831834,0.047352847061515886,0.04252349743287396
0.9610000000000001,-0.0306,-2.697,0.018810933376343167,1.9299633656555406,0.04733826008445626,0.04240602204327597
0.962,-0.0248,-2.697,0.018751147427988134,1.90629450839593,0.0471501334652617,0.04150231567735012
0.9629999999999999,-0.0157,0.303,0.018459428484439183,1.9000493433039127,0.04623219036801461,0.04126386751789696
0.9640000000000002,0.0089,2.303,0.01844945252554722,1.9071486835773381,0.04620079932260668,0.04153492914662698
0.9650000000000001,0.0052,2.303,0.018447442429932612,1.9071486835773381,0.0461944742160785,0.04153492914662698
0.966,0.0349,5.303,0.018403719060479808,1.9087060833738905,0.04605689122373213,0.04159439260508628
0.9669999999999999,0.0149,1.303,0.018186932098962827,1.9256209235731676,0.04537473430763768,0.04224022221143528
0.9680000000000002,0.0258,-4.697,0.017926934588360942,1.9610824499790573,0.04455660807539874,0.043594187331379444
0.9690000000000001,0.029,-2.697,0.017890321788312836,1.9643868716051627,0.04444139969480412,0.04372035425302082
0.97,0.0022,-1.697,0.01788891819572319,1.9697465735921817,0.044436983052835874,0.043924994331416146
0.9709999999999999,-0.0231,-0.697,0.01795095434899519,1.9274450797840799,0.04463219032317291,0.042309870761095415
0.9720000000000002,-0.0198,1.303,0.01795343409359242,1.9016125573910392,0.04463999325982238,0.04132355297319149
0.9730000000000001,-0.0111,5.303,0.01787272129472234,1.9000493433038985,0.04438601675873907,0.04126386751789641
0.974,0.0078,4.303,0.01789724346840495,1.9016125573910432,0.04446317993432033,0.041323552973191645
0.9749999999999999,0.01,3.303,0.017810571520323004,1.934443881291214,0.04419045196026803,0.04257709369486337
0.9760000000000002,0.0122,-0.697,0.01780426760030191,1.9444761111984856,0.04417061560751506,0.04296013669234276
0.9770000000000001,0.0103,0.303,0.017682400340331566,1.9253389723524785,0.043787139619602664,0.04222945696365747
0.978,0.0158,0.303,0.0173866842397953,1.9253389723524785,0.042856618790445264,0.04222945696365747
0.9789999999999999,0.0173,0.303,0.017194817442553443,1.9167573536419371,0.04225287739478401,0.0419018001032691
0.9800000000000002,0.02169999999999103,1.303,0.01721966700914206,1.920138057135293,0.04233107076763151,0.04203087956134108
0.9810000000000001,0.0015,0.303,0.017310554488888394,1.920138057135293,0.0426170636265263,0.04203087956134108
0.982,-0.031,1.303,0.0173114934685282,1.9081371405173124,0.042620018285103936,0.04157266966021834
0.9829999999999999,-0.0439,1.303,0.01701588027625375,1.9034597218508322,0.04168982127423353,0.041394080006369204
0.9840000000000002,-0.04779999999998548,0.303,0.01693571934799788,1.941976645027695,0.04143758132757045,0.04286470396970709
0.9850000000000001,-0.0151,-0.697,0.017023672379009855,1.9473980262587445,0.041714340446183724,0.0430716990382426
0.986,0.0067,-0.697,0.01715981136571423,1.9543253738714026,0.042142724841078276,0.04333619377357667
0.9869999999999999,0.0187,-0.697,0.018532551079174616,1.9576412012103885,0.0464622830053785,0.043462796179501266
0.9880000000000002,0.05849999999998819,0.303,0.021253197860751572,1.9492018025226625,0.0550232592066961,0.04314056945621544
0.9890000000000001,0.0319,1.303,0.02160023416143795,1.9407257047915725,0.05611526774352178,0.042816941517875254
0.99,0.0079,-2.697,0.021686569044842695,1.9407257047915731,0.05638693508644056,0.04281694151787529
0.9909999999999999,-0.0051,-1.697,0.02182020961041915,1.9440647280781587,0.056807457775816486,0.04294442957388766
0.9920000000000002,0.014899999999988764,-2.697,0.02176747859370146,1.9455925776984553,0.05664153069470904,0.043002764769917406
0.9930000000000001,-0.0104,1.303,0.0216949332381198,1.9489232627566884,0.056413254438174645,0.043129934462015525
0.994,-0.0202,1.303,0.021707871528430824,1.9576412012103914,0.056453966961457144,0.04346279617950136
0.9949999999999999,-0.0053,0.303,0.02174028706654467,1.9507256286816248,0.05655596794601152,0.04319875103149447
0.9960000000000002,-0.024199999999994715,1.303,0.021773118499523163,1.9419766450276967,0.05665927761424459,0.04286470396970716
0.9970000000000001,-0.0123,1.303,0.02182252986732186,1.9298302245409824,0.0568147588574047,0.04240093855016631
0.998,-0.0101,0.303,0.02186769580792926,1.9660443734553232,0.056956881144380155,0.043783639732209556
0.9989999999999999,0.0121,0.303,0.022209504313598385,2.0399900079766304,0.058032439538162235,0.04660697589569067
1.0000000000000002,0.009199999999996492,1.303,0.022320313171998667,2.0968314677270112,0.05838111839132453,0.048777253423731404
1.0010000000000001,0.0013,0.30299999999977795,0.022312457504276403,2.0937360861224485,0.05835639920143515,0.048659067909731686
1.002,-0.0056,-0.697,0.0228806896696792,2.0937360861224503,0.060144438015505994,0.04865906790973175
1.003,-0.0035,-0.6969999999997779,0.022887935036566075,2.1235992111905393,0.060167236790381266,0.0497992791136129
1.0040000000000002,-0.0052999999999992,0.303,0.022916865896182574,2.210769559244522,0.06025827264345035,0.05312755126432557
1.0050000000000001,-0.0035,0.303,0.02298016704240109,2.269880849885407,0.06045746042848827,0.05538449375480301
1.006,-0.0021,0.303,0.022972160013045872,2.2727363415925206,0.060432264953567585,0.05549351997458467
1.007,0.0022,0.30299999999977795,0.0229574170056869,2.262606387986574,0.06038587358222505,0.05510674576492103
1.0080000000000002,-0.001500000000000311,-0.697,0.02298897283476835,2.2701200090567766,0.06048516934660302,0.05539362514899182
1.0090000000000001,-0.0022,2.3029999999991118,0.02300628645802705,2.2760653439216285,0.06053964959654947,0.05562062541799492
1.01,0.0039,-1.697,0.02301870049324325,2.2701200090567744,0.06057871246232384,0.05539362514899174
1.011,0.0072,-2.697000000000222,0.022947862076397034,2.237259591195299,0.06035580737781743,0.05413897358374387
1.0120000000000002,0.002499999999998046,-3.697,0.022759208598650993,2.221984721205522,0.05976217723655244,0.0535557600767696
1.0130000000000001,-0.0019,-1.697,0.022630259711748615,2.206604115863606,0.05935641770928379,0.05296850946273166
1.014,0.0003,-1.697,0.02257884577025259,2.2081961684658697,0.059194635028583034,0.0530292960083504
1.015,-0.0048,1.303000000000444,0.02271326025989642,2.197768756486823,0.05961759300120383,0.05263116446857065
1.0160000000000002,-0.004099999999995959,3.303,0.022751842017935054,2.18729163477391,0.05973899704182034,0.05223113494941443
1.0170000000000001,0.005,4.302999999999334,0.0224845142864056,2.136663398477953,0.05889780502708576,0.05029808600943332
1.018,-0.0154,1.303,0.022443788826772018,2.136663398477953,0.05876965546607999,0.05029808600943332
1.019,-0.0125,-1.696999999999778,0.022313271056012222,2.080910259235039,0.05835895917985501,0.04816936191001729
1.0200000000000002,-0.014999999999994715,-0.697,0.022123724960116786,2.0630390976487454,0.05776252026429945,0.047487018765399895
1.0210000000000001,-0.0031,0.30299999999977795,0.022137244840546227,2.056477990192505,0.05780506285945912,0.04723650753409318
1.022,0.0081,-0.697,0.022017413913741703,2.0547683883749674,0.057427994538976616,0.04717123281344397
1.023,0.0099,1.303000000000666,0.021940941363818703,2.053321776640804,0.05718736069985494,0.04711599938080093
1.0240000000000002,0.004399999999997913,4.303,0.02193218919550748,1.996329250999282,0.057159820518920886,0.04493995396941876
1.0250000000000001,-0.0003,2.303,0.021922479580328648,1.973456520515048,0.05712926756914701,0.04406664471253373
1.026,0.0073,-0.697,0.02194910307932694,1.956955188492848,0.05721304292097275,0.04343660336194578
1.027,-0.0075,-0.697,0.021991650820958174,1.9638488241334215,0.057346926601129763,0.04369981093231677
1.0280000000000002,-0.025699999999999022,1.303,0.022016133637495203,1.9725007966063055,0.05742396593278207,0.04403015398672788
1.0290000000000001,-0.0235,1.303,0.021959992809545213,1.975786121606123,0.05724730930272753,0.04415559177546036
1.03,-0.03,0.303,0.021935756546995564,2.018815598613898,0.05717104579498319,0.04579851064847003
1.031,-0.0079,0.303,0.021886602531184435,2.039990007976633,0.057016374353468686,0.046606975895690766
1.0319999999999998,-0.0348,-2.697,0.021958688099599877,2.0512196479368603,0.05724320381175852,0.04703573749612637
1.0330000000000001,0.0122,-3.697,0.021761284856101737,2.0480553308842415,0.05662204104961894,0.04691491994110486
1.034,0.0184,-1.697,0.021359142947099573,2.046603974130229,0.05535663337676976,0.04685950533771086
1.035,0.0241,-1.697,0.02096275573979941,2.048320390272672,0.05410933384814938,0.046925040237748065
1.0359999999999998,0.072,1.303,0.02101638246620339,2.054907544267609,0.0542780794315922,0.04717654595825095
1.0370000000000001,0.104,1.303,0.02101516613426133,2.0728488136017593,0.05427425203698907,0.047861565903752484
1.038,0.0395,1.303,0.021009037955531686,2.0742818071534868,0.05425496868399479,0.047916279377276896
1.039,-0.0203,1.303,0.020588088539595057,2.0979893309177013,0.05293038000302563,0.048821462078370736
1.0399999999999998,-0.0279,1.303,0.020439254611319242,2.1183724988967865,0.05246204882290111,0.049599716746874245
1.0410000000000001,-0.0211,1.303,0.02052498684372687,2.1022339705555235,0.05273181982231845,0.048983527691411836
1.042,-0.0272,1.303,0.020865030050693546,2.0941180669664625,0.05380182340454533,0.04867365241276074
1.043,-0.0098,-1.697,0.021250108643220664,2.0746673698576172,0.05501353846016558,0.04793100064017373
1.0439999999999998,0.0168,-0.697,0.021420105482662165,2.0746673698576172,0.0555484623270243,0.04793100064017373
1.0450000000000002,0.0121,0.303,0.0213516256891188,2.0715388699788058,0.055332979050486626,0.047811550629331644
1.046,-0.0183,-1.697,0.02213084084324104,2.0715388699788058,0.05778491159657035,0.047811550629331644
1.047,-0.0144,-3.697,0.0233187099194122,2.07662203414018,0.06152274296822971,0.048005632150095165
1.0479999999999998,-0.0399,-5.697,0.023321337821673,2.0816927860565615,0.061531012108077814,0.048199239755929366
1.0490000000000002,-0.0301,-4.697,0.02333399346408492,2.083380294089649,0.061570835231841786,0.0482636709084487
1.05,0.0025,0.303,0.023326212868590476,2.083380294089649,0.06154635226944069,0.0482636709084487
1.051,0.0507,3.303,0.023310734697167535,2.0802648975748776,0.061497647579773156,0.04814472120031951
1.0519999999999998,0.0061,4.303,0.02336020908807169,2.081953562969972,0.06165332713581593,0.048209196542357655
1.0530000000000002,0.012,6.303,0.02335468280817234,2.080264897574878,0.06163593775950274,0.048144721200319526
1.054,0.017,5.303,0.023353872283671213,2.080264897574879,0.061633387306789904,0.04814472120031956
1.055,0.0123,1.303,0.02336017925053726,2.080264897574879,0.061653233246956894,0.04814472120031956
1.0559999999999998,-0.0007,0.303,0.023359754823265477,2.080264897574879,0.06165189771461308,0.04814472120031956
1.0570000000000002,-0.0126,-1.697,0.02340796063496215,2.0833802940896504,0.06180358547117705,0.04826367090844875
1.058,-0.009,-1.697,0.02341075082224709,2.086491038926344,0.06181236526835813,0.04838244300973173
1.059,-0.0187,-0.697,0.023410536412246802,2.1041630269734855,0.06181169059095339,0.0490571814612589
1.0599999999999998,-0.0158,0.303,0.023809274969163387,2.1013368176489067,0.06306638903965536,0.04894927327920994
1.0610000000000002,0.0084,1.303,0.023819260799511275,2.096313583022207,0.0630978111472724,0.04875747994251032
1.062,0.0052,1.303,0.023850222496017093,2.078574860283147,0.06319523737280583,0.048080193477563954
1.063,-0.0036,-0.697,0.023851085466212188,2.0509549632400064,0.06319795285478338,0.04702563150567291
1.0639999999999998,0.0262,0.303,0.023851002648665985,2.0426353254255956,0.0631976922553381,0.04670797740126837
1.0650000000000002,0.0142,0.303,0.023953653550313772,2.0455426408539994,0.06352070071494458,0.04681898231509184
1.066,0.0034,2.303,0.024207033864446063,2.045542640853997,0.06431800481699035,0.04681898231509175
1.067,-0.0064,1.303,0.024315097331092415,2.0212200470001713,0.06465804482970199,0.04589031547408463
1.0679999999999998,-0.0092,0.303,0.02431532750143086,1.9782428707112796,0.06465876909968182,0.04424939350747727
1.0690000000000002,-0.0012,-0.697,0.0243906143017952,1.9767402571107546,0.06489567177685292,0.044192021854024516
1.07,-0.0081,-0.697,0.024445282826378752,1.969891735553291,0.06506769555483474,0.04393053679537653
1.071,-0.0016,0.303,0.02440082269724694,1.9767402571107566,0.0649277942232902,0.044192021854024606
1.0719999999999998,-0.0074,-0.697,0.024631295903475448,1.98533605030599,0.06565301722795382,0.04452021991384264
