time_sec,bts_raw,diy_raw,bts_rms,diy_rms,bts_norm_rms,diy_norm_rms
0.0,-0.0075,0.504,0.02738299715198744,0.9635799430964876,0.1354151076423692,0.03339895950290035
0.001,-0.0054,0.504,0.02769904782743434,0.9733963755317759,0.13730832340270402,0.03454014286405161
0.002,0.0206,0.503999999999778,0.027769182842815165,0.9739026166603263,0.13772844816998236,0.03459899458604333
0.003,0.0161,-1.495999999999889,0.027812540076878868,0.9739026166603263,0.13798816790871687,0.03459899458604333
0.004,0.0121,-0.496,0.02781621881463254,0.9739026166603263,0.13801020438841602,0.03459899458604333
0.005,0.02,-0.496,0.027816488004645923,0.9739026166603263,0.1380118168981034,0.03459899458604333
0.006,0.0216,-0.495999999999889,0.027819398105919636,0.9415490964676065,0.13802924906966188,0.03083782176058001
0.007,0.0524,0.503999999999889,0.027822239597107338,0.9107535943257444,0.13804627025112842,0.02725777219835238
0.008,0.0727,-0.49599999999977795,0.027990843790766842,0.9107535943257444,0.13905624789551524,0.02725777219835238
0.009000000000000001,0.09099999999999997,1.503999999999889,0.028409221243466877,0.9102122317008438,0.1415624244322381,0.027194837519795942
0.01,0.0714,0.503999999999889,0.029131696020524143,0.8997066797447169,0.14589021342504788,0.02597354239337663
0.011,0.0537,-0.496,0.02945432992971923,0.9002543598432027,0.14782286425973715,0.026037211493097515
0.012,0.0141,-0.496,0.02955502604787187,0.8997066797447169,0.14842605701552403,0.02597354239337663
0.013000000000000001,-0.013000000000000058,0.504,0.029556103567553536,0.8991586660527887,0.1484325116046196,0.025909834512633383
0.014,-0.0466,0.504,0.029686779408643938,0.8997066797447169,0.1492152897508695,0.02597354239337663
0.015,-0.0439,-1.496,0.03023516166346562,0.8997066797447169,0.1525002247570938,0.02597354239337663
0.016,-0.0225,-0.496,0.030696582660337077,0.8997066797447169,0.15526424195842137,0.02597354239337663
0.017,-0.003,0.504,0.030981546113204965,0.8991586660527887,0.15697123815238948,0.025909834512633383
0.018000000000000002,9.714451465470111e-18,0.504,0.031144561540437467,0.9112946353494541,0.15794773780890148,0.027320669490013876
0.019,0.0028,1.504,0.031189967953700475,0.9112946353494541,0.15821973259925667,0.027320669490013876
0.02,0.0051,-0.496,0.03119173888135145,0.8794403452963657,0.1582303408605252,0.023617533342588957
0.021,0.007,-0.496,0.03119190688609001,0.8800006385079633,0.15823134724729657,0.023682668746378078
0.022,0.0133,-0.496,0.031192128665861407,0.890738637836594,0.15823267575880173,0.024930986426621643
0.023,0.0192,-1.496,0.03119219103259274,0.890738637836594,0.15823304934977256,0.024930986426621643
0.024,0.0484,1.504,0.03130776432025995,0.890738637836594,0.15892535975023567,0.024930986426621643
0.025,0.0604,0.504,0.03154453000638734,0.8800006385079633,0.16034364030872217,0.023682668746378078
0.026000000000000002,0.055399999999999984,0.504,0.032180801959861526,0.8463880489782964,0.1641550546917891,0.019775126148868588
0.027,0.0508,1.504,0.03273676170016985,0.8469702074410406,0.1674853805674577,0.01984280343953569
0.028,0.0203,1.504,0.03297034043108516,0.835669991762389,0.16888457053603656,0.018529126786137624
0.029,-0.0001,-0.496,0.0330686216617476,0.8586958322320652,0.16947329756397955,0.021205934902909035
0.03,-0.0401,-0.496,0.03308732563862163,0.8581216285896115,0.169585338659126,0.021139182378812287
0.031,-0.0556,0.504,0.033298295639349496,0.8452225291450902,0.17084909716801408,0.019639631726682646
0.032,-0.0508,1.504,0.03385465443691395,0.8558209614724092,0.1741818134878275,0.02087172441472943
0.033,-0.0377,-0.496,0.03419076984661171,0.8552448276699057,0.17619522159091539,0.020804747504986718
0.034,-0.0179,-1.496,0.034375852892464254,0.854668305494415,0.17730391132519085,0.020737725445970686
0.035,-0.0072,-1.496,0.034463218186922814,0.8651510311719165,0.17782724940109074,0.021956366963807046
0.036000000000000004,-0.004099999999999981,0.504,0.03447279161589464,0.854668305494415,0.17788459642806445,0.020737725445970686
0.037,-0.0014,0.504,0.03449009489810496,0.8540913941594673,0.1779882470421306,0.020670658146252397
0.038,0.0063,0.504,0.034491057050349425,0.8540913941594673,0.17799401055391706,0.020670658146252397
0.039,0.0129,-0.496,0.0344910899297353,0.854668305494415,0.17799420750895106,0.020737725445970686
0.04,0.0328,-0.496,0.03451084802574332,0.8651510311719165,0.1781125630185658,0.021956366963807046
0.041,0.0511,-0.496,0.034577607238529706,0.8777573197739195,0.17851246595696646,0.02342187766673423
0.042,0.0624,-0.496,0.03491993904436497,0.8777573197739195,0.1805631116933021,0.02342187766673423
0.043000000000000003,0.05529999999999987,-0.496,0.035313520894742115,0.8651510311719165,0.18292075690656456,0.021956366963807046
0.044,0.0367,0.504,0.03564741962630716,0.8771955936832233,0.18492088660114875,0.02335657568737943
0.045,0.0197,-1.496,0.03579144284305009,0.8771955936832233,0.1857836185772987,0.02335657568737943
0.046,-0.0141,-1.496,0.03579504244158745,0.8651510311719166,0.18580518099500967,0.02195636696380706
0.047,-0.0573,0.504,0.035899939929122306,0.8645811147014473,0.18643354091336672,0.021890112833537933
0.048,-0.0627,-0.496,0.03636105067396977,0.852358317293245,0.18919569963418112,0.020469183883951213
0.049,-0.0467,0.504,0.03675287648435824,0.8651510311719204,0.19154282576667386,0.021956366963807497
0.05,-0.0417,1.504,0.03699691446551619,0.8771955936832277,0.19300466903403982,0.023356575687379946
0.051000000000000004,-0.01969999999999997,-0.496,0.037079994901568346,0.8896312243037194,0.19350233982903822,0.024802246998528888
0.052000000000000005,-0.015499999999999924,-0.496,0.03709241273479277,0.8901851032765976,0.19357672548740282,0.02486663673197909
0.053,-0.0045,-0.496,0.03703645160453717,0.8901851032765987,0.19324150553061503,0.024866636731979218
0.054,-0.0012,0.504,0.03700159701564749,0.8783186866144543,0.19303271857924204,0.023487137882412742
0.055,-0.004,-0.496,0.03698222100294482,0.877757319773927,0.1929166518359286,0.02342187766673511
0.056,0.004,-0.496,0.03693559606441174,0.8771955936832307,0.19263735780078486,0.023356575687380293
0.057,0.0307,0.504,0.03687689128441488,0.8771955936832315,0.19228570275515053,0.023356575687380383
0.058,0.0486,0.504,0.03662838940797957,0.8896312243037237,0.1907971197351179,0.024802246998529377
0.059000000000000004,0.06449999999999986,0.504,0.036441438077865124,0.8890770002742804,0.18967723855122942,0.02473781715144183
0.06,0.0435,-0.496,0.03591195976598698,0.8783186866144589,0.18650554248259824,0.02348713788241327
0.061,0.0244,0.504,0.03561307247372109,0.8783186866144594,0.18471513930917852,0.023487137882413335
0.062,-0.0025,0.504,0.03539059893341932,0.910212231700856,0.18338247196979943,0.027194837519797364
0.063,-0.0278,-0.496,0.035362609269931414,0.909670546900591,0.1832148074901496,0.027131865387597
0.064,-0.0573,0.504,0.03549821856854801,0.9102122317008559,0.18402713817422697,0.02719483751979735
0.065,-0.053,0.504,0.03561982678134087,0.9222027501676173,0.1847555991551125,0.028588763496067083
0.066,-0.0419,0.504,0.03597406343237788,0.910212231700856,0.18687755763434427,0.027194837519797364
0.067,-0.0318,-1.496,0.0361236675761596,0.9096705469005911,0.1877737206386424,0.02713186538759701
0.068,-0.0168,0.504,0.03618647051862057,0.910212231700856,0.18814992461382576,0.027194837519797364
0.069,-0.0033,-0.496,0.036269474612502746,0.9107535943257565,0.18864713810178255,0.027257772198353784
0.07,-0.001,-0.496,0.03628117803997991,0.9008017069567248,0.1887172443064865,0.02610084188253311
0.07100000000000001,0.001199999999999975,1.504,0.036277946684750255,0.9008017069567248,0.1886978877503286,0.02610084188253311
0.07200000000000001,-0.0005999999999996183,0.504,0.0362730485591487,0.9002543598432133,0.18866854685880277,0.026037211493098754
0.073,0.0269,0.504,0.03625326300857566,0.9340393557530469,0.1885500268900705,0.02996479673784282
0.074,0.0386,0.504,0.03620251518559949,0.9227370780759455,0.18824603583507493,0.028650880372274663
0.075,0.0637,0.504,0.03598443052816908,0.9123757548814877,0.18693965890691097,0.02744635217865922
0.076,0.0601,-0.496,0.035790589116286645,0.9129158345296654,0.18577850455891767,0.027509137708153743
0.077,0.0392,0.504,0.03572373031002308,0.9129158345296642,0.18537800503283258,0.0275091377081536
0.078,0.0255,2.504,0.0355277342225045,0.9145341598066612,0.18420394368545706,0.027697271828284718
0.079,-0.0111,0.504,0.03552216736194311,0.935621144809069,0.18417059691872256,0.030148683436343852
0.08,-0.0374,0.504,0.03552586029380276,0.9350941790934225,0.18419271842435975,0.03008742243235312
0.081,-0.0611,1.504,0.03540882592425295,0.9446848776684924,0.18349165580957735,0.031202363701275066
0.082,-0.0478,0.504,0.03539325469957614,0.9446848776684923,0.18339838061589467,0.031202363701275052
0.083,-0.0356,0.504,0.03529705734864055,0.9345669162424735,0.18282213650366108,0.030026126885684536
0.084,-0.0245,1.504,0.03525559543594188,0.9340393557530289,0.18257377017296508,0.029964796737840728
0.085,-0.0081,-0.496,0.03525922350415975,0.922737078075928,0.1825955031305673,0.028650880372272623
0.08600000000000001,-0.010899999999999813,0.504,0.03526782751280861,0.9112946353494402,0.1826470431083036,0.027320669490012262
0.08700000000000001,0.002599999999999971,-0.496,0.03526572552614418,0.9118353553444285,0.18263445172790083,0.027383529461329763
0.088,0.0005,-0.496,0.03526551239258906,0.9118353553444285,0.18263317500920676,0.027383529461329763
0.089,0.0117,1.504,0.03526012318962095,0.9118353553444268,0.18260089245204897,0.027383529461329572
0.09,0.0215,-1.496,0.035263916575477915,0.9452064964519333,0.18262361570008281,0.03126300311181966
0.091,0.0488,-0.496,0.03517872991449571,0.9546956139294195,0.18211332813650216,0.03236613533920495
0.092,0.0526,0.504,0.03508898080722632,0.954179182552543,0.18157571047718812,0.03230609897687547
0.093,0.0487,-1.496,0.03517557165273218,0.9635799430964589,0.1820944094269075,0.03339895950289701
0.094,0.0321,-0.496,0.03512522610522138,0.9630682758238601,0.18179282809386543,0.033339476978896096
0.095,0.0051,-0.496,0.03508758347823123,0.96306827582386,0.1815673401572319,0.03333947697889609
0.096,-0.0274,0.504,0.035048331455251255,0.9515928216519283,0.18133221157088847,0.03200542843845221
0.097,-0.0577,-0.496,0.03508904659757071,0.939977282991783,0.18157610457638346,0.030655094746741964
0.098,-0.0535,-1.496,0.03489267444176175,0.940501512694183,0.18039979049402075,0.030716037682757054
0.099,-0.0424,-1.496,0.03490714410808706,0.940501512694183,0.1804864671014829,0.030716037682757054
0.1,-0.0259,-1.496,0.03488738306501777,0.940501512694183,0.1803680939382978,0.030716037682757054
0.101,-0.011,-0.496,0.03481664051073025,0.940501512694183,0.1799443298741518,0.030716037682757054
0.10200000000000001,-0.0028999999999999677,0.504,0.03482009106128832,0.939977282991783,0.17996499946041078,0.030655094746741964
0.10300000000000001,-0.0005999999999999694,-0.496,0.034806940021639074,0.939977282991783,0.17988622172803123,0.030655094746741964
0.10400000000000001,0.0016000000000000805,0.504,0.034804007394531024,0.9399772829917831,0.17986865462157814,0.030655094746741975
0.105,0.0074,0.504,0.03481028646529578,0.939977282991783,0.17990626769016366,0.030655094746741964
0.106,0.0057,-0.496,0.03480805831212108,0.9394527607608497,0.1798929205435366,0.030594117803596794
0.107,0.0303,-1.496,0.03481538924124086,0.9389279455111292,0.17993683448400782,0.03053310679632836
0.108,0.0626,0.504,0.03483452066985642,0.9505563068754077,0.18005143611275448,0.03188493115755609
0.109,0.0667,0.504,0.03497633359605248,0.9605058509458347,0.18090092794349943,0.03304158905940198
0.11,0.0544,0.504,0.03491350848439291,0.9610188825099195,0.18052459116975106,0.03310123018549727
0.111,0.0361,2.504,0.034942894584569326,0.9610188825099195,0.1807006206242368,0.03310123018549727
0.112,-0.0003,0.504,0.03500595629502911,0.9610188825099195,0.18107837467885893,0.03310123018549727
0.113,-0.0336,-0.496,0.03500504736258105,0.96153164034266,0.18107292996581315,0.03316083948967992
0.114,-0.0551,-1.496,0.03511629325646856,0.96153164034266,0.18173931828876974,0.03316083948967992
0.115,-0.0668,0.504,0.03527063130988889,0.962044124881743,0.18266383849345397,0.03322041702283201
0.116,-0.0398,0.504,0.035257213522960566,0.9733963755317475,0.18258346288392366,0.03454014286404831
0.117,-0.0215,-0.496,0.035225016325187014,0.9739026166602979,0.18239059431252347,0.03459899458604003
0.11800000000000001,-0.024499999999999793,-0.496,0.03513305340098492,0.9630682758238602,0.18183971538394758,0.03333947697889611
0.11900000000000001,-0.009599999999999886,-0.496,0.03512706824715074,0.9635799430964589,0.18180386294493325,0.03339895950289701
0.12,-0.0015,-0.496,0.03513015889363348,0.9635799430964589,0.18182237662354658,0.03339895950289701
0.121,-0.0036,0.5039999999996669,0.03513127045058319,0.9630682758238602,0.18182903510365492,0.03333947697889611
0.122,-0.0057,-2.495999999999778,0.03513110581871149,0.9646024634099993,0.18182804892112672,0.03351782989455343
0.123,0.0002,-0.495999999999889,0.03513206979668397,0.9646024634099993,0.18183382336944118,0.03351782989455343
0.124,0.0277,0.503999999999889,0.0350569872786197,0.9651133173136051,0.18138406193063425,0.033577217862495665
0.125,0.0475,-0.495999999999889,0.035074953982654596,0.9764298853143196,0.18149168659301484,0.03489279551179805
0.126,0.0509,0.503999999999778,0.03498095142291336,0.9769345544991065,0.18092858978152324,0.03495146449162968
0.127,0.0344,-1.495999999999556,0.035005266708100564,0.9764298853143197,0.18107424389559326,0.03489279551179806
0.128,0.0193,2.503999999999778,0.03495677449062137,1.0057055808018922,0.1807837644329078,0.0382961639755232
0.129,-0.0051,0.504000000000111,0.03494344123705645,0.9769345544991065,0.18070389519753927,0.03495146449162968
0.13,-0.0279,1.503999999999889,0.03493127620733631,0.9769345544991064,0.18063102388992844,0.03495146449162967
0.131,-0.0546,0.504,0.03509149382424395,0.9881157469918348,0.18159076402332291,0.03625130441969375
0.132,-0.0436,0.504,0.035007864306353456,0.9784470002471588,0.1810898041026532,0.03512728986746752
0.133,-0.0336,0.503999999999889,0.03491679169878308,0.9789506295682616,0.18054425837412974,0.03518583796069988
0.134,-0.0186,-0.496,0.03491883786091975,0.9794539999262487,0.1805565153528559,0.0352443559488609
0.135,-0.0106,-0.496,0.034906658138072186,0.9702070622554715,0.18048355603005453,0.034169377693669165
0.136,0.0015,-0.495999999999889,0.034913676656021006,0.9696988918272311,0.18052559855622888,0.034110301686050316
0.137,-0.0007,0.504,0.03489658785577638,0.9809625612070139,0.1804232327381442,0.03541972974623942
0.138,0.0012,0.5039999999996669,0.034908630634073366,0.9809625612070139,0.18049537173179714,0.03541972974623942
0.139,0.0139,-2.495999999999556,0.03491469344675704,0.9809625612070138,0.1805316893650642,0.03541972974623941
0.14,0.0218,1.503999999999889,0.03489552001391162,0.9717299790418573,0.18041683612138315,0.03434642035234361
0.14100000000000001,0.04450000000000062,0.504,0.03485581974894065,0.9717299790418573,0.18017902246309486,0.03434642035234361
0.14200000000000002,0.06709999999999959,1.504,0.034779398010597005,0.9717299790418573,0.17972123878881607,0.03434642035234361
0.14300000000000002,0.05199999999999947,0.504,0.034816487268642844,1.0036017938839012,0.17994341191903393,0.03805159379770702
0.14400000000000002,0.03289999999999938,0.504,0.03485526076425374,0.9930915153436529,0.1801756740170979,0.03682974919476555
0.145,0.0106,0.504,0.03488414794185447,0.9930915153436529,0.18034871481135645,0.03682974919476555
0.146,-0.022,0.504,0.034881263744489424,0.9925950609428402,0.18033143781012967,0.036772035202894016
0.147,-0.0437,-0.496,0.03479013471761759,0.9930915153436529,0.1797855541170992,0.03682974919476555
0.148,-0.0635,-0.496,0.034525764968721256,0.9930915153436529,0.1782019189153754,0.03682974919476555
0.149,-0.0452,0.504,0.03446889962381247,0.9824688061247139,0.1778612825062111,0.03559483426096299
0.15,-0.0353,1.504,0.03452175964818238,0.9717299790418574,0.178177926130172,0.034346420352343615
0.151,-0.0203,0.504,0.03448017395613754,0.9603580303667087,0.17792881833291008,0.03302440456936995
0.152,-0.0122,-0.496,0.03454003828625196,0.9603580303667087,0.17828741934869416,0.03302440456936995
0.153,-0.0002,-0.496,0.034564106214352415,0.9603580303667087,0.17843159173729592,0.03302440456936995
0.154,-0.0067,0.504,0.0345644563917268,0.9712226054459691,0.1784336893797805,0.03428743697836002
0.155,-0.0008,0.504,0.03456686730615956,0.9712226054459691,0.1784481313081025,0.03428743697836002
0.156,0.0082,0.504,0.03455974592494909,0.9717299790418573,0.17840547260748765,0.03434642035234361
0.157,0.0328,-1.496,0.03458213755043495,0.971222605445969,0.17853960356040968,0.03428743697836001
0.158,0.0579,1.504,0.034635657594007385,0.9603580303667087,0.17886020085020146,0.03302440456936995
0.159,0.061,-0.496,0.03463927657946,0.9608711408556594,0.17888187939996447,0.03308405487066655
0.16,0.0458,-0.496,0.03463543239183425,0.9608711408556594,0.17885885183772796,0.03308405487066655
0.161,0.0322,0.504,0.034571982477292706,0.9613839774869813,0.17847877235195533,0.03314367333536963
0.162,0.0001,-0.496,0.03456372596370676,0.9307151862130287,0.178429313949045,0.029578354209590128
0.163,-0.0394,-0.496,0.0345680487862034,0.9307151862130287,0.17845520864352143,0.029578354209590128
0.164,-0.0661,-0.496,0.034477784488276965,0.9307151862130287,0.1779145048744558,0.029578354209590128
0.165,-0.0521,-1.496,0.03447938472088168,0.9291250450446681,0.17792409063339515,0.02939349655838362
0.166,-0.0391,-0.496,0.03420681389082303,0.9408745692217007,0.1762913290816443,0.030759406381597333
0.167,-0.0191,-0.496,0.03429672272691305,0.9408745692217007,0.1768299035530904,0.030759406381597333
0.168,-0.0155,-0.496,0.034296096604369664,0.940350547492098,0.17682615293599277,0.030698487622909144
0.169,-0.0057,-0.496,0.03425418823417655,0.9702070622554714,0.17657511222289396,0.03416937769366915
0.17,0.003,0.504,0.034249603740677606,0.9702070622554714,0.17654765005932452,0.03416937769366915
0.171,0.0005,-1.496,0.03428862107839311,0.9696988918272311,0.17678137282731055,0.034110301686050316
0.17200000000000001,0.0027000000000003137,0.504,0.03431456223716704,0.9696988918272326,0.17693676629566085,0.03411030168605048
0.17300000000000001,0.014000000000000727,-0.496,0.03432913539746214,0.9467696285016995,0.1770240628556494,0.031444720889457795
0.17400000000000002,0.0402000000000005,-1.496,0.03437564294350231,0.9462488713936811,0.17730265368293757,0.03138418165070792
0.17500000000000002,0.05830000000000009,-0.496,0.03481826789472558,0.9467696285017007,0.17995407827612472,0.031444720889457926
0.176,0.0615,0.504,0.03515263908382704,0.9577883546445329,0.18195703809930389,0.03272567372218766
0.177,0.0346,2.504,0.03517168913943901,0.9583028410331025,0.1820711522851661,0.03278548397505139
0.178,0.0236,-0.496,0.035209777889570804,0.9583028410331097,0.18229931260135274,0.03278548397505223
0.179,-0.0062,0.504,0.035194167582972384,0.9377260463331348,0.1822058032980298,0.03039338318973805
0.18,-0.0502,-1.496,0.03524566878910142,0.9493691292908337,0.1825143072902515,0.03174691897082954
0.181,-0.0561,0.504,0.03540713236849609,0.9398262335821995,0.18348151102363325,0.030637534897574287
0.182,-0.0406,-0.496,0.03559342985320427,0.9398262335821995,0.18459747552414105,0.030637534897574287
0.183,-0.0358,-0.496,0.03573127967587028,0.9403505474921229,0.18542322745921166,0.030698487622912034
0.184,-0.0227,-0.496,0.03582956207157809,0.9504069388053226,0.18601196146604265,0.03186756676806
0.185,-0.0107,0.504,0.03583655446436697,0.9598446455809606,0.1860538474965396,0.03296472238042543
0.186,0.0002,-1.496,0.03589280825803111,0.9593309860579965,0.18639082057401518,0.03290500825263331
0.187,-0.0095,-0.496,0.035904612736827546,0.968681751212515,0.1864615320992108,0.03399205669703653
0.188,-0.0065,-0.496,0.03594072526255189,0.9784470002471839,0.18667785437964934,0.035127289867470435
0.189,0.0016,-0.496,0.03594376973869198,0.9789506295682882,0.18669609148736074,0.035185837960702966
0.19,0.0136,-1.496,0.03592042192767817,0.9462488713937123,0.1865562327646475,0.031384181650711544
0.191,0.043,-0.496,0.03597125089160195,0.9366741868401955,0.18686070987245912,0.03027110204946389
0.192,0.055,-2.496,0.035982489673618924,0.937200264154985,0.18692803274468972,0.030332259774765266
0.193,0.0514,-0.496,0.03586195189648704,0.9577883546445642,0.18620598391799723,0.0327256737221913
0.194,0.0351,-0.496,0.035790284496939134,0.9577883546445642,0.18577667981942364,0.0327256737221913
0.195,0.0024,0.504,0.03572429369816386,0.9876167913790639,0.1853813798565244,0.03619329965604863
0.196,-0.0108,-0.496,0.03571787430259222,0.9876167913790638,0.1853429262102828,0.036193299656048616
0.197,-0.0387,-0.496,0.0356532447944341,0.9881157469918741,0.1849557806892216,0.03625130441969832
0.198,-0.0497,-0.496,0.03552161912919517,0.9881157469918735,0.18416731287929675,0.03625130441969826
0.199,-0.0465,-0.496,0.03554145534689149,0.9876167913790627,0.18428613635567437,0.03619329965604849
0.2,-0.0196,0.504,0.03551413243969403,0.9881157469918724,0.18412246589855147,0.03625130441969813
0.201,-0.0231,-0.496,0.035413599176917665,0.9784470002471969,0.18352024868367933,0.03512728986747195
0.202,-0.0132,0.504,0.03540854810732717,0.9784470002471959,0.18348999162271357,0.03512728986747183
0.203,0.0017,-1.496,0.035400526038407355,0.989112903126917,0.1834419375969216,0.036367226165941915
0.20400000000000001,0.004399999999999942,0.504,0.03542266488545433,0.9981847171006413,0.18357455434923736,0.037421845879419276
0.20500000000000002,0.0023000000000003165,-0.496,0.03543046507504001,0.9986783928235947,0.18362127926712066,0.03747923684345358
0.20600000000000002,0.013700000000000616,0.504,0.03543665887391597,0.9986783928235943,0.18365838153760855,0.03747923684345353
0.20700000000000002,0.03590000000000075,-0.496,0.03545171951572155,0.999171824628852,0.18374859822322948,0.03753659945148195
0.20800000000000002,0.06280000000000009,-0.496,0.035439050237955905,0.9886144507808472,0.18367270635461044,0.0363092799082346
0.209,0.0665,0.504,0.035531232967650817,0.9789506295682874,0.18422490196831168,0.035185837960702876
0.21,0.0502,-0.496,0.03565232437020224,0.9896111044099957,0.18495026713776508,0.03642514323698595
0.211,0.0353,0.504,0.035792904736257784,0.9891129031269075,0.18579237565164072,0.036367226165940805
0.212,0.0055,0.504,0.03577548014588739,0.989112903126907,0.18568799837397804,0.03636722616594076
0.213,-0.0225,-0.496,0.0357828780132752,0.989112903126907,0.18573231328996945,0.03636722616594076
0.214,-0.0552,1.504,0.03570624596068026,0.9891129031269053,0.18527326978527076,0.03636722616594055
0.215,-0.0509,-1.496,0.03557005896517124,1.0175396437553808,0.18445747856480985,0.03967190163035493
0.216,-0.0469,0.504,0.03559385698338585,1.0066853137574638,0.1846000341315237,0.03841006023616986
0.217,-0.0214,0.504,0.03561294375128501,1.0061955665254803,0.18471436823237458,0.03835312596845153
0.218,-0.0177,2.504,0.03567899127863601,1.015114728696544,0.18511000801240432,0.039389999550796806
0.219,-0.0078,-0.496,0.03569124898254374,1.0253992955215496,0.18518343445957397,0.040585604635914464
0.22,-0.0164,0.504,0.03569659979210026,1.0341528463323137,0.18521548703142382,0.041603225508068185
0.221,-0.0138,0.504,0.03571331587403461,1.0341528463323135,0.18531562018166756,0.04160322550806816
0.222,-0.0115,1.504,0.03571388764263289,1.0239562035252259,0.18531904520621464,0.04041784179685135
0.223,0.0179,0.504,0.03571532665247705,1.0346293599239575,0.18532766520398047,0.04165862133396839
0.224,0.0619,-0.496,0.035721510959583855,1.0433054714405525,0.18536471061660234,0.04266723970601958
0.225,0.0678,-1.496,0.03569320356186335,1.0331991598420711,0.18519514283630018,0.04149235721028341
0.226,0.0522,-0.496,0.03569320356186334,1.032721986334623,0.18519514283630015,0.04143688466761869
0.227,0.0381,-1.496,0.03551743940213566,1.0331991598420711,0.1841422753591846,0.04149235721028341
0.228,0.0162,1.504,0.035555365893152564,1.0052153562379844,0.18436946370619844,0.03823917421684589
0.229,-0.0197,-1.496,0.035579528221141826,1.0047248924841197,0.18451420157170362,0.03818215665177345
0.23,-0.0438,-0.496,0.03557554501513773,1.0047248924841197,0.18449034125761649,0.03818215665177345
0.231,-0.0656,0.504,0.0353803344231218,0.9942264866406416,0.18332098520777965,0.0369616922777589
0.232,-0.0537,-0.496,0.035343057644182226,0.9947221268159395,0.18309768878456167,0.037019311613999094
0.233,-0.0428,1.504,0.03546622456151465,1.0037432460038582,0.18383548676178757,0.038068037939380545
0.234,-0.0199,1.504,0.0354484954470401,1.0032520625739723,0.18372928531516028,0.03801093671027779
0.23500000000000001,-0.02269999999999963,0.504,0.03546611149719924,1.0027606385471548,0.18383480948070421,0.03795380751121582
0.23600000000000002,-0.009300000000000188,1.504,0.035558918558174814,1.012197162305875,0.18439074498143002,0.039050825595081815
0.23700000000000002,-0.016099999999999687,1.504,0.035576308938859456,1.0017770672862467,0.18449491733525852,0.037839465038545204
0.23800000000000002,-0.004799999999999727,-0.496,0.035589083021323464,1.0012849193417432,0.18457143700796758,0.0377822516823494
0.23900000000000002,0.005000000000000666,0.504,0.03558510695104583,1.0012849193417432,0.1845476194385124,0.0377822516823494
0.24,0.029,-0.496,0.035591020127020485,1.000792529379476,0.18458304071370196,0.03772501019101927
0.241,0.0454,-0.496,0.035621736699655925,0.9902524344945268,0.18476704000221686,0.03649969936787131
0.242,0.0603,2.504,0.03555329975740628,0.999313903807744,0.18435708708098691,0.03755311649023166
0.243,0.0468,0.504,0.03551697993765707,0.9673008166155845,0.18413952306197479,0.03383151980186165
0.244,0.0247,2.504,0.03540280708919498,0.9673008166155845,0.18345560161233668,0.03383151980186165
0.245,-0.0081,0.504,0.03539016342758574,0.9673008166155845,0.18337986319034755,0.03383151980186165
0.246,0.0049,-0.496,0.035460668603695976,0.9673008166155844,0.1838022053049731,0.03383151980186164
0.247,-0.0312,-0.495999999999889,0.03544417126594114,0.9765752731593773,0.1837033824823455,0.03490969719077228
0.248,-0.0646,0.503999999999889,0.03536054850856457,0.9857624756844056,0.18320246305869892,0.03597773109475964
0.249,-0.043,-0.495999999999889,0.03517510737991962,0.9857624756844056,0.1820916283266786,0.03597773109475964
0.25,-0.0231,0.504,0.03507064222074581,1.0142831211989836,0.1814658581539869,0.03929332322306973
0.251,-0.0194,0.503999999999778,0.035256356313899014,1.0142831211989836,0.18257832800578128,0.03929332322306973
0.252,-0.0096,-1.495999999999667,0.03527804463626126,1.0231317824553627,0.18270824601229516,0.04032200090824825
0.253,-0.0125,1.503999999999778,0.03525506561608409,1.0231317824553627,0.18257059643095838,0.04032200090824825
0.254,-0.01,-0.495999999999889,0.035264492093948906,1.0128241907808362,0.18262706318722424,0.03912371913021394
0.255,0.0067,0.503999999999889,0.035281930883319615,1.0133107343111922,0.18273152552014316,0.039180280960082206
0.256,0.0132,-0.496,0.035291734520984,1.012824190780836,0.18279025154978565,0.03912371913021391
0.257,0.0314,-0.495999999999889,0.03526522989315155,1.0133107343111922,0.1826314827730278,0.039180280960082206
0.258,0.0633,0.503999999999778,0.035092026905185314,1.0133107343111922,0.18159395729996533,0.039180280960082206
0.259,0.0677,-1.495999999999778,0.03461690286221398,1.0221678133219727,0.17874785572149093,0.04020993722901041
0.26,0.0557,0.504,0.03408274696054644,1.0226499114706131,0.17554813982123893,0.04026598227279765
0.261,0.0302,0.503999999999889,0.0338752146805121,1.0221678133219716,0.17430497404478978,0.04020993722901028
0.262,0.0073,-0.496,0.033777669299643064,1.0328594503950048,0.17372065492524355,0.041452865187985743
0.263,-0.0317,-0.49599999999966693,0.0338124268898622,1.0328594503950048,0.17392886083241677,0.041452865187985743
0.264,-0.0583,2.503999999999778,0.033738232534586056,1.042969053764155,0.173484419691647,0.042628130359805165
0.265,-0.0537,0.504,0.033314012108483115,1.0342901202218653,0.17094324240917994,0.041619183920628904
0.266,-0.0408,0.504000000000111,0.03296394180241316,1.0240948442156743,0.16884624128826883,0.040433959103231366
0.267,-0.0289,1.503999999999667,0.03262947757815482,1.0240948442156743,0.16684272416324236,0.040433959103231366
0.268,-0.0181,-1.496,0.03256945402731807,1.0347665705984115,0.1664831693789512,0.04167457239762531
0.269,-0.0084,1.504,0.032529665569389146,1.0371455393652127,0.16624482742469357,0.041951133112657864
0.27,-0.0113,0.504,0.03254284691000023,1.036670182355856,0.166323786666758,0.041895871742169084
0.271,0.0021,-0.496,0.03251873505225616,1.0371455393652116,0.16617935112955348,0.04195113311265773
0.272,0.0042,-1.496,0.03250329500908213,1.0376206786030182,0.16608686174304615,0.042006369166691565
0.273,0.0155,1.504,0.032484560803350805,1.0288966315152617,0.16597463957013747,0.04099217817173714
0.274,0.0376,-0.496,0.03243606711262581,1.0288966315152606,0.16568415128237304,0.04099217817173702
0.275,0.0583,0.504,0.031843992812288266,1.0288966315152606,0.16213749094031482,0.04099217817173702
0.276,0.0503,-0.496,0.031160098861725362,1.0274584516296255,0.15804080991353797,0.04082498637709589
0.277,0.0383,-0.496,0.030759117305690482,1.0269786107732308,0.1556388387726272,0.040769203748841895
0.278,0.027,0.504,0.030542992285451716,1.016225103659051,0.15434420051899864,0.03951908325205031
0.279,-0.0032,0.504,0.03050083239404077,1.0073157732239248,0.15409165313633494,0.03848335263213432
0.28,-0.0337,-0.496,0.030444199001684078,0.9963500696576727,0.15375240617595648,0.03720856379865355
0.281,-0.0537,-0.496,0.030132478078606167,0.9958552397147977,0.15188512662161693,0.03715103865383838
0.28200000000000003,-0.0501999999999991,1.504,0.029470671781716473,0.9958552397147966,0.14792075568714985,0.037151038653838245
0.28300000000000003,-0.03399999999999952,0.504,0.029017873780567794,0.9958552397147966,0.14520839220046966,0.037151038653838245
0.28400000000000003,-0.02530000000000014,0.504,0.02870565318608418,0.986762009881957,0.14333811950024003,0.036093929296363604
0.28500000000000003,-0.027799999999999072,1.504,0.028649110084660295,0.977079867250222,0.14299941340317965,0.0349683574407565
0.28600000000000003,-0.011099999999998635,-0.496,0.028563010971281787,0.9775842008876492,0.14248366004125895,0.03502698741241829
0.28700000000000003,0.013499999999999462,0.504,0.028548506571784402,0.9683194077906359,0.1423967753741599,0.03394993342192646
0.28800000000000003,0.003800000000000161,-0.496,0.028505920897586683,0.9683194077906359,0.14214167745531636,0.03394993342192646
0.289,0.0067,0.504,0.028507788432715158,0.9775842008876492,0.14215286441744893,0.03502698741241829
0.29,0.0201,-0.496,0.028513638625176963,0.9775842008876492,0.14218790840700543,0.03502698741241829
0.291,0.0369,1.504,0.028392350412960152,0.9775842008876492,0.14146136430268733,0.03502698741241829
0.292,0.0526,0.504,0.02804773338640914,0.977079867250222,0.13939702957211433,0.0349683574407565
0.293,0.0428,-0.496,0.027524902708472753,0.9469195703250491,0.1362651543497119,0.03146215197912049
0.294,0.0338,-0.496,0.02713015328193508,0.9469195703250491,0.13390051508846845,0.03146215197912049
0.295,0.0225,0.504,0.027066081273313544,0.9163045788289349,0.13351670911701446,0.02790308720406437
0.296,-0.0004,1.504,0.02708172563467923,0.9168423441477297,0.1336104224161745,0.02796560368732429
0.297,-0.0301,1.504,0.027077685023270893,0.9266219716494098,0.13358621823059938,0.029102508388369773
0.298,-0.0341,-0.496,0.026910247004179422,0.9260898852184971,0.1325832262383343,0.02904065208918422
0.299,-0.0378,2.504,0.026128822450163847,0.9362994567255595,0.1279023146121118,0.03022753879218442
0.3,-0.0411,0.504,0.02580815751939304,0.9357728729906349,0.12598145840807576,0.030166322194351124
0.301,-0.0262,1.504,0.02572972863863024,0.9357728729906348,0.1255116514920943,0.03016632219435111
0.302,0.0036,0.504,0.02566103167831242,0.9458779345062008,0.1251001410032245,0.031341059365007876
0.303,-0.0083,-0.496,0.02564312886901819,0.9347188155516583,0.12499289908493977,0.030043785537680032
0.304,-0.0119,-0.496,0.025625727604141592,0.9347188155516618,0.12488866153231457,0.030043785537680445
0.305,-0.0086,0.504,0.0256568297609435,0.9647496336501022,0.12507497055808872,0.03353493878114428
0.306,0.0002,-0.496,0.02565430679580483,0.9652604096654124,0.12505985742043585,0.03359431769438894
0.307,0.0083,-0.496,0.02570172408031361,0.974554284167165,0.12534389778901714,0.034674752466587994
0.308,0.0251,1.504,0.025531599540759106,0.9740483817291339,0.12432481292533554,0.03461594011816581
0.309,0.0274,-0.49599999999977795,0.024793258609352234,1.0033935639968408,0.11990198204271457,0.038027386583530755
0.31,0.0333,0.504,0.02394378750057597,0.9928810812130812,0.11481345600552058,0.03680528573209621
0.311,0.0242,-1.495999999999556,0.023352213094125232,1.002410613766347,0.11126979014206505,0.03791311630710663
0.312,0.0163,0.504,0.023248545543554645,1.0029022093060012,0.11064879782715217,0.0379702654449393
0.313,0.0025,-1.495999999999778,0.02330505055322676,1.0024106137663478,0.11098727574591585,0.037913116307106705
0.314,-0.0143,-0.496,0.023092269918713337,1.0128241907808393,0.10971267112694065,0.0391237191302143
0.315,-0.0165,-0.49599999999977795,0.022344656769516132,0.9842612711821841,0.10523429754114687,0.035803212540191684
0.316,-0.0028,0.504,0.021693707923543595,0.984261271182184,0.10133496521849217,0.03580321254019167
0.317,-0.0082,-1.496000000000222,0.0213078708925204,1.015739956124334,0.09902371324277337,0.0394626837099588
0.318,-0.0074,-2.496,0.021110810299995782,1.0063366540611078,0.09784327526718296,0.03836952772633918
0.319,-0.0121,0.503999999999778,0.02105844892271286,1.0048661865087358,0.09752961865320899,0.03819858241449173
0.32,-0.0106,-0.496,0.02104160581252483,0.9958552397148261,0.09742872457470103,0.03715103865384168
0.321,-0.0095,-0.496,0.02101129645902258,0.9963500696577012,0.0972471646218394,0.03720856379865687
0.322,-0.0033,-0.496,0.02101676347954845,1.006826332664347,0.09727991332394872,0.03842645401580452
0.323,0.0022,0.503999999999778,0.02102212728906285,0.9963500696577011,0.09731204376851664,0.037208563798656856
0.324,0.0048,-0.496,0.020965090146806902,0.9872613974960077,0.09697037825398883,0.03615198428117367
0.325,0.0169,1.503999999999778,0.020643006816319875,0.9978330871569665,0.09504102551156252,0.03738096807135107
0.326,0.0155,0.504,0.01980354012403903,0.9983269367620181,0.09001242821508487,0.0374383792495883
0.327,0.0112,0.503999999999778,0.019154725375318538,0.9978330871569665,0.0861258796225897,0.03738096807135107
0.328,0.0021,-0.496,0.018768652738531573,0.9978330871569665,0.0838132163145124,0.03738096807135107
0.329,-0.0066,0.504,0.018576323119190916,0.9983269367620181,0.0826611179492738,0.0374383792495883
0.33,0.0057,0.504,0.018573599485429408,0.9988205421916725,0.0826448027607194,0.03749576204186124
0.331,-0.019,0.503999999999778,0.018278375544402304,1.0092711619497996,0.080876343898259,0.038710671171049676
0.332,-0.0154,-0.496,0.017515851056031196,1.0087826701049472,0.07630864798372217,0.03865388284503831
0.333,-0.0056,-0.496,0.016789790008663194,0.9998070219712055,0.07195937641232432,0.03761044263666352
0.334,-0.0085,0.504,0.016443616152850237,1.0092711619497996,0.0698857159187524,0.038710671171049676
0.335,0.0049,-0.496,0.016264400013623406,1.0092711619497994,0.06881217029569424,0.03871067117104965
0.336,-0.002,-0.496,0.01602920164211735,1.0002998970420633,0.06740327830990521,0.037667740523008385
0.337,-0.0041,1.504,0.016007780839180537,1.0308110834198607,0.0672749628058752,0.0412147377088862
0.338,-0.0058,1.504,0.01600241990000836,1.0308110834198607,0.06724284955531305,0.0412147377088862
0.339,-0.0076,0.504,0.01599912031189727,1.0303328039336586,0.06722308426860485,0.041159136593589794
0.34,-0.0122,-0.496,0.015988850781555618,1.0308110834198607,0.06716156743537371,0.0412147377088862
0.341,0.0107,0.504,0.01586548702653016,1.0308110834198607,0.06642259035539112,0.0412147377088862
0.342,0.027,0.504,0.015436902766141673,1.0308110834198605,0.0638552727084613,0.04121473770888617
0.343,-0.0055,0.504,0.014546190189012095,1.0308110834198605,0.05851970085256927,0.04121473770888617
0.34400000000000003,0.016199999999999784,-0.496,0.013942420697487707,1.0409405806964482,0.054902983643068025,0.04239231559424035
0.34500000000000003,0.012299999999999395,-0.496,0.013533869014535875,1.0495645224862522,0.052455665712226686,0.043394869112836666
0.34600000000000003,0.001399999999999456,1.504,0.013347542944084724,1.0500340421630276,0.05133952997658692,0.0434494518796821
0.34700000000000003,-0.008399999999999843,0.504,0.013354324005758755,1.0409405806964482,0.051380150085418914,0.04239231559424035
0.34800000000000003,-0.005600000000000444,1.504,0.013026479078142339,1.0409405806964482,0.04941628405972044,0.04239231559424035
0.34900000000000003,-0.013599999999999878,0.504,0.012687674349093177,1.0404669575249503,0.04738676631923518,0.04233725578648106
0.35000000000000003,-0.01139999999999964,0.504,0.01211493297895196,1.012684007091809,0.04395591464643349,0.039107422446619654
0.35100000000000003,-0.004899999999999678,1.504,0.011408991513155107,1.0131706179410036,0.039727163965769315,0.03916399210246124
0.352,0.0009,-0.496,0.011107372209538783,1.014629050233262,0.037920395420123314,0.03933353828701073
0.353,-0.0082,1.504,0.011101849411365845,1.014629050233262,0.03788731259716345,0.03933353828701073
0.354,-0.0161,2.504,0.011085660168543876,1.014629050233262,0.037790335333580324,0.03933353828701073
0.355,-0.0056,-0.496,0.011021347813366117,1.014629050233262,0.03740508963133775,0.03933353828701073
0.356,-0.0204,1.504,0.011000935745983487,1.045193531407245,0.03728281668376322,0.042886731118306966
0.357,-0.0106,0.504,0.011003937796775644,1.0447218363067345,0.037300799653946726,0.042831895453335246
0.358,0.017,2.504,0.010973297945064485,1.0447218363067345,0.037117259941298233,0.042831895453335246
0.359,0.021,-0.496,0.01069316416841751,1.0360575857233902,0.035439194611425945,0.041824655942674135
0.36,0.0174,1.504,0.01035347645430156,1.046136283556982,0.03340438758863739,0.042996328273287844
0.361,0.0207,-0.496,0.0098963367853141,1.0551849700099893,0.0306660165195754,0.04404825935808051
0.362,0.0178,0.504,0.009636534563059362,1.0537826684932239,0.029109741846068765,0.04388523850821481
0.363,0.0044,-1.496,0.009518799789617794,1.0537826684932239,0.02840448365193948,0.04388523850821481
0.364,0.0022,-0.496,0.009616222399573902,1.043305471440576,0.028988067345665336,0.04266723970602231
0.365,-0.0044,0.504,0.009509496008824345,1.043305471440576,0.028348751879166165,0.04266723970602231
0.366,-0.0027,-2.496,0.00944427717670528,1.070293837326717,0.027958076172924277,0.04580470072324591
0.367,-0.0008,0.504,0.009441209055996299,1.0707542673550179,0.027939697428842687,0.04585822679707519
0.368,0.0104,1.504,0.009413505483485777,1.0693723825406554,0.027773746699516336,0.0456975794368887
0.369,-0.0002,-0.496,0.009387579958286355,1.0399931186607985,0.027618446879849448,0.04228217090394337
0.37,0.0009,-0.496,0.009371677535892225,1.0399931186607994,0.02752318773616467,0.042282170903943476
0.371,-0.0052,-1.496,0.009316022671131307,1.039519063809021,0.027189802379668653,0.04222706091233617
0.372,-0.0063,-0.496,0.00928742499577272,1.0395190638090208,0.027018495769988868,0.04222706091233615
0.373,0.0002,-0.496,0.009295346802044573,1.0395190638090208,0.0270659491996105,0.04222706091233615
0.374,0.0085,-1.496,0.009293044970715937,1.0395190638090217,0.027052160704006612,0.04222706091233625
0.375,0.0009,-0.496,0.009299648834822963,1.0395190638090217,0.027091719358924383,0.04222706091233625
0.376,0.0002,0.504,0.009225250484155713,1.0308110834198747,0.02664605623915099,0.04121473770888783
0.377,0.001,-0.496,0.009106015876314206,1.0308110834198747,0.025931813694268953,0.04121473770888783
0.378,0.0031,-0.496,0.009061796903048086,1.0308110834198756,0.02566693194081323,0.04121473770888793
0.379,-0.0005,-0.496,0.009059421246528384,1.0303328039336737,0.02565270121544654,0.04115913659359155
0.38,-0.007,-1.496,0.009138806627093104,1.0308110834198756,0.026128237783792065,0.04121473770888793
0.381,-0.0125,0.504,0.009121736116045024,1.0312891410951102,0.02602598152217359,0.04127031303813761
0.382,-0.0056,-0.496,0.008921236054166904,1.0317669772676987,0.024824940339271465,0.041325862617183656
0.383,0.0027,1.504,0.008788690512728766,1.0317669772676987,0.024030962260730853,0.041325862617183656
0.384,-0.0074,0.504,0.008775394152755025,1.0317669772676987,0.02395131402640331,0.041325862617183656
0.385,-0.0038,-0.496,0.008734287848924419,1.0595147425596434,0.02370507787408005,0.044551605601617264
0.386,-0.0074,-2.496,0.008818862518346163,1.0595147425596434,0.024211699468379578,0.044551605601617264
0.387,-0.0128,0.504,0.008818638704867827,1.088367169378071,0.024210358774505215,0.047905768086927224
0.388,-0.0019,0.504,0.008809147417830428,1.1061452402558187,0.024153503796487345,0.049972510644653356
0.389,-0.0034,-0.496,0.008795257233006627,1.097516785921762,0.024070298415624927,0.0489694325321731
0.39,0.0032,-0.496,0.008810071965149211,1.097516785921762,0.024159042046176644,0.0489694325321731
0.391,0.0043,1.504,0.008732600635660715,1.0970675879546359,0.023694971081119162,0.048917212211875824
0.392,0.0097,0.504,0.008672201114496842,1.0970675879546359,0.023333164148663064,0.048917212211875824
0.393,0.0105,-1.496,0.008248261655685166,1.097067587954634,0.02079366992446889,0.048917212211875616
0.394,0.0043,1.504,0.008230381666012863,1.1070360871351317,0.02068656470093358,0.05007607368985407
0.395,0.0021,-0.496,0.008071910198823003,1.1151490001522604,0.019737284403326276,0.05101921891156748
0.396,0.0043,0.504,0.00797880321004232,1.1151490001522604,0.01917955226651735,0.05101921891156748
0.397,-0.0065,1.504,0.007979593387046112,1.1065907533410984,0.01918428560731758,0.05002430258876827
0.398,-0.0171,0.504,0.007954208497276832,1.1151490001522613,0.019032224317407007,0.05101921891156758
0.399,0.0032,-0.496,0.007975783383505249,1.1065907533410975,0.01916146281556023,0.050024302588768166
0.4,-0.0055,-0.496,0.00798803812923322,1.107036087135126,0.019234871542557208,0.050076073689853395
0.401,-0.0029,-1.496,0.007908519910026224,1.107036087135125,0.018758539240392152,0.05007607368985329
0.402,-0.0007,0.504,0.007965053391510239,1.0988632780734426,0.019097187711814623,0.04912596541207098
0.403,0.0058,-0.496,0.007964815640495218,1.1070360871351133,0.019095763528910927,0.050076073689851924
0.404,0.0,-0.496,0.007983569927479641,1.1267085291135195,0.019208105993114004,0.052363041344034265
0.405,-0.0054,-2.496,0.007825916671570468,1.1011037726279227,0.018263726968031083,0.04938642817419741
0.406,0.0026,0.504,0.00782450488717138,1.100656038576999,0.018255270056901973,0.04933437803760214
0.40700000000000003,0.0011000000000002,-0.496,0.007556384013325639,1.1006560385769961,0.01664916475963683,0.04933437803760181
0.40800000000000003,0.004700000000000067,-0.496,0.007486856846476145,1.1006560385769961,0.016232681143948418,0.04933437803760181
0.40900000000000003,0.005900000000000421,-1.496,0.007291903708413607,1.0744306044479104,0.015064867302118062,0.04628560963173012
0.41000000000000003,0.01349999999999974,1.504,0.007006713123780285,1.0744306044479106,0.013356510536977674,0.046285609631730146
0.41100000000000003,0.008799999999999862,1.504,0.006901540176899066,1.0660078468065626,0.012726500554196189,0.04530644424362408
0.41200000000000003,0.006300000000000422,0.504,0.006585871933380582,1.0655453658168346,0.010835575648494461,0.04525267974070456
0.41300000000000003,0.013899999999999172,0.504,0.006635173738388992,1.0655453658168346,0.01113090472546255,0.04525267974070456
0.41400000000000003,-0.0010000000000006217,-0.496,0.006626745150860698,1.0551849700099352,0.0110804155603204,0.044048259358074215
0.41500000000000004,-0.012199999999999241,2.504,0.00668987761563784,1.0551849700099352,0.011458593449470164,0.044048259358074215
0.41600000000000004,0.0014999999999997004,-0.496,0.0067186295364564524,1.0551849700099352,0.011630824024699045,0.044048259358074215
0.417,-0.0039,1.504,0.006731524681660664,1.0341528463322718,0.011708068890883551,0.04160322550806331
0.418,-0.0025,-0.496,0.006731077322712152,1.0433054714405112,0.011705389108564937,0.04266723970601478
0.419,-0.0108,0.504,0.006666345140570508,1.034152846332272,0.011317628546882437,0.04160322550806333
0.42,0.003,0.504,0.006669378735847157,1.0341528463322718,0.011335800475735642,0.04160322550806331
0.421,-0.0061,-0.496,0.006702138249341921,1.0336761130730008,0.011532037446789382,0.04154780414528473
0.422,0.0051,-0.496,0.006704153450661515,1.0234747206933228,0.01154410896314703,0.04036186828508219
0.423,0.0007,0.504,0.006831576962602082,1.0533148197842557,0.012307404914664848,0.04383084999530748
0.424,-0.0059,-0.496,0.006963205073795731,1.0533148197842557,0.013095887376417365,0.04383084999530748
0.425,-0.0121,-0.496,0.006935517838141426,1.042832922331413,0.012930034508592562,0.04261230476053589
0.426,0.0046,0.504,0.0069527951036086185,1.0423601589944058,0.013033529276422835,0.042557344910558674
0.427,0.0067,0.504,0.006953011556927859,1.042832922331413,0.013034825881262497,0.04261230476053589
0.428,0.0001,0.504,0.0069690404877321924,1.042832922331413,0.013130842839230297,0.04261230476053589
0.429,-0.0137,-0.496,0.00697092069081688,1.042832922331413,0.013142105685315111,0.04261230476053589
0.43,-0.001,-0.496,0.007095045391742899,1.042832922331413,0.013885641005110574,0.04261230476053589
0.431,0.0004,-0.496,0.007088457980224391,1.0327219863345811,0.01384618090495728,0.04143688466761381
0.432,0.0018,-0.496,0.0069891233824839,1.0331991598420291,0.013251143967532953,0.04149235721027853
0.433,0.0029,-0.496,0.006970335559293575,1.0331991598420291,0.013138600613793835,0.04149235721027853
0.434,-0.0008,2.503999999999334,0.006972434313542364,1.0331991598420291,0.013151172631288368,0.04149235721027853
0.435,-0.0131,-0.496,0.006947887376527841,1.0331991598420291,0.013004130869842586,0.04149235721027853
0.436,-0.0019,-2.4959999999988898,0.006943944045924601,1.0331991598420291,0.01298050941851771,0.04149235721027853
0.437,-0.0005,2.504,0.006930832922219029,1.0027606385471115,0.01290197079176113,0.03795380751121078
0.438,0.0031,0.504,0.006816215880158824,1.0136569951903232,0.012215388520976537,0.03922053460176789
0.439,0.0092,0.504,0.006813836192042184,1.014143139175978,0.012201133645423006,0.03927704998362483
0.44,0.0037,0.504,0.006830102774038875,1.0244374600614423,0.012298574188333944,0.040473789001214636
0.441,0.003,0.504,0.006822817174589595,1.0239562035251837,0.012254931782946388,0.040417841796846446
0.442,-0.0032,0.5039999999995559,0.006818514502199946,1.0146290502332067,0.012229157792214928,0.039333538287004303
0.443,-0.001,-1.496,0.0067508048536067174,1.0146290502332067,0.011823561526166232,0.039333538287004303
0.444,-0.0018,1.503999999999556,0.006687173004204145,1.0037432460038151,0.011442392209005761,0.038068037939375535
0.445,-0.0011,-0.496,0.006682782998646067,1.0037432460038151,0.011416095072640655,0.038068037939375535
0.446,0.0018,0.504000000000222,0.006682621980735318,1.003252062573929,0.011415130538564293,0.03801093671027276
0.447,-0.0055,1.504,0.006713504136973097,1.0126840070917535,0.011600121710691398,0.0391074224466132
0.448,-0.0081,0.503999999999778,0.00671750905017228,1.0032520625739292,0.011624112055836982,0.03801093671027279
0.449,-0.0143,-0.496,0.006512744163362079,1.0032520625739292,0.010397523597121993,0.03801093671027279
0.45,-0.002,0.503999999999778,0.006507418972555665,1.0027606385471117,0.010365624487438913,0.03795380751121081
0.451,0.0107,-0.496,0.0064986843395479135,1.0027606385471115,0.010313302039946485,0.03795380751121078
0.452,-0.0006,1.5039999999991118,0.006565300016895796,0.9922414501420402,0.010712345168274108,0.036730927115525565
0.453,0.0099,-2.496,0.006594834234232041,0.9927380813786741,0.010889261878390509,0.03678866166497728
0.454,0.0033,-0.49599999999977795,0.006574938129171546,1.0032520625739292,0.010770079663017788,0.03801093671027279
0.455,-0.0054,0.504,0.006598541567236763,1.0027606385471117,0.010911469650177185,0.03795380751121081
0.456,0.0022,1.503999999999778,0.006662312032949931,0.9708612103185061,0.01129346931071056,0.03424542394470645
0.457,0.0029,0.504,0.0066814840266930615,0.9806047556797196,0.011408313933840097,0.035378134012049034
0.458,0.0003,-0.496,0.006682719785833244,0.9801019763383045,0.011415716413448353,0.035319684730954724
0.459,0.0057,-0.496,0.006669571126310336,1.0087826701048914,0.011336952938569378,0.03865388284503184
0.46,0.0125,-0.49599999999977795,0.00667912448633303,0.9983269367619618,0.011394179747952213,0.03743837924958175
0.461,-0.0013,0.504,0.006548079108922782,0.9887580469983313,0.01060918799471109,0.03632597330628907
0.462,-0.0195,0.504,0.006497002483950507,0.9795989389453311,0.010303227340630895,0.03526120545075976
0.463,-0.0028,0.504,0.006523865444707315,0.979598938945331,0.010464142613481144,0.035261205450759746
0.464,-0.0094,-0.496,0.006465822100369589,0.979598938945331,0.010116449718576432,0.035261205450759746
0.465,-0.0076,0.504,0.006465035599875145,1.0082939415986403,0.010111738400907243,0.03859706700657618
0.466,0.005,1.504,0.006364185026733886,0.979598938945331,0.00950762042444714,0.035261205450759746
0.467,0.0003,1.504,0.006458164603562328,0.9795989389453311,0.010070579563039762,0.03526120545075976
0.468,0.0046,0.504,0.006450988247922929,0.9795989389453311,0.01002759155303451,0.03526120545075976
0.46900000000000003,-0.001999999999999517,-0.496,0.0064526769186773435,0.9790956431030557,0.010037707076697773,0.03520269612522551
0.47000000000000003,0.0066999999999999334,0.504,0.006365135781270648,0.979598938945331,0.009513315661360218,0.035261205450759746
0.47100000000000003,0.0055000000000005045,-0.496,0.006359887276633165,0.9801019763383046,0.009481875919351053,0.03531968473095474
0.47200000000000003,0.01459999999999994,-2.496,0.0063308125818985735,0.9892564269911954,0.009307711854614858,0.036383911152766034
0.47300000000000003,0.013499999999999573,-0.496,0.006340580835510922,0.9887580469983313,0.009366225925700754,0.03632597330628907
0.47400000000000003,0.005799999999999955,0.504,0.0063454521219680066,0.9887580469983313,0.009395406044618766,0.03632597330628907
0.47500000000000003,0.0049999999999997555,0.504,0.006326756211194133,0.9882594156720805,0.009283413267255257,0.036268006241714716
0.47600000000000003,0.0005999999999997002,-0.496,0.006212341964684291,0.9877605326318166,0.008598045788154091,0.03621000991479424
0.47700000000000004,-0.004799999999999539,-0.496,0.0061956469086441165,0.9988205421916162,0.008498038587820668,0.037495762041854695
0.47800000000000004,0.003499999999999073,-0.496,0.006205351489423726,0.9993139038077007,0.008556171244089854,0.03755311649022663
0.47900000000000004,-0.013199999999999617,-0.496,0.006514302855745612,0.9993139038077007,0.010406860520644923,0.03755311649022663
0.48,-0.0063,-0.496,0.006542924371628342,1.0298543023273974,0.010578309940511649,0.04110350965631405
0.481,-0.0041,-0.496,0.006627821688959849,1.038570304959364,0.011086864269512468,0.04211676546436044
0.482,-0.0023,-0.496,0.006730606890236016,1.0380956003682678,0.011702571110543781,0.042061579939029085
0.483,0.0032,1.504,0.006728396119570128,1.0380956003682678,0.011689328089116201,0.042061579939029085
0.484,0.0046,0.504,0.006733412154091516,1.0481547015318808,0.011719375282012865,0.043230974110661805
0.485,-0.003,-0.496,0.006739048994364488,1.0200979776581673,0.01175314124320941,0.0399693139643546
0.486,0.0061,-0.496,0.006618377846545994,1.03033280393362,0.011030293495630249,0.041159136593585305
0.487,-0.0026,-1.496,0.006615581805116665,0.9993139038077453,0.01101354456860116,0.03755311649023182
0.488,0.0007,-0.496,0.006615770373976599,0.9703533824652605,0.011014674139158255,0.03418638776223655
0.489,-0.0058,-1.496,0.006608618838768316,0.9703533824652605,0.010971834809206611,0.03418638776223655
0.49,0.0004,0.504,0.00660651874036102,0.9708612103185522,0.010959254739895497,0.034245423944711806
0.491,-0.0035,0.504,0.006599871402096398,0.9713687726814344,0.01091943566484032,0.034304429263302454
0.492,-0.0013,0.504,0.006645492548372364,0.9713687726814344,0.011192716755007487,0.034304429263302454
0.493,-0.0049,0.504,0.006649567689303102,0.9713687726814364,0.011217127780311415,0.03430442926330269
0.494,-0.0035,1.504,0.00666034745783303,0.9599925452115635,0.011281701056874621,0.0329819160603776
0.495,-0.002,0.504,0.006709680800263633,0.9500376254134468,0.011577219050207635,0.031824633217542815
0.496,-0.0077,1.504,0.006710953844604643,0.9495186606179937,0.01158484487668814,0.0317643023393446
0.497,-0.0069,0.504,0.006723519816358879,0.9495186606179927,0.011660117918694464,0.03176430233934449
0.498,-0.0047,0.504,0.006723953082503147,0.9399772829918024,0.011662713281895597,0.030655094746744223
0.499,0.0018,0.504,0.006832002647297509,0.9515928216519485,0.012309954863255137,0.03200542843845455
0.5,0.0044,-0.496,0.0067697370714608525,0.9515928216519486,0.011936969836934302,0.03200542843845457
0.501,0.0098,-0.496,0.006839856632778447,0.9630682758238813,0.012357002030842825,0.033339476978898566
0.502,0.0063,-0.496,0.006764451716385449,0.9625563365637105,0.011905309352382034,0.03327996283570263
0.503,0.0027,-1.496,0.006777044084216276,0.9640913388145718,0.011980740512918378,0.033458410458050175
0.504,0.0056,0.504,0.006707606119081901,0.9313970710166579,0.01156479123588523,0.02965762492196484
0.505,0.0107,0.504,0.006735823777410053,0.9308677140490906,0.011733821456722632,0.02959608592931353
0.506,0.0057,1.504,0.006725407742498155,0.9308677140490906,0.011671427027640907,0.02959608592931353
0.507,0.0017,0.504,0.006731931123042305,0.9205979056561111,0.011710503567627357,0.02840219654663419
0.508,0.0021,2.504,0.006725788202086566,0.9205979056561111,0.011673706067506687,0.02840219654663419
0.509,0.0069,-0.496,0.006726670207933301,0.9205979056561111,0.011678989484058117,0.02840219654663419
0.51,0.0029,0.504,0.006702678582826254,0.9205979056561099,0.011535274167821317,0.028402196546634048
0.511,-0.0032,-0.496,0.006618766855674609,0.9200623354202616,0.011032623749195336,0.028339935246930015
0.512,-0.0086,0.504,0.006706999008317743,0.9205979056561099,0.011561154503689205,0.028402196546634048
0.513,-0.0108,0.504,0.006419429402208947,0.9205979056561099,0.00983854685632819,0.028402196546634048
0.514,0.0002,2.504,0.0064203402457300145,0.9211331644978621,0.009844003017137993,0.028464421646041946
0.515,0.0045,-0.496,0.0063822093388971185,0.9205979056561086,0.009615590172679366,0.028402196546633895
0.516,0.0111,-0.496,0.0063480383305857,0.930867714049088,0.009410898025161464,0.02959608592931322
0.517,0.0025,1.504,0.006381102593647311,0.920597905656105,0.009608960515752833,0.028402196546633483
0.518,-0.0029,0.504,0.006415873256134887,0.920597905656105,0.009817244728800878,0.028402196546633483
0.519,-0.0022,-0.496,0.006492979975860166,0.930867714049088,0.01027913159806702,0.02959608592931322
0.52,0.0015,-0.496,0.006504563651395494,0.9303380558805194,0.01034852046127725,0.029534511921337023
0.521,0.0008,1.504,0.0064933441631435315,0.9405015126942181,0.010281313163107517,0.03071603768276113
0.522,0.0062,0.504,0.006487431270681473,0.939977282991818,0.010245893586223192,0.03065509474674604
0.523,0.0026,0.504,0.006366795915267639,0.9058696837969488,0.009523260243326155,0.02669000611127806
0.524,0.0034,0.504,0.00623308226496408,0.9058696837969502,0.008722284925780519,0.026690006111278225
0.525,0.0019,0.504,0.0062066285177383275,0.917916929629937,0.008563820935482473,0.028090526777307705
0.526,0.0005,-1.496,0.006194032482723578,0.9298080959962158,0.008488367807676518,0.029472902838196917
0.527,-0.0075,-0.496,0.006357233475437411,0.9298080959962158,0.009465979043821543,0.029472902838196917
0.528,-0.0198,0.504,0.006531010343391994,0.9394527607608825,0.010506942189140025,0.030594117803600603
0.529,-0.015,-2.496,0.006633483831529684,0.9489994120242541,0.01112078179724854,0.03170393846892802
0.53,-0.0106,1.504,0.006594832069333528,0.9489994120242514,0.010889248910153759,0.03170393846892772
0.531,-0.0117,0.504,0.006565092874881765,0.9584509785813309,0.01071110434028019,0.03280270531348717
0.532,-0.0004,-0.496,0.006575814469518355,0.9584509785813309,0.01077532914193015,0.03280270531348717
0.533,0.0039,-1.496,0.006574678165972632,0.9584509785813309,0.010768522424057313,0.03280270531348717
0.534,0.0029,0.504,0.006567585989354761,0.9484798791661005,0.010726038665625078,0.03164354155210467
0.535,-0.0033,-1.496,0.0065535189816239925,0.9489994120242503,0.010641774075147666,0.031703938468927585
0.536,0.0,0.504,0.006562150844043018,0.9489994120242503,0.010693480903331571,0.031703938468927585
0.537,-0.0007,-0.496,0.006538089520784961,0.9489994120242504,0.010549348079244892,0.0317039384689276
0.538,0.0001,0.504,0.006592848464399858,0.9373517367261378,0.010877366663367255,0.030349868817460754
0.539,-0.009,-0.496,0.006673660341689801,0.9373517367261378,0.011361448273037051,0.030349868817460754
0.54,0.0022,-0.496,0.0066482128619549255,0.9260898852185325,0.011209012054931385,0.029040652089188337
0.541,-0.0083,0.504,0.006657188703381329,0.9260898852185324,0.01126277939596524,0.029040652089188324
0.542,0.004,0.504,0.006653433801312281,0.926621971649446,0.011240286674614195,0.02910250838837398
0.543,-0.0039,0.504,0.006663097561261751,0.9266219716494459,0.011298174804783699,0.029102508388373968
0.544,-0.0083,0.504,0.006724599220606304,0.9266219716494459,0.011666583796769582,0.029102508388373968
0.545,-0.0017,0.504,0.00671537186765188,0.9266219716494459,0.011611309844215026,0.029102508388373968
0.546,0.0045,0.504,0.006722642858230282,0.9266219716494459,0.011654864739128037,0.029102508388373968
0.547,0.0056,-0.496,0.006682352014001258,0.9163045788289714,0.011413513376142586,0.027903087204068616
0.548,0.0146,-1.496,0.00664689629064985,0.9163045788289714,0.01120112549199065,0.027903087204068616
0.549,0.011,-0.496,0.006631840616504736,0.9282164008795594,0.011110938563790956,0.029287864536845766
0.55,0.01,-1.496,0.006685995194312272,0.9282164008795593,0.011435336858635702,0.029287864536845752
0.551,0.0034,0.504,0.006785479415526567,0.927685228955582,0.01203127007485558,0.029226114551242587
0.552,0.0042,-1.496,0.006771794887879709,0.9271537527200862,0.011949296627473656,0.029164329188709565
0.553,0.002,-0.496,0.006892126316579066,0.938402836751025,0.012670109379906772,0.03047206166778741
0.554,0.007,0.504,0.0069531882571469755,0.938402836751025,0.013035884355949231,0.03047206166778741
0.555,-0.0039,0.504,0.006965813792541111,0.9500376254134544,0.01311151419776825,0.031824633217543696
0.556,0.0037,0.504,0.006900762088438798,0.9500376254134544,0.01272183962653378,0.031824633217543696
0.557,0.0001,0.504,0.006878561467570224,0.9500376254134543,0.012588852834911927,0.03182463321754368
0.558,-0.0011,-0.496,0.006876683647596175,0.9505563068754355,0.012577604264204355,0.03188493115755932
0.559,-0.0,-0.49599999999977795,0.006873571174329742,0.9200623354202494,0.012558959838169511,0.028339935246928592
0.56,-0.0066,0.504,0.006848161927142085,0.9200623354202494,0.012406752641757435,0.028339935246928592
0.561,-0.0109,-0.49599999999977795,0.006842141811143766,0.920597905656099,0.012370690771391413,0.028402196546632785
0.562,-0.0019,0.504,0.00686753721731657,0.9319261272964868,0.012522815056961983,0.029719128958959274
0.5630000000000001,-0.0030000000000003665,-0.49599999999977795,0.006942233100712591,0.9319261272964867,0.012970260465763954,0.02971912895895926
0.5640000000000001,-0.0062999999999997225,0.504,0.006940681012273338,0.9324548834004033,0.012960963101376198,0.0297805980997978
0.5650000000000001,-0.0037999999999986677,1.503999999999778,0.006940681012273338,0.9013487216918633,0.012960963101376198,0.02616443363219978
0.5660000000000001,0.008199999999999834,0.504,0.006941333114296832,0.9008017069567108,0.01296486934149569,0.02610084188253148
0.5670000000000001,0.006700000000000477,1.504,0.006853087184905916,0.900254359843201,0.012436256061134762,0.02603721149309732
0.5680000000000001,0.010999999999999267,1.504,0.006848623163590409,0.8901851032765915,0.0124095155534708,0.024866636731978378
0.5690000000000001,0.0044000000000001226,0.504000000000222,0.0068430757943668125,0.8907386378365924,0.012376285544303254,0.02493098642662145
0.5700000000000001,0.005499999999998867,1.504,0.00684176774726627,0.8901851032765916,0.012368450043295369,0.024866636731978392
0.5710000000000001,-0.004699999999998635,0.504,0.006840670920968547,0.8901851032765916,0.012361879803158206,0.024866636731978392
0.5720000000000001,0.007599999999998756,0.504,0.006840286266047217,0.8800006385079617,0.01235957563228965,0.023682668746377897
0.5730000000000001,-0.0035999999999995224,-0.49600000000022204,0.006857726191895523,0.8805605752098219,0.01246404477296905,0.02374776270507145
0.5740000000000001,0.0006999999999995892,-1.496,0.006873941971610515,0.8811201560816121,0.0125611809986048,0.02381281529768238
0.5750000000000001,-0.0030000000000012547,-1.495999999999778,0.006866339525614668,0.8811201560816121,0.012515640610007055,0.02381281529768238
0.5760000000000001,-0.014300000000000156,-0.496,0.00686469546272486,0.881120156081612,0.012505792297645231,0.023812815297682366
0.577,-0.0157,1.504,0.006976049931743926,0.8691299825767445,0.013172831010448199,0.022418929424044234
0.578,-0.0121,1.504,0.007071786606760145,0.8691299825767445,0.013746315568664904,0.022418929424044234
0.579,-0.0111,-0.4959999999995559,0.006816722407714554,0.8691299825767445,0.012218422736771824,0.022418929424044234
0.58,-0.0009,1.504,0.0067212821572931215,0.8327156302934322,0.011646713829607936,0.01818567531602104
0.581,0.0056,-0.496,0.006665909043486811,0.8212192909171218,0.011315016225707282,0.016849198821441244
0.582,0.002,-0.496,0.006563663000971058,0.8212192909171218,0.010702539068843218,0.016849198821441244
0.583,0.0009,0.503999999999778,0.006564324569466672,0.8212192909171218,0.010706502015293703,0.016849198821441244
0.584,0.0016,-0.496,0.006561054954524554,0.8077310926883747,0.010686916274716216,0.015281164049946996
0.585,-0.0045,-0.496,0.006558187069700455,0.8077310926883747,0.010669736989336955,0.015281164049946996
0.586,-0.0023,-0.496,0.006556517709868441,0.7946343280126551,0.010659737142511226,0.013758634349735609
0.587,0.0089,0.503999999999778,0.006556976772555727,0.7952543732011512,0.010662487032899284,0.01383071606138984
0.588,0.0104,-0.496,0.0065739509671468325,0.7946343280126551,0.01076416633693314,0.013758634349735609
0.589,-0.0001,-0.496,0.00661409181691651,0.7946343280126551,0.01100461919883488,0.013758634349735609
0.59,0.0035,0.504,0.006562551083943544,0.7940137986311646,0.010695878431786522,0.01368649634950685
0.591,-0.0027,-0.496,0.006559401030302933,0.7940137986311646,0.010677008890723618,0.01368649634950685
0.592,-0.0038,0.504,0.006518193876713976,0.7940137986311646,0.010430168625304671,0.01368649634950685
0.593,-0.0103,0.504,0.006506859990757953,0.7940137986311646,0.010362276058748886,0.01368649634950685
0.594,-0.0001,1.504,0.0064999201373829195,0.7946343280126551,0.010320704751345576,0.013758634349735609
0.595,-0.0037,0.504,0.006458948741161078,0.794634328012655,0.010075276726423842,0.013758634349735597
0.596,0.0024,0.504,0.006510080992876179,0.794634328012655,0.010381570597403722,0.013758634349735597
0.597,-0.0008,0.504,0.006679955399842554,0.794634328012655,0.011399157109729658,0.013758634349735597
0.598,-0.0015,-1.496,0.006673379782776448,0.8058983245901803,0.01135976766104117,0.015068100447431922
0.599,0.0087,0.504,0.006520720980404975,0.792149293945526,0.010445306553831588,0.013469743294049506
0.6,0.0124,0.504,0.006464859355269671,0.7921492939455261,0.01011068265545033,0.013469743294049518
0.601,0.0088,0.504,0.00645587264019398,0.7787905373455455,0.010056850178772723,0.011916756416376401
0.602,0.0143,-1.496,0.006550144707224212,0.7794231866568992,0.010621561400505141,0.011990303386960681
0.603,0.0096,-1.496,0.0066080468073548655,0.7651986005080846,0.010968408210336603,0.01033666178760166
0.604,0.007,-1.496,0.006689982730241409,0.8016055699040738,0.011459223109963175,0.014569057617607269
0.605,0.0049,0.504,0.006659299090132543,0.8016055699040737,0.011275421094807208,0.014569057617607257
0.606,0.0013,1.504,0.006807806358822982,0.8016055699040737,0.012165013566683607,0.014569057617607257
0.607,0.0005,-0.496,0.006911414218191194,0.813379177789672,0.012785648317655387,0.015937767228592255
0.608,0.0002,-0.496,0.006943580546271064,0.813379177789672,0.012978331972536998,0.015937767228592255
0.609,-0.0035,-0.496,0.00694366747915698,0.8127729597017674,0.012978852720386928,0.01586729294990638
0.61,0.0002,-0.496,0.006943742549417854,0.8121662891199937,0.012979302408402364,0.01579676606774383
0.611,-0.0067,-1.496,0.00691448335659988,0.8121662891199936,0.012804033157990745,0.01579676606774382
0.612,-0.0133,0.504,0.006972201978186629,0.8121662891199951,0.013149780889421215,0.015796766067744
0.613,-0.0107,-0.496,0.006997281141703488,0.8127729597017704,0.013300010809224402,0.015867292949906728
0.614,0.0002,-0.496,0.007071008002673995,0.8237889768281158,0.013741651552285645,0.01714793085309762
0.615,0.0046,0.504,0.007044322087325401,0.8352499479222264,0.013581796821883695,0.018480295701677196
0.616,0.001,0.504,0.007187463858508863,0.8237889768281197,0.014439248737730963,0.01714793085309807
0.617,-0.0001,-0.496,0.007149263578213666,0.8352499479222303,0.014210420330382013,0.01848029570167765
0.618,0.001,-0.496,0.007119996154189089,0.8611536952610821,0.014035101773162102,0.021491667261501944
0.619,0.0018,0.504,0.007034892955897377,0.8835156388103068,0.013525314170167918,0.02409129579962976
0.62,-0.0008,-0.496,0.007064198719175863,0.8840733492543561,0.013700862388278884,0.02415613095061612
0.621,0.0003,-0.496,0.0071024675751166725,0.8857443736090628,0.013930101579413899,0.02435039146249156
0.622,0.0079,-0.496,0.00708674573776177,0.9205979056561052,0.013835924181375964,0.028402196546633507
0.623,0.0054,-0.496,0.007074028752285186,0.9205979056561052,0.013759746532667653,0.028402196546633507
0.624,0.001,0.504,0.007065167537026275,0.9319261272964917,0.01370666582856801,0.029719128958959843
0.625,-0.0011,0.504,0.007075731609462964,0.9200623354202544,0.01376994703624832,0.028339935246929175
0.626,-0.0124,-0.496,0.007118103389635612,0.9184537508991312,0.014023763681009063,0.028152933512580927
0.627,-0.0138,-0.496,0.006999335683099798,0.9184537508991312,0.013312317981630392,0.028152933512580927
0.628,-0.0062,0.504,0.006912167679701397,0.9184537508991312,0.012790161724259898,0.028152933512580927
0.629,-0.0098,-0.496,0.006885906030751668,0.9085862084687109,0.012632848446527766,0.02700580849427289
0.63,-0.0062,0.504,0.006807365762098527,0.9085862084687135,0.012162374291632189,0.027005808494273198
0.631,0.0015,0.504,0.006808227828993442,0.8986103181571068,0.012167538269306364,0.025846087779917638
0.632,-0.001,-0.496,0.006795022968120681,0.8986103181571068,0.012088438135500326,0.025846087779917638
0.633,0.0033,0.504,0.0067921528131180695,0.9102122317008537,0.012071245251233065,0.027194837519797104
0.634,-0.0021,0.504,0.006838264881634578,0.9205979056561114,0.012347467077791887,0.02840219654663423
0.635,0.003,-0.496,0.0070922596734228505,0.9303380558805178,0.013868953915864802,0.02953451192133683
0.636,0.0008,-0.496,0.007096720281719131,0.9303380558805178,0.013895673978763755,0.02953451192133683
0.637,0.0048,0.504,0.007092988689332985,0.9303380558805152,0.01387332088773933,0.02953451192133653
0.638,0.0073,0.504,0.007078972995638594,0.9405015126942149,0.013789363680064563,0.03071603768276076
0.639,0.0037,0.504,0.007002517565437748,0.9405015126942137,0.013331378183862895,0.030716037682760617
0.64,0.0008,-0.496,0.007011367028703664,0.9399772829918136,0.013384388490839288,0.030655094746745524
0.641,-0.0039,0.504,0.007038885119390016,0.9405015126942123,0.013549228141658124,0.03071603768276046
0.642,-0.001,0.504,0.007035487268732233,0.9399772829918123,0.013528874239843223,0.03065509474674537
0.643,-0.0025,-0.496,0.007071903849735443,0.9399772829918123,0.01374701788087578,0.03065509474674537
0.644,-0.004,0.504,0.007006585179496457,0.9399772829918123,0.013355744121483559,0.03065509474674537
0.645,-0.0083,0.504,0.007008579077714482,0.9415490964675989,0.013367688027395262,0.030837821760579122
0.646,-0.0156,0.504,0.006998875649177113,0.9415490964675989,0.013309562273320374,0.030837821760579122
0.647,-0.0047,1.504,0.0070097942281988936,0.9420724515122942,0.013374967056446582,0.03089866301557864
0.648,-0.0033,0.504,0.007011314239088347,0.9425955159758698,0.013384072268981641,0.030959470489839463
0.649,-0.0069,-0.496,0.007011009168073016,0.9313970710166444,0.013382244823894145,0.029657624921963267
0.65,0.0094,-0.496,0.006957117432394053,0.9319261272964807,0.013059421013456344,0.029719128958958563
0.651,0.0116,-0.496,0.006880595617060039,0.9319261272964807,0.012601037855138667,0.029719128958958563
0.652,0.0097,0.504,0.006921883107331736,0.9319261272964807,0.01284835935564335,0.029719128958958563
0.653,-0.0106,2.504,0.006795163476722226,0.9200623354202421,0.012089279814128384,0.028339935246927742
0.654,0.0028,0.504,0.006744281072084615,0.9085862084686944,0.011784482584230222,0.027005808494270978
0.655,0.0147,0.504,0.0067268884663733534,0.8964135722648635,0.011680296901983892,0.025590710902683337
0.656,0.0125,1.504,0.006720655426581703,0.8964135722648634,0.01164295956944486,0.025590710902683323
0.657,0.0067,0.504,0.006724961693776264,0.8857443736090473,0.011668755093879121,0.024350391462489764
0.658,0.0012,0.504,0.0067748906408941715,0.8857443736090475,0.011967840895378784,0.024350391462489778
0.659,-0.0003,0.504,0.006798168783205788,0.8851877159905992,0.012107282286647295,0.02428567870495603
0.66,-0.0018,0.504,0.0067962128250196865,0.8953131780900969,0.01209556565019573,0.025462787491481807
0.661,-0.0141,-0.496,0.0067968177390922415,0.8953131780900956,0.012099189223707129,0.025462787491481655
0.662,-0.0062,-0.496,0.006790250275575538,0.8829575760946405,0.012059848616642567,0.0240264196962393
0.663,-0.0106,1.504,0.006692112006840011,0.8829575760946393,0.01147197796330714,0.024026419696239157
0.664,-0.0015,1.504,0.00662625460080638,0.8829575760946393,0.01107747705340927,0.024026419696239157
0.665,0.0148,0.504,0.0066333680909677105,0.9146893858926055,0.01112008848483676,0.027715317225903865
0.666,0.0035,1.504,0.006682263032601103,0.915228100259178,0.011412980357224298,0.027777944038200324
0.667,0.0017,-2.496,0.006692784281031937,0.9255574929006798,0.01147600503932468,0.02897876022992649
0.668,-0.0001,2.504,0.006709089426183627,0.9250247941677887,0.011573676584345357,0.028916832749195674
0.669,0.0078,-0.496,0.006794381862961098,0.9250247941677887,0.012084597769108326,0.028916832749195674
0.67,0.0092,-1.496,0.006845991103257255,0.9250247941677887,0.012393748910675833,0.028916832749195674
0.671,0.0001,-2.496,0.0068548306852882854,0.9244917884901561,0.012446700026797496,0.028854869585416654
0.672,0.0063,0.504,0.00686039473802509,0.9244917884901562,0.012480029974021175,0.02885486958541667
0.673,0.0008,-1.496,0.006817093340448858,0.9548443111143468,0.012220644708604712,0.032383421736723365
0.674,-0.0039,0.504,0.006812958805333996,0.9867620098819653,0.012195877898566902,0.03609392929636457
0.675,-0.0083,1.504,0.00683461746299978,0.9872613974959863,0.01232561820677089,0.03615198428117118
0.676,-0.0061,-0.496,0.006922037229373567,0.987760532631852,0.012849282581889257,0.036210009914798356
0.677,-0.0112,1.504,0.006810732576534542,0.9968446539688598,0.012182542279387235,0.03726606038820723
0.678,-0.0105,-0.496,0.006748400948494563,0.9963500696576799,0.011809161585276232,0.03720856379865439
0.679,-0.004,-0.496,0.006862381049605207,0.9968446539688597,0.012491928434238337,0.03726606038820721
0.68,-0.0014,-0.496,0.006821078419323014,0.9968446539688597,0.012244516241611441,0.03726606038820721
0.681,-0.0036,-0.496,0.0067945658669006015,0.9973389930137735,0.012085699994749005,0.037323528464979695
0.682,0.0001,-1.496,0.006793590035585039,0.9973389930137736,0.012079854542201122,0.03732352846497971
0.683,0.008,1.504,0.006825548129144062,0.9973389930137736,0.012271290824723358,0.03732352846497971
0.684,0.0189,1.503999999999556,0.006857467413910771,1.008293941598675,0.012462494633712216,0.038597067006580214
0.685,0.0052,-0.496,0.0068553660716200605,1.008782670104926,0.012449907113255233,0.03865388284503586
0.686,-0.0003,-0.4959999999995559,0.006861914072018703,1.0082939415986747,0.012489131131795485,0.03859706700658019
0.687,0.0077,1.504,0.006884096471423761,1.0078049760867227,0.012622008772687454,0.038540223615654325
0.6880000000000001,9.999999999960033e-05,-0.49599999999977795,0.006876541834323035,1.0082939415986747,0.012576754770295335,0.03859706700658019
0.6890000000000001,-0.0035000000000004,0.504,0.0068425933408313155,1.0082939415986747,0.012373395537389836,0.03859706700658019
0.6900000000000001,-0.00709999999999939,-0.49599999999977795,0.006842313343770204,1.036670182355858,0.01237171829101726,0.04189587174216931
0.6910000000000001,-0.0016000000000007217,0.504,0.006848117243648659,1.0467429817415352,0.012406484977422088,0.04306685836433843
0.6920000000000001,-0.008099999999999523,0.504,0.006838252095847987,1.0557864684611789,0.012347390488008782,0.04411818496789657
0.6930000000000001,-0.0037999999999993894,0.504,0.0068379819175962715,1.0661410191267344,0.012345772058547987,0.04532192583909656
0.6940000000000001,0.0016999999999997557,-1.495999999999556,0.006847627282850147,1.0656785959308555,0.012403550000287875,0.04526816805484793
0.6950000000000001,-0.0004999999999994338,0.504,0.006867811491135957,1.0656785959308557,0.012524458019808928,0.04526816805484796
0.6960000000000001,0.004599999999999678,-0.496,0.006818572149613345,1.0661410191267344,0.012229503113393046,0.04532192583909656
0.6970000000000001,0.0016999999999999665,-0.496,0.006641413574673744,1.0661410191267344,0.011168282770548193,0.04532192583909656
0.6980000000000001,0.0013999999999998445,-0.496,0.006657625475296788,1.057652248304449,0.011265395759536839,0.04433508626342806
0.6990000000000001,7.660538869913574e-16,-0.496,0.006665052410895705,1.057652248304449,0.011309884800754608,0.04433508626342806
0.7000000000000001,0.006900000000000522,0.504,0.0066567820510558704,1.0675270868614473,0.011260343455619765,0.04548305947361298
0.7010000000000001,0.011599999999999323,0.504,0.0066084328889431205,1.075937951512086,0.010970720927266019,0.04646084227357398
0.7020000000000001,0.005499999999999922,0.503999999999778,0.00650750173484025,1.104361390661086,0.010366120252433926,0.0497651339332335
0.7030000000000001,0.004799999999998912,-0.496,0.006469698922197685,1.104361390661086,0.010139672767141611,0.0497651339332335
0.704,-0.005,0.504,0.006386106855711086,1.0879141935560068,0.009638937188938514,0.04785310858210701
0.705,-0.0039,0.504,0.006391235065899324,1.0883671693780772,0.009669656339710625,0.047905768086927945
0.706,-0.0027,0.503999999999778,0.0062206295628564,1.088819956751106,0.008647690394838039,0.04795840568410454
0.707,-0.0082,-0.496,0.006095367162406687,1.0800531010366632,0.007897339994942727,0.046939238085601916
0.708,-0.0056,0.504000000000222,0.006083393047512264,1.0805093724250359,0.007825612310760038,0.04699228070775744
0.709,-0.0031,1.504,0.006082260565447476,1.0809654512230151,0.007818828484431169,0.04704530094082672
0.71,-0.0009,-0.49599999999977795,0.00608588110095487,1.0814213376742707,0.007840516319376491,0.04709829881313693
0.711,-0.006,0.504,0.006083148328456035,1.0814213376742707,0.007824146387697377,0.04709829881313693
0.712,-0.0067,0.503999999999778,0.005952771017614992,1.0814213376742707,0.007043156505852297,0.04709829881313693
0.713,-0.0052,-0.496,0.005948721942246538,1.0814213376742707,0.007018901619222169,0.04709829881313693
0.714,0.0031,2.503999999999334,0.005875472718750457,1.0827878453766948,0.006580122033768109,0.047257158547890005
0.715,0.0093,-0.496,0.005875472718750458,1.0744306044479417,0.006580122033768114,0.04628560963173376
0.716,0.0039,1.504,0.005687036016149789,1.0748892624888395,0.005451343129294468,0.04633892970785931
0.717,0.0047,0.504,0.005722846603751026,1.0660078468065952,0.005665856731385794,0.045306444243627876
0.718,0.0108,-0.496,0.005803328777497852,1.036533223671277,0.006147963341498367,0.04187994997292786
0.719,0.0086,0.504,0.005897116989424345,1.0081531279786984,0.006709776160603354,0.03858069709203132
0.72,0.0036,0.504,0.005846012489920646,1.0081531279786984,0.006403648531710876,0.03858069709203132
0.721,0.0028,-0.496,0.005776277158270093,0.9971966324523813,0.005985917961300554,0.037306978714852466
0.722,0.0017,2.504,0.005801237777644018,0.9651133173136062,0.006135437774601417,0.033577217862495796
0.723,-0.0048,-2.496,0.005787325238660002,0.9656239009549762,0.006052098487211613,0.03363657441181741
0.724,-0.0055,-0.496,0.005789231885453367,0.9546956139294207,0.006063519737153527,0.0323661353392051
0.725,-0.011,-0.496,0.005793607760846202,0.9646024634100006,0.0060897322306002295,0.033517829894553576
0.726,-0.0012,1.504,0.0057610162387459075,0.9646024634100006,0.005894501566383711,0.033517829894553576
0.727,-0.0103,0.504,0.005736352088013699,0.9646024634100006,0.005746757667986836,0.033517829894553576
0.728,-0.0139,-0.496,0.005630275911831141,0.9661342147625959,0.005111337135311496,0.03369589959233084
0.729,-0.0063,-0.496,0.0055310951232158566,0.9976907970978793,0.004517221549690995,0.03736442651728263
0.73,-0.0016,-0.496,0.005560974606757277,0.9976907970978794,0.004696206483266261,0.037364426517282646
0.731,-0.0009,0.504,0.005567656652901087,0.9976907970978794,0.0047362334664481755,0.037364426517282646
0.732,0.0067,-0.496,0.005597022379159483,0.9976907970978794,0.004912140876509743,0.037364426517282646
0.733,0.0074,-1.496,0.005597313816494711,0.9866181231535015,0.004913886652738262,0.036077202125725356
0.734,0.0013,-0.496,0.005573412299460959,0.9769345544991075,0.0047707111044492925,0.0349514644916298
0.735,-0.0042,0.504,0.005271511982059725,0.9671540345848818,0.0029622592220228485,0.033814456045526735
0.736,0.0056,0.504,0.0052668373934922985,0.9764298853143274,0.0029342573684073858,0.034892795511798955
0.737,-0.0035,-0.496,0.005337724251465011,0.9759249551556324,0.003358885844599655,0.03483409619313663
0.738,-0.0025,0.504,0.005288264957002775,0.966134214762605,0.0030626133698183813,0.03369589959233189
0.739,-0.0036,2.504,0.005315517679311661,0.9769345544991179,0.0032258634034221865,0.034951464491631015
0.74,-0.0029,-1.496,0.0053687436801335585,0.9866181231535116,0.003544699309952432,0.036077202125726536
0.741,0.0014,1.504,0.00536111216446613,0.9866181231535128,0.003498984787379787,0.036077202125726675
0.742,-0.0008,-1.496,0.0053821500347830615,0.9866181231535128,0.0036250064375204635,0.036077202125726675
0.743,-0.0044,0.504,0.005360333835587945,0.9866181231535128,0.0034943224195591207,0.036077202125726675
0.744,-0.0066,0.504,0.005399355213113075,0.9976907970978907,0.0037280693869278427,0.03736442651728395
0.745,0.0014,-0.496,0.00541099781050166,0.9871175835605432,0.0037978112055021447,0.03613526557289186
0.746,0.0024,0.504,0.00553209937184997,0.9981847171006328,0.004523237228470068,0.0374218458794183
0.747,-0.0066,-0.496,0.0055539888500325246,1.007174822845769,0.004654360204309682,0.038466966819125405
0.748,0.0046,0.504,0.005600876324433038,1.0160853891753103,0.004935226889286157,0.03950284111467425
0.749,0.0061,-1.496,0.005620378344397112,1.026360229614814,0.005052048444886825,0.040697315484598574
0.75,0.0049,1.504,0.005620621877217638,1.0258798750806752,0.005053507262126582,0.040641473140098534
0.751,0.0013,-2.496,0.005579255631895135,1.0258798750806752,0.0048057140008728304,0.040641473140098534
0.752,0.0067,0.504,0.005484253737465434,1.0365332236712945,0.004236630946259358,0.0418799499729299
0.753,-0.0023,-1.496,0.005493970464283775,1.0370086434614902,0.004294836360075797,0.04193521864183889
0.754,0.0038,-0.496,0.005473239391331984,1.0456650137280943,0.004170652496252426,0.04294154204714259
0.755,0.0005,-0.496,0.00546120966842572,1.0561188032668674,0.004098591707372937,0.04415681967078719
0.756,0.0012,0.504,0.005463855340478802,1.0565854103920194,0.004114439887480416,0.04421106384665539
0.757,0.0055,-0.496,0.005498972784473314,1.0655453658168865,0.0043248014009911,0.0452526797407106
0.758,0.0001,-0.496,0.005442095052918689,1.0739717505293043,0.003984090792987984,0.04623226678436024
0.759,-0.0021,-0.496,0.005414463993845276,1.0744306044479597,0.0038185744357185115,0.04628560963173585
0.76,0.0,0.504,0.005410666064659914,1.0655453658168854,0.0037958239721094895,0.04525267974071047
0.761,-0.0065,-0.496,0.005414865871859894,1.0650826840083405,0.003820981776851168,0.04519889189213111
0.762,-0.0058,-0.496,0.0054218684485351,1.0650826840083394,0.003862928811154157,0.04519889189213098
0.763,-0.0051,-1.496,0.005483904665713886,1.0655453658168865,0.004234539926708195,0.0452526797407106
0.764,-0.0015,-0.496,0.005486843620346046,1.0655453658168852,0.004252144936476475,0.04525267974071044
0.765,0.0007,-0.496,0.005503563180629283,1.0379588297677018,0.0043522989228248115,0.0420456800349968
0.766,0.0073,0.504,0.00546698229790676,1.0480192436840885,0.004133171076952273,0.04321522681722735
0.767,0.0098,-0.496,0.005551063615494095,1.04942924661478,0.004636837381037751,0.04337914297457749
0.768,0.0105,0.504,0.005649130601199164,1.04942924661478,0.005224281032733274,0.04337914297457749
0.769,0.0007,-0.496,0.005546006470169438,1.048959456228425,0.004606543925036097,0.04332452873710666
0.77,0.0018,0.504,0.005526088391813123,1.0494292466147803,0.004487230084600736,0.04337914297457752
0.771,0.0054,0.504,0.0055147530175471745,1.049898826787561,0.0044193286027284315,0.04343373277422587
0.772,-0.0048,-0.496,0.005523176537908304,1.0494292466147783,0.004469787414381474,0.04337914297457729
0.773,0.0017,-0.496,0.005520880753997008,1.032107046293256,0.004456035144189222,0.04136539644132672
0.774,-0.0045,1.504,0.00550216357117105,1.0105947474880532,0.004343914942373279,0.038864541103254956
0.775,-0.0056,1.504,0.0054746167390080135,1.020924848600461,0.004178903123541967,0.04006543965639042
0.776,-0.003,-0.496,0.005366120765907124,1.0204419354624925,0.0035289874544265063,0.04000929986817675
0.777,-0.0023,-1.496,0.005370197594155589,1.0218899902478418,0.003553408587149157,0.040177639643137725
0.778,-0.0002,-2.496,0.0052902754277914694,1.022372219403559,0.0030746565492150634,0.040233699916805796
0.779,-0.007,-0.496,0.005232234116507459,1.0498988267875449,0.0027269758327666377,0.043433732774223986
0.78,0.0031,-0.496,0.00530342948589422,1.0498988267875446,0.0031534523628208187,0.04343373277422396
0.781,0.0068,-0.496,0.005424755095960015,1.0498988267875446,0.0038802204887993653,0.04343373277422396
0.782,0.0006,0.504,0.0054329562010104505,1.0498988267875438,0.003929346981921683,0.043433732774223854
0.783,0.0061,0.504,0.0054103288544275875,1.0498988267875438,0.003793804005768698,0.043433732774223854
0.784,0.0054,0.504,0.005384747305492203,1.0484894553459045,0.0036405646825185167,0.043269890028961464
0.785,0.0047,1.504,0.005389882966914489,1.0484894553459045,0.0036713284678851084,0.043269890028961464
0.786,0.0087,0.504,0.005395388303146122,1.0489594562284004,0.0037043066898266755,0.043324528737103796
0.787,-0.0025,0.504,0.005381953883042338,1.0489594562284004,0.0036238314437748264,0.043324528737103796
0.788,0.0054,-1.496,0.0053706170203505,1.0489594562284004,0.003555921045891354,0.043324528737103796
0.789,-0.0083,1.504,0.005367963926608567,1.0494292466147555,0.0035400284081718754,0.043379142974574625
0.79,-0.0065,-0.496,0.005372347883407986,1.0306733461625168,0.0035662893110905342,0.041198725428729675
0.791,-0.005,0.504,0.005368588426800388,1.0199587936828503,0.0035437693070129125,0.03995313349983067
0.792,-0.0065,0.504,0.005374247588015171,1.0412776537353854,0.003577668975751011,0.042431501127891555
0.793,-0.0075,-1.496,0.005377811336757695,1.0306733461625004,0.0035990166449995586,0.04119872542872777
0.794,-0.0039,-0.496,0.005362356943575864,1.0306733461625013,0.0035064412986666256,0.04119872542872787
0.795,-0.0115,-1.496,0.0053972596975007505,1.039856597637566,0.003715516769605731,0.04226630001386317
0.796,-0.0067,1.504,0.005482425184855042,1.039856597637566,0.004225677498317187,0.04226630001386317
0.797,-0.0074,1.504,0.005488596271079607,1.039856597637566,0.004262643714833608,0.04226630001386317
0.798,0.0049,-1.496,0.005448689363650495,1.0498988267875182,0.004023592221005333,0.043433732774220885
0.799,-0.0005,0.504,0.005436029661528544,1.0498988267875182,0.003947757712679949,0.043433732774220885
0.8,0.001,0.504,0.005569951094370184,1.039856597637566,0.0047499776951049144,0.04226630001386317
0.801,0.0054,-1.496,0.005749739917847568,1.031151467694848,0.0058269538276764865,0.04125430818151703
0.802,0.0064,-0.496,0.005915790335167094,1.000650660145875,0.006821633768274541,0.037708517558903476
0.803,0.0003,1.504,0.00590163032022737,1.0011431198833698,0.006736812043364272,0.03776576716176794
0.804,0.0035,-1.496,0.00590163032022737,0.9901090550090647,0.006736812043364272,0.036483031165424194
0.805,0.0043,-0.496,0.005894328255501013,0.9896111044099651,0.006693071007204873,0.0364251432369824
0.806,0.0068,1.504,0.0059151050380523325,1.018023933634772,0.006817528681973603,0.03972820146799743
0.807,-0.0023,1.504,0.006046176594711028,1.018023933634772,0.007602677254894624,0.03972820146799743
0.808,0.0013,-0.496,0.00602543025208738,1.0175396437553588,0.007478401922247863,0.03967190163035238
0.809,0.0024,0.504,0.006089691138069559,1.0175396437553588,0.007863339312248726,0.03967190163035238
0.81,-0.0023,0.504,0.0061263827966819085,1.017055123272259,0.008083130731012503,0.03961557498448634
0.811,-0.0066,0.503999999999778,0.0061477710763229425,1.017055123272259,0.008211251413069571,0.03961557498448634
0.812,-0.0106,-0.496,0.006191490697183003,1.0165703718557404,0.008473141931515988,0.039559221492067136
0.8130000000000001,-0.005499999999998801,-0.49599999999977795,0.006188740948028926,1.0160853891752828,0.008456670305792975,0.03950284111467105
0.8140000000000001,0.0053000000000001666,0.504,0.006168433259016438,1.0052153562379664,0.008335022608505013,0.038239174216843794
0.8150000000000001,0.0068000000000003995,-1.496,0.006187800841079533,1.0052153562379664,0.008451038850361105,0.038239174216843794
0.8160000000000001,0.010400000000000121,-1.496,0.006192792306335201,1.004724892484102,0.008480938867742283,0.03818215665177138
0.8170000000000001,0.011499999999998635,0.504,0.006170812084349861,1.0052153562379664,0.008349272315789935,0.038239174216843794
0.8180000000000001,-0.0007999999999991119,0.504,0.006121149784948608,1.0052153562379664,0.008051783795039364,0.038239174216843794
0.8190000000000001,0.007199999999999145,-0.496,0.00608335125175457,1.0057055808018835,0.007825361944621538,0.03829616397552219
0.8200000000000001,-0.0005000000000003996,-0.496,0.006098696956219548,1.0360575857233603,0.007917286220706235,0.04182465594267065
0.8210000000000001,-0.0040999999999996005,0.5039999999995559,0.0060966039455405486,1.0636934310486523,0.007904748608507093,0.0450373879677189
0.8220000000000001,-0.0005000000000001221,-1.496,0.006072969223837348,1.0636934310486523,0.00776317122520818,0.0450373879677189
0.8230000000000001,-0.001599999999999878,1.5039999999993339,0.0060674893291511,1.0636934310486523,0.0077303454039366086,0.0450373879677189
0.8240000000000001,-0.0004999999999997225,-1.496,0.006066969736232271,1.0632299433408663,0.0077272329236310515,0.0449835064314571
0.8250000000000001,0.0019999999999995117,0.5039999999995559,0.006050197828663221,1.0646198011191217,0.007626765365079864,0.04514508066745042
0.8260000000000001,-0.002400000000000244,-1.496,0.006024009102547972,1.0556519898974046,0.0074698889117884035,0.04410255151853273
0.8270000000000001,-0.004600000000000766,-0.49599999999933386,0.006043580764002756,1.055184970009959,0.007587127635830805,0.04404825935807698
0.8280000000000001,-0.011499999999999911,2.504,0.006116893347759855,1.0451935314072154,0.008026286763725547,0.04288673111830354
0.8290000000000001,-0.010700000000000088,-0.496,0.006123366680251491,1.015114728696526,0.008065063504441966,0.03938999955079472
0.8300000000000001,-0.011499999999999067,-0.496,0.006260968401106207,1.015114728696526,0.008889329252974136,0.03938999955079472
0.8310000000000001,-0.003099999999999156,0.503999999999778,0.006333233707583779,1.0146290502332316,0.009322214950672161,0.0393335382870072
0.8320000000000001,0.004500000000000078,-0.496,0.006297058230336059,1.014143139176003,0.009105515576224778,0.039277049983627715
0.833,0.0052,1.503999999999556,0.006304538067508628,1.014143139176003,0.009150321509956205,0.039277049983627715
0.834,0.0027,-0.496,0.00629991569762286,1.014143139176003,0.00912263245817532,0.039277049983627715
0.835,0.0049,-0.49599999999977795,0.006339382850856099,1.0146290502332316,0.009359049723890895,0.0393335382870072
0.836,0.0041,0.504,0.006326576299324945,1.0052153562379664,0.009282335554050763,0.038239174216843794
0.837,0.0005,-0.496,0.0063022629174875056,1.0146290502332316,0.00913669284148073,0.0393335382870072
0.838,0.0019,-0.496,0.006325502311185775,1.0146290502332316,0.009275902119701626,0.0393335382870072
0.839,-0.0042,1.503999999999778,0.006324224505944901,1.0131706179409732,0.009268247774343116,0.03916399210245771
0.84,-0.0021,0.504,0.0062694265912248935,1.0037432460038402,0.008939995744396636,0.038068037939378456
0.841,-0.0028,-2.495999999999334,0.006238675485257449,1.0032520625739543,0.008755789593332506,0.0380109367102757
0.842,-0.0021,0.504,0.006219101533174896,1.0032520625739543,0.008638537147906383,0.0380109367102757
0.843,-0.0017,0.504000000000222,0.006225681403904777,1.014143139176003,0.008677952077012805,0.039277049983627715
0.844,-0.009,1.504,0.006182184551074938,1.0037432460038402,0.008417395989967673,0.038068037939378456
0.845,-0.0097,-0.496,0.006202043701514787,1.0032520625739543,0.008536356838718968,0.0380109367102757
0.846,-0.0035,0.504,0.006097403757190326,1.0032520625739543,0.007909539663038194,0.0380109367102757
0.847,0.0005,-1.496,0.006227193860483158,0.9942264866406235,0.008687012037498457,0.036961692277756794
0.848,0.0027,0.504,0.006204812498785545,0.9942264866406235,0.008552942567013196,0.036961692277756794
0.849,0.0136,-0.496,0.006191408836124386,0.9831147954633241,0.008472651565070438,0.03566993204109471
0.85,0.0151,-0.496,0.006192502578689566,0.9927380813786996,0.008479203332945067,0.03678866166498024
0.851,0.014,-0.496,0.006211697655807219,1.0022689735694852,0.008594186230762314,0.0378966503010505
0.852,0.0053,-0.496,0.006247532907574644,0.9912474412078778,0.008808847576844624,0.036615371238787275
0.853,-0.0023,0.504,0.0062381201123581365,0.9907500627614076,0.008752462782768491,0.03655754982443449
0.854,0.0024,0.504,0.006287585525332173,0.9907500627614076,0.009048771908833462,0.03655754982443449
0.855,0.005,2.504,0.006280480826881886,0.9801019763383303,0.00900621314176394,0.03531968473095772
0.856,0.0126,0.504,0.0062698506839632545,0.9795989389453569,0.008942536156800353,0.03526120545076275
0.857,-0.0022,0.504,0.006297426646515281,0.9703533824652404,0.009107722473317717,0.03418638776223421
0.858,-0.0088,-0.496,0.006338578612666135,0.960505850945826,0.009354232153372652,0.03304158905940096
0.859,-0.007,0.504,0.0063373057347676665,0.9599925452115412,0.009346607323921,0.032981916060375004
0.86,-0.0051,0.504,0.006453563010431402,0.9713687726814144,0.010043014968767658,0.03430442926330013
0.861,-0.0098,0.504,0.006464531943618528,0.9718760699698442,0.010108721384849705,0.034363403766362176
0.862,-0.0055,0.504,0.006437613134706055,0.9723831025986946,0.00994747156878628,0.03442234750212557
0.863,0.0011,0.504,0.00634960957038896,0.9723831025986946,0.009420310110595522,0.03442234750212557
0.864,-0.0051,-0.496,0.0063496095703889695,1.0012849193417275,0.009420310110595579,0.03778225168234757
0.865,0.0026,0.504,0.006331055364811462,1.0012849193417275,0.009309166179736518,0.03778225168234757
0.866,0.0051,-0.496,0.006301255029097463,0.9907500627614099,0.00913065535973199,0.036557549824434744
0.867,0.0059,-0.496,0.006239314301758099,0.9795989389453591,0.008759616250134558,0.035261205450763014
0.868,0.008,-0.496,0.006179481844422037,0.9795989389453591,0.00840120615957545,0.035261205450763014
0.869,0.0044,-2.496,0.006184301133403271,0.9892564269912232,0.008430074801732211,0.03638391115276926
0.87,0.0008,2.504,0.006147705997110585,0.988758046998359,0.008210861573717601,0.036325973306292295
0.871,0.0004,0.504,0.006147598021376182,0.9978330871569377,0.008210214774397154,0.03738096807134773
0.872,0.0041,-0.496,0.0061377812548972675,0.9978330871569397,0.008151410100155826,0.03738096807134796
0.873,0.0015,0.504,0.0061646788701116085,0.9867620098819597,0.008312532961124896,0.03609392929636392
0.874,0.0004,-1.496,0.006162654895549687,0.9775842008876618,0.008300408891041111,0.03502698741241976
0.875,0.0001,0.504,0.006162547181739173,0.9760704182111412,0.008299763660704606,0.03485100661550271
0.876,-0.0057,0.504,0.006166089536544238,0.9765752731593752,0.008320983175379472,0.034909697190772034
0.877,-0.0097,-0.496,0.00617028263268073,0.9652604096654146,0.008346100779317448,0.0335943176943892
0.878,-0.0028,-0.496,0.006214469864564095,0.9647496336501088,0.008610792394637886,0.033534938781145045
0.879,-0.0148,-0.496,0.006141437956430096,0.9341913408434502,0.008173314577857076,0.029982465362106754
0.88,-0.01,0.504,0.006109689841777751,0.9437912140023444,0.007983136116963916,0.031098473197979044
0.881,0.0005,0.504,0.006000146349337849,0.9432688125813272,0.007326945567660113,0.031037742803975255
0.882,-0.0031,0.504,0.006001220812007184,0.9548443111143582,0.00733338184455337,0.0323834217367247
0.883,0.0056,0.504,0.005991411469965535,0.9867620098819764,0.007274621644387665,0.03609392929636586
0.884,0.0089,-0.496,0.006000877960553402,0.9882594156721335,0.007331328086007099,0.03626800624172087
0.885,0.0024,0.504,0.006127461566396441,0.9882594156721323,0.008089592808090606,0.03626800624172073
0.886,0.0067,1.504,0.0061134587582740135,0.9877605326318695,0.008005712787936124,0.03621000991480038
0.887,0.006,0.504,0.006110922027902896,0.9988205421916617,0.007990517193395694,0.03749576204185998
0.888,-0.0052,1.504,0.006129373954956502,0.9983269367620072,0.00810104845252697,0.03743837924958703
0.889,-0.0005,0.504,0.006153671438278206,0.9978330871569567,0.008246595929355095,0.03738096807134994
0.89,-0.002,0.504,0.006147894670774573,0.99783308715696,0.00821199177207493,0.037380968071350315
0.891,-0.0009,0.504,0.006145252946621432,0.9978330871569588,0.008196167240790152,0.03738096807135018
0.892,-0.0071,-1.496,0.006139705275380999,0.9662811517081128,0.00816293542247275,0.0337129813578773
0.893,-0.0016,-0.496,0.006136093269873891,0.9983269367620162,0.008141298684178162,0.03743837924958808
0.894,-0.0063,0.504,0.006165166549980397,0.9988205421916695,0.008315454274968895,0.03749576204186089
0.895,-0.002,-1.496,0.006139082046938219,0.9897545560303941,0.008159202141699051,0.03644181982528909
0.896,-0.0143,-0.496,0.006080748339196588,0.989256426991248,0.007809769903659825,0.036383911152772154
0.897,-0.0052,1.504,0.006128697119212146,0.9897545560303941,0.0080969940517681,0.03644181982528909
0.898,0.0027,0.504,0.006253171773849506,0.9790956431031089,0.008842625674255408,0.03520269612523169
0.899,0.0013,1.504,0.006261037290028337,0.9790956431031068,0.008889741913358123,0.03520269612523144
0.9,0.005,1.504,0.006112298007077972,0.9897545560303921,0.007998759623051837,0.03644181982528886
0.901,0.0086,0.504,0.005935778500873537,0.9897545560303921,0.006941367447951422,0.03644181982528886
0.902,0.0054,0.504,0.005769557200224072,0.9897545560303921,0.00594566387716191,0.03644181982528886
0.903,0.0079,1.504,0.005769079553008164,0.9892564269912449,0.005942802661201025,0.03638391115277179
0.904,0.0018,-0.496,0.005776753478257918,0.9897545560303911,0.005988771226861961,0.03644181982528874
0.905,-0.0022,0.504,0.005778065265906159,0.9897545560303911,0.00599662913460524,0.03644181982528874
0.906,0.009,-0.496,0.0057635183729999,0.959992545211566,0.005909489922277692,0.03298191606037788
0.907,0.0076,0.504,0.005627764001731307,0.959992545211566,0.005096290219867243,0.03298191606037788
0.908,-0.0001,0.504,0.005657184527426963,0.959992545211566,0.005272525891079117,0.03298191606037788
0.909,-0.0124,-1.496,0.0055900240170335845,0.9594789648670503,0.0048702190883200885,0.03292221113726664
0.91,-0.0044,-0.496,0.005546334182155135,0.959992545211565,0.004608506994709319,0.032981916060377765
0.911,-0.003,-0.496,0.005524718317002059,0.9599925452115639,0.004479023023434115,0.03298191606037764
0.912,0.0006,-0.496,0.005612144012107314,0.9605058509458486,0.005002722913008634,0.033041589059403596
0.913,-0.0055,2.504,0.005714971225255067,0.9927380813787043,0.005618681414750043,0.036788661664980786
0.914,0.0021,0.504,0.0058137167409709305,0.9927380813787043,0.006210189616247523,0.036788661664980786
0.915,0.0029,-0.496,0.0057911375678573315,0.9927380813787031,0.006074935210182584,0.03678866166498065
0.916,0.0055,0.504,0.005853100133132937,0.9927380813787031,0.0064461051340078505,0.03678866166498065
0.917,0.0076,0.504,0.006020297137948314,0.9927380813787019,0.00744765339568979,0.03678866166498051
0.918,0.0026,1.504,0.006067595878168416,0.992241450142068,0.007730983656895711,0.03673092711552879
0.919,-0.0025,0.504,0.006078629751579146,0.9922414501420692,0.0077970790797553344,0.03673092711552893
0.92,0.0004,1.504,0.006068327186774404,0.9713687726814181,0.007735364362542259,0.03430442926330056
0.921,-0.0022,0.504,0.006120030562823728,0.9415490964675718,0.008045079398780308,0.03083782176057597
0.922,0.0058,0.504,0.006122631731604502,0.9420724515122672,0.008060660994118108,0.030898663015575492
0.923,0.0004,-0.496,0.00613307694539624,0.953145480363705,0.008123230211357156,0.03218592866591332
0.924,0.0004,1.504,0.006134011792015206,0.9536624715155726,0.008128830156207835,0.03224603010340224
0.925,0.0029,-0.496,0.006135440127619419,0.9521106558897942,0.008137386212837425,0.03206562788667157
0.926,-0.0033,0.504,0.006144980750745204,0.952110655889794,0.008194536725297524,0.032065627886671555
0.927,-0.0087,0.504,0.006123888927927595,0.9526282086408768,0.00806819188735018,0.03212579461139026
0.928,-0.0065,0.504,0.00608237147633711,0.9620441248817342,0.0078194928660021,0.033220417022830996
0.929,-0.0087,1.504,0.006075838827785202,0.9620441248817342,0.007780360808531529,0.033220417022830996
0.93,0.0004,0.504,0.005896810888012663,0.9620441248817343,0.0067079425432062766,0.033220417022831
0.931,-0.0033,-1.496,0.005813259650760583,0.9620441248817342,0.006207451541447015,0.033220417022830996
0.932,0.0029,-2.496,0.005875224566939726,0.9620441248817342,0.00657863554772163,0.033220417022830996
0.933,0.0062,-1.496,0.00587720409881354,0.9620441248817342,0.006590493395948947,0.033220417022830996
0.934,0.0127,-0.49599999999977795,0.005870976119232302,0.9942264866406235,0.00655318637522649,0.036961692277756794
0.935,0.0026,0.504,0.005877156672286726,1.004724892484102,0.006590209300216843,0.03818215665177138
0.936,0.0037,-1.495999999999556,0.005872377353470925,1.0052153562379667,0.006561580088483805,0.03823917421684382
0.937,0.0048,0.504,0.005999370593254884,0.9957126670159692,0.0073222986114706715,0.03713446424223516
0.9380000000000001,0.005799999999999722,0.504000000000222,0.005989413170811341,0.996207567776659,0.007262651375862739,0.03719199761978789
0.9390000000000001,0.0032999999999995117,1.504,0.005966615838463352,0.9871175835605153,0.007126090146136611,0.036135265572888604
0.9400000000000001,-0.001099999999999756,0.503999999999778,0.006062923047304739,0.9871175835605152,0.007702992332327322,0.03613526557288859
0.9410000000000001,0.0010999999999999112,-0.496,0.006061862584149914,0.987616791379016,0.007696639915724731,0.03619329965604307
0.9420000000000001,0.00029999999999927833,-2.495999999999556,0.006061432613800813,0.9876167913790159,0.00769406429508971,0.03619329965604306
0.9430000000000001,-0.006200000000000088,-0.496,0.006025585023028099,1.0057055808018838,0.007479329035546382,0.03829616397552222
0.9440000000000001,-0.0069999999999997555,-0.49599999999977795,0.00602646807020781,1.0057055808018838,0.007484618689920269,0.03829616397552222
0.9450000000000001,-0.004800000000000399,0.504,0.005994446960799747,1.0165703718557404,0.007292804928063791,0.039559221492067136
0.9460000000000001,-0.008400000000000444,-0.496,0.006027535138739943,1.0057055808018838,0.007491010674242195,0.03829616397552222
0.9470000000000001,-0.012399999999999078,-0.496,0.0058715565491147745,1.0052153562379667,0.0065566632828449045,0.03823917421684382
0.9480000000000001,-0.0040999999999996005,0.5039999999995559,0.005852320952631354,0.9957126670159692,0.006441437664768445,0.03713446424223516
0.9490000000000001,-0.0005000000000003664,-1.496,0.005846199048617082,1.0052153562379667,0.006404766060929321,0.03823917421684382
0.9500000000000001,-0.0037999999999994783,-0.496,0.0058488559327077114,0.9957126670159692,0.006420681403703542,0.03713446424223516
0.9510000000000001,0.0008999999999993228,-0.496,0.005827653364431288,0.9861184097741439,0.006293673175153673,0.03601910926993209
0.9520000000000001,-0.0051999999999990006,0.503999999999778,0.005802736116301314,0.9866181231534917,0.006144413165513972,0.036077202125724225
0.9530000000000001,0.0037999999999998777,-0.496,0.0059687172346852896,0.9871175835605152,0.007138677989653965,0.03613526557288859
0.9540000000000001,0.0026999999999993895,0.504,0.005936582412682071,0.9774389631142104,0.006946183063370321,0.035010103179622755
0.9550000000000001,-0.0027999999999994783,0.504,0.005936145727616085,0.9774389631142104,0.006943567220046909,0.035010103179622755
0.9560000000000001,0.0019000000000004775,0.504,0.005949604641120063,0.9774389631142103,0.0070241891871624185,0.03501010317962275
0.9570000000000001,0.0061999999999991446,0.504,0.005882886510377005,0.9769345544990977,0.0066245323395881205,0.03495146449162866
0.9580000000000001,-0.0014999999999999224,0.503999999999778,0.005911123242592457,0.9774389631142103,0.006793676817368645,0.03501010317962275
0.9590000000000001,-0.0008000000000000778,-0.496,0.0060111986427741695,0.9774389631142103,0.007393151330681817,0.03501010317962275
0.96,-0.0015,0.503999999999778,0.005898025795387649,0.9666442591638097,0.006715220115976588,0.03375519345371587
0.961,-0.0139,-0.496,0.00597482271062749,0.966134214762586,0.007175251185587734,0.03369589959232969
0.962,-0.0121,-2.495999999999334,0.006041121344195584,0.966134214762586,0.007572395149233101,0.03369589959232969
0.963,-0.0107,0.504,0.00605928751188489,0.9656239009549662,0.0076812146444790695,0.03363657441181625
0.964,-0.0002,-0.49599999999977795,0.006037793454131699,0.9356211448090422,0.007552460327360942,0.03014868343634074
0.965,0.0089,0.504,0.006048986936349203,0.9472900993321143,0.007619511843442156,0.03150522684776284
0.966,0.015,-0.49599999999977795,0.0060455331419586485,0.9472900993321143,0.007598822825885373,0.03150522684776284
0.967,0.0096,0.504,0.006022742222604129,0.9472900993321143,0.0074623000114554285,0.03150522684776284
0.968,0.0088,-0.49600000000022204,0.006069534665400919,0.9478102843565683,0.007742597435411832,0.03156569958045268
0.969,0.0026,-1.496,0.006106379088428758,0.9377260463331021,0.007963303947929525,0.030393383189734245
0.97,0.008,-0.496,0.006101942535305748,0.9478102843565684,0.007936727981014826,0.03156569958045269
0.971,-0.0018,-0.496,0.006136098480614666,0.9377260463331021,0.008141329897706004,0.030393383189734245
0.972,-0.0054,-1.495999999999778,0.006137678274868529,0.9493691292908019,0.008150793226253778,0.031746918970825835
0.973,-0.0018,-0.496,0.006140574246298095,0.9593309860579629,0.00816814075681729,0.032905008252629396
0.974,0.0014,1.504,0.006182250509356743,0.9593309860579629,0.008417791095146492,0.032905008252629396
0.975,-0.0034,0.504,0.006228966382978298,0.9593309860579629,0.008697629852247951,0.032905008252629396
0.976,-0.0026,-0.496,0.006260725056179035,0.9593309860579629,0.008887871561258505,0.032905008252629396
0.977,-0.0066,1.504,0.006251979919523971,0.9593309860579629,0.0088354861945187,0.032905008252629396
0.978,0.0002,-0.496,0.00622103027168214,0.9598446455809271,0.00865009073226217,0.03296472238042153
0.979,-0.0023,-0.496,0.006237265649958816,0.9712226054459604,0.008747344357760475,0.034287436978359016
0.98,-0.0016,0.504,0.006184364939973355,0.9618965406986886,0.008430457017666175,0.03320326001439936
0.981,-0.0085,0.504,0.0061853689968172825,0.9624088309276552,0.008436471547578216,0.03326281495854337
0.982,0.0035,0.504,0.00617643702063413,0.9509254188256152,0.008382966969374203,0.0319278412900055
0.983,0.0049,-2.496,0.006171056184951343,0.9177622494359896,0.00835073453416735,0.028072544840917268
0.984,0.0093,-1.496,0.006143405431733613,0.9062569964697516,0.008185100204473503,0.026735032120541534
0.985,0.0002,-0.496,0.006012448274859603,0.9161496264101806,0.007400636912401956,0.02788507362089979
0.986,0.014,0.504,0.006052626314886147,0.9280634372985382,0.0076413125524399245,0.02927008216074588
0.987,0.0049,-0.496,0.006044513702154598,0.9166874826302361,0.007592716148527345,0.02794760067164509
0.988,0.0002,-0.496,0.006033461160395333,0.9166874826302361,0.007526508897994464,0.02794760067164509
0.989,0.0108,0.504,0.006061147855154947,0.950406938805296,0.0076923585257364785,0.03186756676805691
0.99,0.0017,-0.496,0.006052847367352275,0.9403505474920966,0.007642636707220304,0.030698487622908978
0.991,0.0006,0.504,0.006078365778612385,0.9519615317057469,0.007795497821369265,0.03204829184950106
0.992,-0.0027,2.504,0.006131468136132894,0.962920848609575,0.008113593076272942,0.03332233821845211
0.993,-0.0019,-0.496,0.0061374527956921995,0.9296553943094776,0.008149442554467836,0.029455150907923458
0.994,-0.0012,-1.496,0.006199271311352288,0.9296553943094777,0.008519749588182263,0.02945515090792347
0.995,-0.0066,0.504,0.006167269402445253,0.9408745692217135,0.008328050841714068,0.030759406381598832
0.996,-0.0044,0.504,0.006404306032472398,0.9413982992589147,0.00974795441606804,0.03082029123035922
0.997,0.0022,0.504,0.0063486888295728305,0.950925418825637,0.009414794662726869,0.03192784129000803
0.998,0.0,1.504,0.006266026277287103,0.9603580303667214,0.008919627086971657,0.03302440456937142
0.999,0.0022,0.504,0.006319419784397279,0.9608711408556742,0.009239466394442196,0.03308405487066826
1.0,0.0001,0.504,0.006328757065294553,0.9493691292908257,0.009295398840491857,0.03174691897082861
1.0010000000000001,0.006700000000001843,-0.496,0.006439217481989406,0.9603580303667235,0.009957081975590807,0.03302440456937167
1.002,0.015,-0.496,0.006485410053034648,0.9603580303667235,0.010233786030690762,0.03302440456937167
1.0030000000000001,0.0048999999999985566,0.504,0.006473148975049435,0.9702070622554871,0.010160339372026051,0.03416937769367098
1.004,-0.0016,-0.496,0.006538678154054818,0.9702070622554871,0.010552874127028135,0.03416937769367098
1.0050000000000001,0.004599999999999267,0.504,0.006593221242415875,0.9707149666559463,0.010879599688859234,0.03422842277493451
1.006,0.0013,0.504,0.006588221757919807,0.9712226054459847,0.010849651634395744,0.03428743697836185
1.0070000000000001,-0.00950000000000031,-0.496,0.006588221757919805,1.0031105411905425,0.010849651634395734,0.037994484516562635
1.008,-0.0109,0.504,0.006560090621852793,1.0036017938839166,0.01068113970167203,0.038051593797708796
1.0090000000000001,-0.004400000000001355,-0.496,0.006558428643162999,1.0036017938839175,0.010671184069574709,0.0380515937977089
1.01,-0.0105,0.504,0.006574902218046971,1.0036017938839163,0.010769864547176253,0.038051593797708776
1.0110000000000001,-0.009399999999998956,-0.496,0.006609501096434253,1.0036017938839172,0.010977119734212597,0.03805159379770888
1.012,-0.0047,0.504,0.006467787766230162,1.0031105411905443,0.010128224506216189,0.03799448451656284
1.0130000000000001,-0.002100000000000466,-0.496,0.006377110858071633,0.9809625612070485,0.009585049107583,0.035419729746243446
1.014,-0.0042,-1.496,0.006307145337492445,0.9809625612070484,0.009165939652894294,0.03541972974624344
1.0150000000000001,-0.0019999999999992008,-0.496,0.006309606334653112,0.9804599653481331,0.009180681588199848,0.03536130179542132
1.016,0.0016,0.504,0.006261478865347874,0.9809625612070484,0.00889238705041768,0.03541972974624344
1.0170000000000001,0.010699999999999222,-0.496,0.006082782821648597,0.9804599653481332,0.007821956918406188,0.03536130179542133
1.018,0.0072,0.504,0.006007980565765723,0.9809625612070509,0.007373874314102917,0.03541972974624373
1.0190000000000001,0.0010000000000012213,1.504,0.0059561613891008485,0.9916014064780903,0.007063465605718441,0.03665652053405872
1.02,0.0065,0.504,0.0059815295389715525,0.9901090550091024,0.007215426619811642,0.03648303116542859
1.0210000000000001,-0.0025999999999980683,-1.496,0.005928390287627315,0.9901090550091024,0.006897110362473962,0.03648303116542859
1.022,0.0061,1.504,0.0059269586279135575,0.9896111044100029,0.0068885343936686775,0.03642514323698679
1.0230000000000001,0.007199999999996713,-0.496,0.00590666282697464,0.9784470002471918,0.006766957908657709,0.03512728986747135
1.024,-0.0076,1.504,0.005910126339262566,0.9784470002471943,0.006787705138640188,0.03512728986747165
1.025,-0.0069,-0.496,0.005913492939453411,1.000650660145918,0.006807871843017712,0.037708517558908486
1.026,-0.0003,0.504,0.005915943609176557,1.0316293676358457,0.006822551914612797,0.04130986517379065
1.027,-0.0061,-0.496,0.005949385197469463,1.0316293676358457,0.007022874669554653,0.04130986517379065
1.028,-0.0079,-1.496,0.005991824184111521,1.022372219403562,0.007277093896423164,0.040233699916806163
1.029,-0.0032,-0.496,0.006053539293431482,1.0223722194035618,0.007646781502532921,0.040233699916806136
1.03,0.0012,-0.496,0.006057661724758162,1.0223722194035643,0.007671475808113923,0.04023369991680642
1.031,0.0001,0.504,0.006060333790772851,1.0527119090836135,0.00768748209408218,0.043760760208170595
1.032,0.0013,-0.496,0.0060178810844154365,1.0527119090836135,0.007433180682983865,0.043760760208170595
1.033,-0.002,-0.496,0.006008156179442994,1.0527119090836135,0.007374926280155735,0.043760760208170595
1.034,-0.0012,1.504,0.00603861431722046,1.0228542212102365,0.007557377484821601,0.04028973376061325
1.035,-0.0074,-1.496,0.00607441891473448,1.012056891764853,0.007771855204921822,0.03903451881473882
1.036,-0.0019,-0.496,0.006127847242086725,1.0115697451630814,0.008091903093598436,0.03897788687639994
1.037,0.0031,0.504,0.005992336998548523,1.012056891764852,0.007280165772073762,0.03903451881473872
1.038,0.0082,-2.496,0.006006910303178853,1.0115697451630803,0.0073674631966633075,0.03897788687639982
1.039,-0.0008,0.504,0.006008952175168784,1.0115697451630803,0.00737969447643025,0.03897788687639982
1.04,0.0057,-1.496,0.005940667829281721,1.0115697451630792,0.00697065564227892,0.038977886876399685
1.041,-0.0081,-1.496,0.005957479452958933,1.0115697451630792,0.007071361109392734,0.038977886876399685
1.042,-0.0027,0.504,0.005970108826883593,1.01205689176485,0.007147013944886655,0.03903451881473849
1.043,-0.0107,-0.496,0.005970573415956903,0.9834716877912785,0.007149796939589726,0.035711421613713774
1.044,-0.0031,-1.496,0.005991173697386841,0.9829703748575477,0.00727319733231264,0.0356531428059621
1.045,-0.0179,-0.496,0.006007743139415043,1.0036017938839188,0.007372452076012807,0.03805159379770906
1.046,0.0002,1.504,0.005971442622960928,1.003601793883918,0.007155003688148912,0.038051593797708956
1.047,0.0071,1.504,0.005982478135002852,1.0040928062317993,0.0072211089267838,0.03810867513812625
1.048,0.0092,-0.496,0.005998759695231851,1.0040928062317982,0.0073186391927286334,0.03810867513812612
1.049,0.0035,0.504,0.006015792204983784,0.9950748560813464,0.007420667817900278,0.037060317220804516
1.05,0.0125,-1.496,0.006023702821817926,0.9955700738997453,0.007468054220233353,0.03711788745706172
1.051,0.0078,-0.496,0.006043402616215308,0.9960650455086638,0.007586060489879008,0.037175429070887694
1.052,0.0034,1.504,0.006061806869590063,1.0065442750935543,0.007696306172781006,0.038393664159734386
1.053,0.01,-0.496,0.005901255883328058,1.006054459203962,0.006734569080782315,0.03833672191040755
1.054,0.0089,-0.496,0.005915539564828017,1.006544275093554,0.006820131596644961,0.03839366415973436
1.055,0.0012,-0.496,0.005973751734275346,1.0060544592039617,0.0071688357925310375,0.038336721910407524
1.056,0.0019,-2.496,0.006026468642567913,1.0169155228252935,0.007484622118488063,0.03959934610415363
1.057,0.0011,-0.496,0.00602515866656828,1.0262218949737956,0.00747677506293389,0.040681233757184694
1.058,0.0004,0.504,0.005962338162955902,1.0363962468877626,0.007100465892441058,0.04186402609964282
1.059,-0.0047,-0.49599999999977795,0.005868213358349407,1.0368717294836773,0.006536636806274813,0.041919302069864384
1.06,-0.0069,0.504,0.0058996865039207995,1.0368717294836773,0.006725168139545393,0.041919302069864384
1.061,-0.0029,0.504000000000222,0.005926260709040384,1.0368717294836773,0.006884353700150908,0.041919302069864384
1.062,-0.0055,1.504,0.00585174974769875,1.0368717294836773,0.00643801601670755,0.041919302069864384
1.063,-0.0051,0.504,0.005857815948216339,1.0373469941354747,0.006474353943873856,0.04197455270356964
1.064,0.0018,0.504,0.005856805029338434,1.0373469941354747,0.006468298308810384,0.04197455270356964
1.065,0.0043,-0.49599999999977795,0.00584456730744989,1.0271820595213257,0.006394991558501357,0.04079285514436705
1.066,-0.0019,0.504,0.005863078864040732,1.0271820595213257,0.006505880012185422,0.04079285514436705
1.067,-0.0011,-0.49600000000022204,0.005911014771220693,1.0271820595213257,0.006793027049067158,0.04079285514436705
1.068,0.0039,-1.496,0.005835919483121047,1.0271820595213257,0.0063431891148305036,0.04079285514436705
1.069,0.0061,1.503999999999556,0.005887405273678991,1.0573837486555053,0.006651600764259087,0.044303872547664276
1.07,0.0006,-0.496,0.005890617177390529,1.0483540407515968,0.006670840801378969,0.04325414776384633
1.071,0.0013,0.504,0.005864067791772294,1.0488241023163192,0.0065118039152575425,0.043308793526440244
1.072,-0.0023,0.504,0.005863857136783814,1.0382968708037064,0.006510542043743997,0.04208497810058404
1.073,-0.0027,-0.4960000000004441,0.00583229103020266,1.0382968708037066,0.006321453852784283,0.04208497810058407
1.074,-0.0024,-2.496,0.005792243490029188,1.0677228093468982,0.006081559936684124,0.0455058126729318
1.075,-0.0038,-2.495999999999556,0.005749291404545796,1.0691068263358574,0.005824267130518084,0.045666707903430526
1.076,-0.0068,-0.496,0.005784724662145269,1.0691068263358574,0.006036520439682725,0.045666707903430526
1.077,-0.0097,0.503999999999778,0.00578463455071606,1.0695677673515416,0.0060359806516322055,0.045720293380745076
1.078,-0.0086,-0.496,0.005884767628947274,1.0779627095955115,0.0066358006696407516,0.04669622516347761
1.079,-0.0032,-0.4960000000004441,0.005872138872823689,1.0779627095955115,0.006560151534916427,0.04669622516347761
1.08,-0.0024,-2.496,0.0061399626640894255,1.0775053598191822,0.008164477239646964,0.046643057176185485
1.081,-0.0046,0.504,0.006185994054331693,1.0775053598191822,0.008440215784908904,0.046643057176185485
1.082,-0.0006,0.504,0.006187520085119268,1.1041042499511542,0.0084493570580092,0.04973524072084872
1.083,0.0078,-0.49599999999977795,0.006232424218744003,1.1036577331404736,0.008718343078565298,0.04968333209129494
1.084,0.0114,0.504,0.006364906720228022,1.1036577331404736,0.00951194353337674,0.04968333209129494
1.085,0.0081,0.503999999999778,0.0063663429549617595,1.0954597197522293,0.00952054690759705,0.04873029375126334
1.086,0.0056,-0.496,0.006323022758250598,1.0858389359201486,0.00926104903106695,0.04761185500044631
1.087,-0.0064,0.503999999999778,0.006321699079271768,1.0954597197522293,0.009253119891536394,0.04873029375126334
1.088,0.0016,-0.496,0.006322951836028101,1.095909576762182,0.009260624190749177,0.048782590686839426
1.089,0.0059,0.503999999999778,0.006271375497814527,1.066799133820781,0.008951670140174136,0.04539843322031942
1.09,0.0048,-0.496,0.006297381594101391,1.066799133820781,0.009107452599064493,0.04539843322031942
1.091,-0.0039,-0.496,0.006341447551884678,1.0564510335277753,0.009371417754815547,0.04419544222010115
1.092,-0.0028,-0.496,0.006292138857529636,1.0564510335277753,0.009076047409086983,0.04419544222010115
1.093,-0.0053,0.5039999999993339,0.006357974686666466,1.0569174939801764,0.009470419068442908,0.04424966934491705
1.094,-0.0046,-2.496,0.0063232467431565435,1.0569174939801764,0.009262390751831866,0.04424966934491705
1.095,-0.0006,0.503999999999778,0.006428963976345843,1.0464716830389975,0.009895661133962714,0.043035319252010304
1.096,-0.0057,-0.496,0.006189883996646141,1.0564510335277753,0.00846351742818523,0.04419544222010115
1.097,-0.0049,0.503999999999778,0.006201049653192107,1.0474132847550373,0.008530402262136048,0.04314478266636777
1.098,-0.0045,-0.496,0.006193452137123468,1.0681843475913064,0.008484891404928717,0.04555946757949034
1.099,0.0038,-0.496,0.006131385654703591,1.0681843475913064,0.00811309899366524,0.04555946757949034
1.1,0.0049,-0.496,0.006228169009177011,1.0686456865016098,0.00869285340098633,0.04561309931299032
1.101,0.0082,-1.496,0.006156462633548811,1.0583156417627175,0.008263315826786133,0.044412207313408614
1.102,0.0057,0.504,0.006201500370341499,1.0578497978258543,0.008533102160845251,0.044358051859974185
1.103,0.0064,-0.496,0.0062250447009165166,1.0592467150189784,0.00867413808063288,0.04452044676955138
1.104,0.0085,0.504,0.006204147538169882,1.0587812807369918,0.00854895930098855,0.04446633893945997
1.105,0.0092,-1.496,0.006209996508323319,1.0686456865016098,0.008583995968638625,0.04561309931299032
1.106,-0.0002,1.504,0.006222911803846396,1.0681843475913064,0.00866136153983728,0.04555946757949034
1.107,-0.0039,-1.496,0.006236894141718897,1.0382968708037066,0.008745118938517456,0.04208497810058407
1.108,-0.0028,-0.496,0.0062476776925034,1.0378220411425731,0.008809714871649776,0.04202977803556669
1.109,-0.0075,-0.496,0.006371852588033857,1.0382968708037066,0.009553550868594782,0.04208497810058407
1.11,-0.0119,0.504,0.006498725554902815,1.0378220411425743,0.01031354892933964,0.042029778035566824
1.111,-0.001,-0.496,0.006478259110015219,1.0378220411425743,0.01019095024808566,0.042029778035566824
1.112,-0.0054,-0.496,0.006523699805546229,1.0382968708037066,0.010463150397059352,0.04208497810058407
1.113,-0.0018,-0.496,0.006500571600904554,1.0290997010786667,0.010324607166693043,0.04101578548615017
1.114,0.0019,-0.496,0.006487871833546712,1.0397200586884268,0.010248532658450167,0.042250427039854134
1.115,0.0051,-0.496,0.006489967362740786,1.0488241023163194,0.010261085357130066,0.043308793526440265
1.116,0.0077,0.504,0.006475902588971372,1.0488241023163205,0.010176834148591603,0.043308793526440396
1.117,0.0051,-0.496,0.006567125549060186,1.0488241023163205,0.010723280523054587,0.043308793526440396
1.118,0.0106,-2.496,0.006573366149561975,1.048354040751597,0.010760663145974896,0.043254147763846354
1.119,0.0022,0.504,0.006563820174079951,1.0382968708037066,0.010703480571677962,0.04208497810058407
1.12,0.0033,-0.496,0.006535808738445563,1.029099701078673,0.010535685671896023,0.04101578548615091
1.121,0.0026,0.504,0.0065358523538645045,1.0392458792796082,0.010535946938221168,0.04219530256819791
1.122,0.0,1.504,0.006562311655039169,1.0483540407516032,0.010694444197942216,0.043254147763847076
1.123,-0.0022,-2.496,0.006575565451922138,1.0488241023163256,0.010773837469630789,0.043308793526440986
1.124,-0.0029,-1.496,0.00657859125285498,1.0488241023163232,0.010791962708583663,0.04330879352644071
1.125,-0.0094,-0.496,0.006578064295728549,1.0183685919554595,0.010788806114991927,0.03976826880849446
1.1260000000000001,-2.75335310107008e-15,-0.496,0.006628649969988576,0.9874730292025722,0.011091825862128445,0.036176586964869153
1.127,-0.0124,1.504,0.0066373624662672106,0.9874730292025721,0.011144015705555439,0.03617658696486914
1.1280000000000001,-0.006900000000002509,-1.496,0.0065774634092281,0.9874730292025731,0.0107852066675577,0.03617658696486925
1.129,-0.0182,0.504,0.006527236536341716,0.9869737486696765,0.01048433622263182,0.036118544428495235
1.1300000000000001,-0.007599999999998002,-0.496,0.006519379297404761,0.9864742154378069,0.010437269566099205,0.0360604725152712
1.131,0.0014,2.504,0.006573020583019462,0.965476863981838,0.010758593123426755,0.03361948101782468
1.1320000000000001,0.007600000000001221,0.504,0.00656179692073358,0.9659872554664666,0.010691360821840112,0.03367881522847311
1.133,0.0131,-0.496,0.006573537354122609,0.9772937037567063,0.010761688700411614,0.034993216437628864
1.1340000000000001,-0.0017999999999995114,-0.496,0.006547872068007337,0.9772937037567077,0.010607947772320804,0.03499321643762902
