time_sec,bts_raw,diy_raw,bts_rms,diy_rms,bts_norm_rms,diy_norm_rms
0.0,0.0028,-0.236,0.009330527950207305,0.6938806818041207,0.048146127369278875,0.0
0.0009999999999998899,0.0017,-1.236,0.009402944182972908,0.7032768365960238,0.04882955784990771,0.0006134836026593898
0.0020000000000000018,0.0029,-1.236,0.009422276376839164,0.7034278927420015,0.049012006039230005,0.0006233461975921671
0.0029999999999998916,-0.0025,0.764,0.009414578049174421,0.7354278520124379,0.04893935282909985,0.0027126530186226045
0.0040000000000000036,-0.009000000000000155,0.764,0.009417848493467947,0.7442996935557527,0.04897021775026508,0.003291903726253145
0.004999999999999893,-0.0097,-0.236,0.009419087789006441,0.7491856300714216,0.048981913640995224,0.0036109110225761684
0.006000000000000005,-0.007499999999999822,-1.236,0.009444125361260184,0.7493274315681066,0.04921820651878881,0.003620169372930693
0.006999999999999895,-0.0067,-1.236,0.009433703484193263,0.7541807967449059,0.04911984972527879,0.003937050056532269
0.008000000000000007,-0.014700000000001044,-1.236,0.00957961687793724,0.7543216592235195,0.050496911980635405,0.003946247097531832
0.008999999999999897,-0.0194,-1.2359999999999964,0.00973907813662953,0.7591430958996132,0.05200183263872186,0.004261043139907905
0.010000000000000009,-0.014999999999997269,0.764,0.009807284978638845,0.7592830377711539,0.05264553686133011,0.004270180073623567
0.010999999999999899,-0.0027,-0.236,0.00979059364774019,0.759422953855053,0.05248801189955357,0.004279315323640346
0.01200000000000001,0.017600000000003,0.764,0.009806424926852618,0.7642122069950595,0.05263742009547281,0.004592010073295904
0.0129999999999999,0.0311,0.7640000000000018,0.009790788037430226,0.7689716326358115,0.05248984645838405,0.004902757358046262
0.014000000000000012,0.024299999999996536,1.764,0.009605423039596524,0.7983487314618599,0.050740458445183996,0.006820815204327739
0.014999999999999902,0.0087,-0.236,0.009033220604251211,0.8065287380734303,0.04534027991517364,0.0073548953719052455
0.016000000000000014,-0.000999999999998801,0.764,0.008608272880640352,0.8345848851773531,0.04132982237135828,0.009186707063309933
0.016999999999999904,0.0044,-1.236,0.008378627851804248,0.8919028381563139,0.03916254016904478,0.012929049018009911
0.018000000000000016,-0.00029999999999904517,0.7639999999999966,0.008577423816047662,0.983547066373896,0.04103868335132979,0.018912585106443596
0.018999999999999906,0.004,-0.236,0.008921511788113522,1.0326294465671069,0.04428602443973937,0.022117218926863025
0.020000000000000018,-0.005199999999997513,0.764,0.008992477702442183,1.0389665452886576,0.04495576749437862,0.022530973940504913
0.020999999999999908,0.006,-0.236,0.009020827765413268,1.146772378914363,0.0452233221077883,0.029569716135066045
0.02200000000000002,-0.001599999999999778,-1.236,0.008988193839379897,1.287558495345414,0.044915338401621444,0.03876177137738414
0.02299999999999991,-0.0006,-0.236,0.009172109040079986,1.344008073883718,0.046651043908648514,0.0424474163648555
0.02400000000000002,-0.011799999999999046,-0.236,0.009335437614856276,1.3739810563867734,0.04819246248424727,0.04440438000537221
0.02499999999999991,-0.0075,-0.236,0.009585270632451967,1.4270160360129767,0.05055026946717941,0.04786708268414114
0.026000000000000023,-0.0037999999999992007,0.7639999999999931,0.009782931929055825,1.439012308703403,0.05241570418783033,0.048650330379778194
0.026999999999999913,-0.0002,-1.236,0.009906256249330024,1.4415455244556876,0.053579581349889153,0.04881572636999371
0.028000000000000025,-0.0011999999999989562,1.764,0.00997265810594277,1.4416192252023994,0.05420625096589067,0.048820538359644026
0.028999999999999915,0.0035,-0.236,0.009975651389049161,1.453494976955502,0.05423450016961106,0.049595917132252164
0.030000000000000027,-0.010299999999996937,1.764,0.009982503565963639,1.4560029953654634,0.05429916780534921,0.049759667964774115
0.030999999999999917,0.0035,0.764,0.009982028323045233,1.4560759643329546,0.054294682685318285,0.049764432175884964
0.031999999999999806,0.0017,1.764,0.009980687930881865,1.4561489296439036,0.05428203269200246,0.049769196148256804
0.03299999999999992,0.0003,0.764,0.009989232835680454,1.4586523848338273,0.054362675500533114,0.04993264904393857
0.03399999999999981,-0.0073,-0.236,0.009983578857834676,1.461151550750208,0.054309315906295286,0.050095821888999185
0.03499999999999992,-0.0062,-1.236,0.009981073229638314,1.4612242626149758,0.05428566896116821,0.05010056931363637
0.03599999999999981,-0.004,-0.23600000000000693,0.009967264840781769,1.4657094712002918,0.05415535185583792,0.05039341271421227
0.03699999999999992,-0.0004,-1.236,0.00996401265305979,1.481333041282214,0.05412465923164243,0.051413489998221956
0.03799999999999981,0.0098,1.764,0.010025092644133567,1.4814047625781943,0.054701103573775965,0.051418172747710426
0.038999999999999924,0.0061,0.764,0.010392511705071956,1.4858290544005779,0.05816863254924891,0.05170703883671433
0.039999999999999813,-0.0026,-1.236,0.01048007411182229,1.4882825851898023,0.05899500552454712,0.05186723212228112
0.040999999999999925,0.0028,-0.236,0.01047507272481903,1.4907320778253772,0.058947804776967316,0.05202716175307595
0.041999999999999815,-0.0037,-0.236,0.010497016683235098,1.4931775521805477,0.05915490157659974,0.0521868290266413
0.04299999999999993,0.0024,-0.23600000000000693,0.010466441117305979,1.4975670638230034,0.058866343708834465,0.05247342428565614
0.04399999999999982,0.0031,-1.236,0.01046492451625617,1.4976380076782219,0.05885203073859548,0.05247805627532105
0.04499999999999993,-0.002,1.764,0.01043424246300661,1.500072223768149,0.05856246789338508,0.05263698848637687
0.04599999999999982,-0.0071,-0.236,0.010348613241432953,1.5001430491508674,0.05775433941416163,0.05264161274086311
0.04699999999999993,-0.0085,-0.236,0.010354697138468113,1.500213871189906,0.057811756384308285,0.05264623677703741
0.04799999999999982,-0.0002,-0.236,0.010294907157293365,1.5045828550206741,0.05724748655128189,0.052931491756315736
0.04899999999999993,-0.0115,-1.236,0.010315139672281414,1.5089391889449097,0.057438431549585924,0.05321592081154271
0.04999999999999982,-0.0129,-1.236,0.010333593672499803,1.5113552032570132,0.0576125917586595,0.05337366461175586
0.050999999999999934,-0.0064,-0.23600000000001387,0.010331217485321845,1.538001397808922,0.05759016641722601,0.055113419202107494
0.051999999999999824,0.0023,-2.235999999999993,0.010357435992749213,1.5814143084843753,0.057837604407965676,0.05794788813466038
0.052999999999999936,-0.0032,-1.236,0.010355546318377182,1.579569682301443,0.05781977054648204,0.0578274507917975
0.053999999999999826,0.0015,0.764,0.010352823477157129,1.5881199464553248,0.057794073646593294,0.05838570541541577
0.05499999999999994,0.0098,-0.236,0.010320322414005281,1.5858878841979596,0.05748734383806112,0.05823997201432403
0.05599999999999983,0.0022,0.764,0.010278077915779634,1.5899546528635644,0.05708866005372607,0.058505495087050274
0.05699999999999994,0.017,-0.236,0.010251478112899904,1.5858878841979596,0.056837623575129226,0.05823997201432403
0.05799999999999983,0.0192,0.764,0.01025083269621412,1.5818106600757451,0.05683153243480163,0.05797376629520355
0.05899999999999994,0.0134,-0.236,0.010153122174089549,1.5777228994385062,0.05590938630060214,0.057706872637310266
0.05999999999999983,0.0007,-0.236,0.010018427860727708,1.5736245201750099,0.05463820447018552,0.05743928567952612
0.06099999999999994,-0.0073,0.764,0.009938795298705382,1.5754761071908592,0.053886669654603744,0.05756017750158288
0.06199999999999983,-0.0029,0.764,0.010069116598696755,1.586283118013941,0.055116581033418044,0.058265777194282324
0.06299999999999994,-0.0065,-2.236,0.009915456905399595,1.586283118013941,0.05366641283172114,0.058265777194282324
0.06399999999999983,0.0022,-1.236,0.009414003857352082,1.584048467507433,0.04893393387566734,0.0581198748040196
0.06499999999999995,0.0055,-2.236,0.009109120842510662,1.5732261062052968,0.04605659080753118,0.057413272864400934
0.06599999999999984,0.0048,-3.236,0.009121408450537806,1.584048467507433,0.04617255549582077,0.0581198748040196
0.06699999999999995,0.0185,-4.236,0.009123881767990177,1.584048467507433,0.04619589750728239,0.0581198748040196
0.06799999999999984,0.0283,-3.236,0.009114126697543492,1.5822069123788498,0.046103833722280954,0.05799963797312442
0.06899999999999995,0.0116,-1.236,0.009114126697543494,1.5840484675074327,0.04610383372228097,0.05811987480401959
0.06999999999999984,0.0181,4.764,0.009134682909307587,1.5862831180139405,0.04629783361911786,0.058265777194282296
0.07099999999999995,-0.0,5.763999999999973,0.009132338749617183,1.5881199464553246,0.04627571053810825,0.05838570541541575
0.07199999999999984,-0.0221,3.763999999999986,0.00911488232749048,1.5921810139697934,0.04611096500373714,0.05865085625473209
0.07299999999999995,-0.0192,2.764,0.009129915040691073,1.6024842583197179,0.0462528367086778,0.059323564570299483
0.07399999999999984,-0.0218,3.764,0.009165303522646408,1.6046932358696722,0.046586816623232934,0.05946779074957736
0.07499999999999996,-0.0196,1.764,0.009132603418025397,1.6153047846807878,0.04627820835455803,0.060160628547444306
0.07599999999999985,-0.0174,0.764,0.00921471052187571,1.6174962536265822,0.04705309673668492,0.06030371157382662
0.07699999999999996,-0.0116,-0.236,0.00921832686933553,1.6174962536265822,0.04708722612989134,0.06030371157382662
0.07799999999999985,-0.0025,1.764,0.00921881828315646,1.6156928224952896,0.047091863863324854,0.06018596389383662
0.07899999999999996,-0.004,0.764,0.00924589436168605,1.607289243907086,0.0473473952083883,0.05963728650593695
0.07999999999999985,0.0004,-0.236,0.009288197378278518,1.607289243907086,0.0477466312616558,0.05963728650593695
0.08099999999999996,-0.0007,-0.236,0.009305560336128837,1.5988414963641733,0.047910494723970826,0.059085725286293245
0.08199999999999985,-0.0043,0.764,0.009475931128169841,1.607289243907086,0.04951837444710668,0.05963728650593695
0.08299999999999996,-0.0097,0.764,0.00951269985168636,1.607289243907086,0.0498653804349263,0.05963728650593695
0.08399999999999985,-0.0007,-0.236,0.009512809851443125,1.6050838390863043,0.0498664185611,0.059493293593438155
0.08499999999999996,0.0004,-1.236,0.00949402140567826,1.6156928224952896,0.04968910201163363,0.06018596389383662
0.08599999999999985,-0.0029,-2.2359999999999727,0.00949071143272555,1.6156928224952898,0.049657864037500665,0.06018596389383663
0.08699999999999997,0.012,-0.23600000000001387,0.009505595980735639,1.6262325980097565,0.049798337428783035,0.06087411554704355
0.08799999999999986,0.0276,-1.236,0.00951848997949094,1.6244388658845643,0.0499200249486943,0.060757001124097154
0.08899999999999997,0.0138,0.764,0.00948633711089855,1.616080767137876,0.04961658123729855,0.060211293156948745
0.08999999999999986,0.0084,0.764,0.009478985729806442,1.6160807671378759,0.049547202346389825,0.06021129315694873
0.09099999999999997,0.0069,0.764,0.009478465350408131,1.612079907757779,0.04954229124940626,0.059950073362192845
0.09199999999999986,-0.0007,-1.236,0.009479189040998828,1.612079907757779,0.04954912110218012,0.059950073362192845
0.09299999999999997,0.0004,-0.236,0.009472556589131594,1.6160807671378763,0.04948652712850514,0.06021129315694876
0.09399999999999986,0.004,0.764,0.009501777282469943,1.6301987240045848,0.049762298343464295,0.06113306756707679
0.09499999999999997,0.0008,-0.236,0.009498013451667744,1.6284093606685461,0.049726777071562756,0.06101623838639901
0.09599999999999986,-0.0039,-0.236,0.009512675069746174,1.6284093606685461,0.04986514655458421,0.06101623838639901
0.09699999999999998,0.0022,-1.236,0.00948660539411154,1.6388673564629048,0.04961911316858241,0.061699050566339744
0.09799999999999986,-0.0069,-1.236,0.009449692779198837,1.6410273596631755,0.04927074920117317,0.06184007916520869
0.09899999999999998,0.0094,0.764,0.009450243553439404,1.6410273596631755,0.049275947150439155,0.06184007916520869
0.09999999999999987,-0.0018,2.764,0.009401330303615086,1.6410273596631757,0.048814326812568844,0.06184007916520871
0.10099999999999998,-0.0076,3.764,0.009328901543009607,1.6392498166325538,0.04813077810005606,0.061724021743161155
0.10199999999999987,-0.0022,0.7640000000000139,0.009319184126382031,1.6431845234928661,0.048039069674160016,0.06198092237895667
0.10299999999999998,-0.0007,1.7639999999999723,0.009470702738334443,1.6313519324464074,0.049469031353139244,0.06120836160864752
0.10399999999999987,0.0036,-0.23600000000001387,0.009509374781667761,1.6521644772328694,0.049833999981757866,0.06256723183150839
0.10499999999999998,0.0025,-1.236,0.009538195284544618,1.6500190534496193,0.05010599438661527,0.06242715513620813
0.10599999999999987,-0.0011,-0.236,0.00948785976410833,1.6539281404170478,0.04963095132498813,0.0626823830255947
0.10699999999999998,-0.0066,-0.236,0.009546135985702014,1.6556899249245396,0.05018093500422644,0.06279741155914939
0.10799999999999987,-0.004,-0.236,0.009394925482142128,1.6578280099515785,0.048753881107918985,0.06293700910029572
0.10899999999999999,-0.0102,-0.236,0.009219833189117876,1.6556899249245396,0.04710144207034438,0.06279741155914939
0.10999999999999988,-0.0081,-1.236,0.0091244252012341,1.6556899249245396,0.04620102617566102,0.06279741155914939
0.11099999999999999,-0.0164,1.764,0.009143404372074128,1.6595856544370478,0.04638014269903943,0.06305176732799853
0.11199999999999988,-0.002,0.764,0.009118682991751918,1.6595856544370478,0.04614683389257192,0.06305176732799853
0.11299999999999999,-0.0002,-0.236,0.00911433340213608,1.6595856544370475,0.04610578450339267,0.06305176732799851
0.11399999999999988,0.0052,-0.236,0.009091369051013284,1.6478708364624315,0.04588905771540879,0.06228689607004952
0.11499999999999999,0.0099,1.764,0.009127049894243601,1.643947346099253,0.0462257967987172,0.062030727769685184
0.11599999999999988,0.0023,0.764,0.009110581176966162,1.6321202853947152,0.0460703727600118,0.06125852808049492
0.11699999999999999,-0.0014,0.764,0.009103610525228303,1.605610722486523,0.04600458701439147,0.05952769429603473
0.11799999999999988,-0.0003,-1.2359999999999722,0.008955641399553195,1.5622078256954144,0.04460812372409997,0.056693879179216096
0.119,0.0073,0.7639999999999723,0.008505187741388389,1.53258984173768,0.04035695311851136,0.05476009372076915
0.11999999999999988,0.0047,-1.236,0.008425288719205186,1.5306863784473597,0.039602903576757546,0.054635814848960663
0.121,0.0021,-1.236,0.008228251229532758,1.4517499349913459,0.037743356053695956,0.04948198173477608
0.12199999999999989,-0.0055,-2.236,0.008293292577716686,1.328559511368264,0.03835718582849203,0.0414387654860879
0.123,-0.0081,0.764,0.007994352965944009,1.2715077832689614,0.03553593381426348,0.037713805599042985
0.12399999999999989,-0.0089,1.764,0.007787266212025578,1.2391441779161125,0.03358154604294095,0.03560075599027946
0.125,-0.0144,0.764,0.007476932549909446,1.1777690611193117,0.030652762319244152,0.031593518072212355
0.1259999999999999,-0.0046,0.764,0.007324973925643986,1.1687113467746066,0.029218648010183187,0.03100213155814198
0.127,-0.001,0.764,0.0072016660156720876,1.17120324705533,0.028054925720869883,0.03116483002315699
0.1279999999999999,-0.0072,0.764,0.007108404512759746,1.1767040676523408,0.027174767345801456,0.03152398366761858
0.129,0.009500000000000489,-0.236,0.007116331062170257,1.1620943578999074,0.027249574405855084,0.030570102258549593
0.1299999999999999,0.0117,0.764,0.007108179498072004,1.1786473380161888,0.027172643762589255,0.03165086157993032
0.131,0.018199999999997846,1.764,0.007108798813853952,1.1841135774617504,0.02717848857481371,0.032007757389155574
0.1319999999999999,0.0085,1.764,0.007148297197892701,1.1841135774617506,0.027551255819901435,0.03200775738915559
0.133,-0.0005999999999989563,-0.236,0.007153287860454352,1.1865731322436466,0.027598355355225312,0.03216834398675356
0.1339999999999999,0.0041,1.764,0.007093339166278525,1.21742554775611,0.027032587663245657,0.03418272661864046
0.135,0.005600000000000222,-1.236,0.00711086535653311,1.222718439071678,0.027197991636524046,0.03452830436875984
0.1359999999999999,0.0066,1.764,0.007123927099044739,1.220331736624369,0.02732126224342605,0.03437247436720293
0.137,-0.005000000000000222,0.764,0.007118236877255375,1.2155442730506292,0.027267560595827543,0.03405989645997759
0.1379999999999999,-0.006,0.764,0.007039437989110068,1.2155442730506292,0.026523893603753006,0.03405989645997759
0.139,-0.004899999999999445,0.764,0.00648474133531395,1.2102200059615467,0.02128892643922026,0.033712270156700225
0.1399999999999999,-0.0024,-0.236,0.0063371640195283305,1.2072894763668665,0.019896160867117933,0.03352093317968558
0.14100000000000001,-0.0030999999999991117,-0.23600000000002774,0.006300141782743466,1.2072894763668665,0.01954676233983286,0.03352093317968558
0.1419999999999999,0.0009,-1.2360000000000277,0.006267834784787221,1.21845494903569,0.01924186402770471,0.034249937176529854
0.14300000000000002,0.007799999999998623,-2.235999999999917,0.006270779416074969,1.21845494903569,0.019269654078352256,0.034249937176529854
0.1439999999999999,0.0016,0.7640000000000278,0.0062989488510894285,1.21845494903569,0.01953550400972454,0.034249937176529854
0.14500000000000002,0.00559999999999889,1.764,0.00637587163077772,1.2208453205311471,0.02026146516906624,0.03440600673362049
0.1459999999999999,0.0006,1.764,0.006407033749222322,1.2237433880296076,0.02055555864469541,0.03459522423046693
0.14700000000000002,0.0012999999999999334,0.764,0.0063959444540173105,1.2237433880296076,0.02045090307145775,0.03459522423046693
0.1479999999999999,0.001,-0.236,0.006392064319350519,1.2237433880296076,0.02041428417816606,0.03459522423046693
0.14900000000000002,-0.006299999999999822,-1.236,0.006390997866469737,1.2371189500863689,0.020404219495469292,0.0354685269995153
0.1499999999999999,-0.0055,0.764,0.006438906234545363,1.2394733278679428,0.020856356230143792,0.03562224649386696
0.15100000000000002,0.0047000000000027315,-1.236,0.00644869205607771,1.2115922573879792,0.02094871022948601,0.03380186571653154
0.1519999999999999,0.017,0.764,0.006414451300218126,1.1685239833491647,0.020625562016157166,0.030989898427484557
0.15300000000000002,0.009099999999996292,2.764,0.0065090357220375155,1.1685239833491647,0.021518205480133806,0.030989898427484557
0.15399999999999991,-0.0076,-0.236,0.006571087450484143,1.153810700893103,0.022103820624370808,0.030029254661178343
0.15500000000000003,-0.001000000000002176,-1.236,0.0066616379469271216,1.168523983349166,0.022958393790383388,0.030989898427484647
0.15599999999999992,-0.0108,-1.236,0.006794998816643233,1.22510049182878,0.024216991204338546,0.034683830787759544
0.15700000000000003,0.0019000000000010436,0.764,0.006889698268539795,1.2842155377554991,0.025110720268296385,0.03854350659660745
0.15799999999999992,0.0066,-0.236,0.006925667607213431,1.286970912839925,0.025450182036449855,0.03872340757428484
0.1589999999999998,0.0023,-0.236,0.006950315125510337,1.3001781788135034,0.025682793767724053,0.03958572213701786
0.15999999999999992,0.0059,-1.236,0.006892761135332689,1.3560241992664925,0.025139626170252723,0.043231960261065454
0.1609999999999998,-0.0028,0.764,0.006877783116662415,1.3638384721976726,0.024998270646666917,0.04374216133971468
0.16199999999999992,0.0005,0.764,0.006697922009706959,1.3638384721976726,0.02330082577721507,0.04374216133971468
0.1629999999999998,-0.0001,0.764,0.006695055910538573,1.3612386988192404,0.023273776875920797,0.043572419740771154
0.16399999999999992,-0.0084,-0.236,0.0066961719046281405,1.3612386988192404,0.02328430910533794,0.043572419740771154
0.1649999999999998,-0.0008,0.764,0.006693164297274082,1.3612386988192402,0.023255924716078413,0.04357241974077113
0.16599999999999993,-0.0033,-1.236,0.0066446957931518445,1.3655154568255772,0.022798501679798133,0.043851653211008444
0.16699999999999982,0.0087,1.764,0.006734945189281498,1.3676488206636959,0.023650233202107435,0.04399094250138073
0.16799999999999993,0.004,0.764,0.006736939069812079,1.3697788618956097,0.02366905051249891,0.04413001485573291
0.16899999999999982,-0.0003,0.764,0.006737679503727342,1.367648820663696,0.02367603838092642,0.04399094250138074
0.16999999999999993,0.0008,-0.236,0.006701045950939241,1.3650563041792145,0.023330308071119334,0.04382167471172873
0.17099999999999982,-0.0104,-0.236,0.006690309034190567,1.3603173514525202,0.02322897808067687,0.04351226412239805
0.17199999999999993,0.0001,-0.236,0.006689997571484255,1.3555618317679878,0.023226038641562967,0.04320177186112767
0.17299999999999982,-0.0064,-0.236,0.006667631565843073,1.3411941056373355,0.02301495875793277,0.042263689785654465
0.17399999999999993,-0.0003,-0.23600000000002774,0.006638792603065802,1.3433660941193826,0.022742790137183014,0.04240550091461214
0.17499999999999982,-0.0126,-1.236,0.00659446250674124,1.3305875757208916,0.0223244234550127,0.04157117967604433
0.17599999999999993,-0.0111,-1.236,0.006437978833894483,1.3305875757208916,0.020847603857252244,0.04157117967604433
0.17699999999999982,-0.0006,-1.236,0.006422443625563544,1.327922706176612,0.020700989838670948,0.04139718788846216
0.17799999999999994,-0.0042,-0.236,0.006432751593319473,1.325252478019201,0.02079827160946596,0.041222846232091985
0.17899999999999983,0.002,-2.236,0.006414364732768281,1.3225768587922024,0.020624745033119035,0.04104815258782185
0.17999999999999994,0.001,-1.236,0.006362530336392127,1.335432032557036,0.020135556282537034,0.04188747872587765
0.18099999999999983,0.0075,-0.236,0.006260752566219762,1.3354320325570357,0.01917502536661136,0.041887478725877635
0.18199999999999994,0.005,-1.236,0.0059924724158594385,1.3274505506154517,0.01664312298641707,0.04136636041689626
0.18299999999999983,0.0028,2.764,0.005931668079278095,1.3274505506154517,0.01606928014224962,0.04136636041689626
0.18399999999999994,0.005,-1.236,0.006028316897695694,1.3301163661171338,0.01698140641422996,0.041540413966908704
0.18499999999999983,0.0043,0.764,0.006016435120705194,1.3172093156540772,0.016869271769148014,0.04069770075143402
0.18599999999999994,0.0003,1.764,0.005993120664637668,1.3149941244783756,0.016649240854706444,0.04055306887880675
0.18699999999999983,-0.0058,-0.236,0.005979243327530104,1.3149941244783745,0.016518273048082625,0.04055306887880668
0.18799999999999994,-0.0037,-0.236,0.006073015534018657,1.3172093156540758,0.017403251204258393,0.04069770075143393
0.18899999999999983,-0.0015,-0.236,0.006402491788338914,1.3172093156540754,0.020512693745611356,0.040697700751433905
0.18999999999999995,0.0049,0.764,0.00647692525877871,1.3194207877243371,0.02121516197041116,0.040842089800240754
0.19099999999999984,0.0027,1.764,0.006475198406310574,1.3194207877243371,0.021198864745780695,0.040842089800240754
0.19199999999999995,0.002,-1.236,0.006504277874893761,1.3194207877243371,0.02147330314765899,0.040842089800240754
0.19299999999999984,-0.006,-0.236,0.006582586261613969,1.3515554183652045,0.022212341017064447,0.042940189439113895
0.19399999999999995,-0.0107,-1.236,0.006744954603067987,1.3515554183652059,0.023744697360399893,0.042940189439113985
0.19499999999999984,-0.0064,0.764,0.006853636607890509,1.3515554183652059,0.02477038720858602,0.042940189439113985
0.19599999999999995,-0.0009,-0.236,0.0068463629543595705,1.3414982168564231,0.02470174187398725,0.042283545487314014
0.19699999999999984,-0.0002,-1.236,0.006920664348237347,1.3287017346501044,0.025402963622067492,0.0414480513751838
0.19799999999999995,-0.0068,-2.236,0.007028443379347969,1.3260330752205287,0.026420131627369076,0.041273812142499186
0.19899999999999984,-0.0123,-1.236,0.007170378087352473,1.3308941105495318,0.02775964491057742,0.04159119361740434
0.19999999999999996,-0.004,-1.236,0.007196140763742002,1.3287017346501042,0.02800278098152123,0.041448051375183786
0.20099999999999985,0.0036,-2.236,0.007236222128834084,1.3388550641296388,0.028381050128686157,0.042110971610752945
0.20199999999999996,-0.0113,0.764,0.007225523780404238,1.3366757456138514,0.028280084127969018,0.04196868189713949
0.20299999999999985,0.009,-0.236,0.007073932603260532,1.3366757456138514,0.02684943761270835,0.04196868189713949
0.20399999999999996,0.0115,1.7640000000000555,0.0071603189765818975,1.3086377966211962,0.027664711735430277,0.04013805837718464
0.20499999999999985,0.0136,3.764,0.007230269325624298,1.3086377966211962,0.02832487036065098,0.04013805837718464
0.20599999999999996,0.0114,3.7639999999999167,0.007271217697099165,1.3036937776291497,0.028711321907897575,0.039815258822469904
0.20699999999999985,0.0096,0.7640000000000278,0.007249254186653646,1.3014555820294942,0.02850404058537057,0.03966912496980963
0.20799999999999996,-0.0071,1.7640000000000555,0.007358265331328483,1.3014555820294942,0.029532836701293513,0.03966912496980963
0.20899999999999985,-0.0049,3.764,0.007328896444578056,1.3014555820294942,0.029255666906334063,0.03966912496980963
0.20999999999999996,-0.0067,1.764,0.007352511255048633,1.3041745339789121,0.02947853242492717,0.0398466478474472
0.21099999999999985,-0.0049,1.764,0.007344667138331935,1.3041745339789121,0.029404503326021215,0.0398466478474472
0.21199999999999997,-0.0002,-0.236,0.007434244109717612,1.3064080713591546,0.030249888818601932,0.039992477560670564
0.21299999999999986,0.0012,-0.236,0.007656787480468744,1.3086377966211962,0.032350148898762456,0.04013805837718464
0.21399999999999997,0.0048,-0.236,0.007758691597228679,1.3108637292178056,0.03331187221459311,0.04028339156707862
0.21499999999999986,0.0058,-2.236,0.007724696038951179,1.3157808075418296,0.03299103806117836,0.04060443214075883
0.21599999999999997,0.0112,-1.236,0.007757187554018352,1.3130858884368708,0.033297677759360295,0.04042847838967648
0.21699999999999986,0.0021,-1.236,0.007751455489617767,1.3108637292178058,0.03324358122079874,0.040283391567078636
0.21799999999999997,0.001,0.764,0.007772445505639733,1.3108637292178058,0.03344167515900086,0.040283391567078636
0.21899999999999986,0.0021,-0.236,0.007762454719952388,1.3108637292178056,0.033347386803981575,0.04028339156707862
0.21999999999999997,0.0028,-0.236,0.007845184159538103,1.3081586805488963,0.03412814849923888,0.04010677644743399
0.22099999999999986,0.002,-0.236,0.007943175778722028,1.3081586805488963,0.035052947495801415,0.04010677644743399
0.22199999999999998,-0.0001,0.764,0.007900133389915067,1.3211541543900909,0.0346467335939409,0.04095526290672817
0.22299999999999986,-0.0052,-1.236,0.007916996390904573,1.3515554183652057,0.03480587869761408,0.04294018943911397
0.22399999999999998,-0.0045,-0.236,0.00795279639660551,1.3515554183652057,0.03514374238049719,0.04294018943911397
0.22499999999999987,-0.0016,0.764,0.007961986978929097,1.356324985329461,0.035230478791033734,0.043251598860218655
0.22599999999999998,0.0009,-0.236,0.008057518944294169,1.3541737820515243,0.03613206472710691,0.0431111448163859
0.22699999999999987,-0.0038,-0.236,0.00802772710295256,1.3520191559894763,0.0358509032848538,0.04297046729582525
0.22799999999999998,-0.0053,-0.236,0.008089990969660545,1.4012061638386453,0.03643852049062289,0.04618193235229139
0.22899999999999987,-0.005,1.764,0.008083227953307879,1.4012061638386455,0.03637469431049884,0.046181932352291406
0.22999999999999998,0.003,0.764,0.008090893565498762,1.3894111330570216,0.036447038767312645,0.04541182392627607
0.23099999999999987,0.0019,-1.236,0.00812647458016981,1.3970386701566089,0.0367828357154445,0.04590983285044846
0.23199999999999998,-0.0006,1.764,0.008105313074765126,1.4092147501639745,0.03658312334078446,0.04670482033145766
0.23299999999999987,-0.0108,0.764,0.008112887412723768,1.4167356709456633,0.03665460639415283,0.04719586817801318
0.23399999999999999,-0.0017,-0.236,0.00817521064720297,1.3877630244676893,0.037242783885135175,0.04530421739814301
0.23499999999999988,0.0019,0.7640000000000278,0.008175832470925983,1.3831018744702401,0.03724865236613253,0.04499988662068125
0.236,0.0052,1.7639999999999167,0.008237225830465603,1.3805383776192928,0.037828054133045644,0.0448325135496373
0.23699999999999988,0.0117,-1.2359999999999445,0.008335001813372352,1.3681071032316667,0.03875081805544147,0.044020864192440674
0.238,0.0211,0.7639999999999445,0.00831644637353656,1.3728191661065763,0.03857570050677938,0.044328519118575785
0.23899999999999988,0.0109,-1.2359999999999722,0.008330477842701979,1.3852081536708898,0.038708122939560316,0.04513740753012121
0.24,0.0018,-0.236,0.00832935834370707,1.389862239904708,0.03869755763248848,0.045441277107947944
0.24099999999999988,-0.0069,-0.236,0.008320759919072296,1.389862239904708,0.0386164097288159,0.045441277107947944
0.242,-0.0102,-3.236,0.008316278705146061,1.3775151105327903,0.03857411813105604,0.0446351216563463
0.24299999999999988,-0.0167,-2.236,0.00833813074466353,1.3775151105327903,0.038780347443183934,0.0446351216563463
0.244,-0.0123,0.764,0.008325281291238787,1.3821951007953914,0.03865908032123471,0.0449406825320766
0.24499999999999988,-0.0047,0.764,0.008413447445630247,1.412902732142597,0.039491151183937374,0.04694561207243004
0.246,0.0101,-0.236,0.008456860934211588,1.4149646512649174,0.03990086735162256,0.04708023667148873
0.2469999999999999,0.0123,-0.236,0.008456654708464486,1.4149646512649172,0.03989892108963022,0.047080236671488716
0.248,0.0142,-1.236,0.008513998156391908,1.412902732142597,0.04044010168797485,0.04694561207243004
0.2489999999999999,0.0087,0.764,0.008490557786486178,1.3991239686840353,0.04021888245771408,0.046045983912405025
0.25,-0.0094,1.764,0.00841924932806462,1.3945007934130222,0.039545906632394774,0.04574413253981686
0.2509999999999999,0.0026,0.764,0.008424952892077167,1.3924085711443734,0.039599734197645356,0.04560752942041732
0.252,-0.0086,0.764,0.00843943232074213,1.375852751991681,0.03973638426233122,0.04452658473573382
0.2529999999999999,-0.0144,0.764,0.008367731369631275,1.375852751991681,0.039059704274878024,0.04452658473573382
0.254,-0.012599999999998935,-0.236,0.00832006014520341,1.378424962863944,0.038609805590858436,0.044694526753257344
0.2549999999999999,-0.0078,-0.236,0.00834743683172471,1.3784249628639433,0.038868173933324375,0.0446945267532573
0.256,-0.0092000000000008,0.764,0.008264483129856668,1.3235244787736002,0.038085295755704705,0.04111002356941114
0.2569999999999999,-0.0128,0.764,0.0084338002064776,1.2662459135489454,0.03968323100633098,0.037370253277476145
0.258,0.000900000000001199,-0.236,0.008386912745396031,1.2662459135489452,0.03924072911361082,0.037370253277476125
0.2589999999999999,0.0063,0.764,0.008378130820460924,1.2555055278635843,0.039157849420066504,0.036669003601397514
0.26,-0.004899999999996292,-1.236,0.0083639972124632,1.1949710449054756,0.03902446304883438,0.032716651441100454
0.2609999999999999,0.0118,-1.236,0.008338860243578482,1.1805874097226845,0.03878723211220114,0.03177753064895674
0.262,0.018299999999998713,-1.236,0.00833029438609791,1.1855160478298825,0.03870639156207347,0.032099325971529945
0.2629999999999999,0.0125,-1.236,0.008331345422958698,1.1855160478298825,0.03871631075559533,0.032099325971529945
0.264,-0.0041999999999974905,-1.236,0.008345626416507594,1.1855160478298825,0.03885108808261496,0.032099325971529945
0.2649999999999999,0.0071,-0.236,0.00837656685674418,1.1855160478298825,0.03914308946316457,0.032099325971529945
0.266,0.0013000000000020205,0.764,0.00835634065330892,1.1660263572616834,0.03895220403033904,0.03082682611927136
0.2669999999999999,0.0104,1.764,0.00829638557790287,1.1604749238619223,0.038386376115297896,0.030464367918290693
0.268,-0.0009000000000023314,0.764,0.008439705068048234,1.1579599367331759,0.039738958323634645,0.03030016209169928
0.2689999999999999,-0.0114,-0.236,0.008465104828648855,1.1695964253375966,0.039978669365374794,0.031059919152906547
0.27,-0.012499999999998623,-0.236,0.008464937457933924,1.1726211584505317,0.039977089798974,0.03125740676441393
0.2709999999999999,-0.0063,1.764,0.008548653620554604,1.1781153585971467,0.04076716372399361,0.03161612815357001
0.272,-0.005200000000001043,2.764,0.008552473501821933,1.1781153585971469,0.04080321397392757,0.031616128153570025
0.2729999999999999,-0.0099,-0.236,0.00856360916550833,1.1751047677033315,0.04090830715117071,0.031419563900577624
0.274,0.0038000000000030644,-1.236,0.008631362245736346,1.172621158450532,0.04154772898265697,0.03125740676441394
0.2749999999999999,0.0176,0.764,0.008670536797586096,1.1781153585971469,0.041917440051247805,0.031616128153570025
0.276,0.00860000000000031,0.764,0.008669432512451355,1.1751047677033315,0.041907018325461134,0.031419563900577624
0.2769999999999999,0.01,3.764,0.008673666834776056,1.1751047677033315,0.04194697987594491,0.031419563900577624
0.278,0.0024999999999985346,-0.236,0.008706430225672936,1.1751047677033315,0.042256185410844284,0.031419563900577624
0.2789999999999999,-0.0041,-1.236,0.008707040818096846,1.1781153585971469,0.04226194789610214,0.031616128153570025
0.28,-0.007699999999997247,1.764,0.008692876428423806,1.1635233697677574,0.04212827102183841,0.030663403759892148
0.2809999999999999,0.0047,1.764,0.008700103774026515,1.160474923861922,0.04219647932390403,0.03046436791829068
0.28200000000000003,0.006099999999996314,1.763999999999889,0.008702900685627605,1.160474923861922,0.04222287526534987,0.03046436791829068
0.2829999999999999,-0.0105,-0.236,0.008704648157166274,1.1456582748557997,0.042239367083108784,0.029496975254703607
0.28400000000000003,0.005100000000001288,-0.236,0.008642791357627229,1.1456582748557997,0.04165559158658487,0.029496975254703607
0.2849999999999999,0.0109,-0.236,0.008641262611219669,1.1512811557834968,0.041641163994149064,0.02986409833060492
0.2859999999999998,0.0127,-0.2360000000000555,0.00864996177518859,1.1482002075329896,0.04172326262846483,0.029662940380976735
0.2869999999999999,0.0015,-1.2359999999998335,0.008648774698141369,1.1363446367609695,0.04171205955139299,0.028888879243215395
0.2879999999999998,-0.0061,1.7639999999998335,0.008573493993706075,1.1306474767047439,0.04100159552904014,0.0285169064145821
0.2889999999999999,0.0005,-1.236,0.008345784937004023,1.1332230806033023,0.03885258412479952,0.028685069965918315
0.2899999999999998,-0.0032,0.764,0.008274822977013225,1.1306474767047445,0.038182878389348564,0.028516906414582145
0.2909999999999999,0.0001,-0.236,0.008296489047414179,1.1306474767047445,0.03838735261207416,0.028516906414582145
0.2919999999999998,-0.0064,-1.236,0.008304421913372608,1.1306474767047445,0.038462219284747974,0.028516906414582145
0.2929999999999999,-0.0038,-1.236,0.008242132141110085,1.0920315392632087,0.03787435759449089,0.02599563628372847
0.2939999999999998,-0.0162,-3.236,0.008077692596059281,1.0768553597530897,0.03632245420188802,0.025004769542314592
0.29499999999999993,-0.0107,-1.236,0.008056278897483093,1.089358549290517,0.0361203617462181,0.025821114305894254
0.2959999999999998,0.0006,-0.236,0.008065598870693831,1.1017198518660363,0.036208319287332945,0.026628195139016247
0.29699999999999993,-0.0099,0.764,0.00802292241537643,1.1049304118717636,0.03580555889432115,0.026837815559548804
0.2979999999999998,0.0024,0.764,0.00793051079311278,1.1202858480074949,0.034933421294678774,0.027840386131190758
0.29899999999999993,-0.0055,-0.236,0.007804648486150273,1.1297318843407127,0.033745591803204605,0.028457126545636424
0.2999999999999998,0.005,0.764,0.007786850823716611,1.1265920057468162,0.03357762580267434,0.028252120979598214
0.30099999999999993,0.0061,-0.236,0.0077308007608452465,1.1145066012946045,0.03304865156658775,0.027463053789120725
0.3019999999999998,0.0025,0.764,0.007845680449752099,1.114506601294604,0.03413283225378575,0.027463053789120694
0.30299999999999994,0.0014,0.764,0.0077987927851806,1.1113237067775825,0.03369032844062296,0.027255239673832827
0.3039999999999998,-0.0134,1.764,0.007667070075801887,1.1113237067775825,0.032447191216517214,0.027255239673832827
0.30499999999999994,0.0069,-0.236,0.007589862628336764,1.131755810711436,0.03171854349605365,0.02858927056294217
0.3059999999999998,0.0203,-0.236,0.007565481841685106,1.131755810711436,0.03148844905309381,0.02858927056294217
0.30699999999999994,0.0037,0.764,0.007547767548154494,1.1317558107114358,0.03132126984921541,0.028589270562942155
0.30799999999999983,0.0059,0.764,0.0074940637321630746,1.1436589518569262,0.03081443839205554,0.029366437614212027
0.30899999999999994,0.0001,-0.236,0.007532595110726837,1.149291614464797,0.031178079492475117,0.029734199345023356
0.30999999999999983,-0.0016,-0.236,0.007516925740317593,1.1610149861920316,0.031030199315048544,0.03049962908536103
0.31099999999999994,-0.0031,-2.236,0.00751892746247292,1.1610149861920314,0.031049090631020876,0.030499629085361017
0.31199999999999983,0.0013,-0.236,0.007451614506146773,1.1554394753711101,0.030413822482739376,0.030135598847371253
0.31299999999999994,0.005,-0.236,0.00722256739975463,1.1554394753711101,0.02825218319234836,0.030135598847371253
0.31399999999999983,-0.0087,-0.236,0.0071267885514413685,1.1554394753711101,0.027348267290665317,0.030135598847371253
0.31499999999999995,0.0004,-0.236,0.007145460197893443,1.1498369294509765,0.027524481542933552,0.02976980346284757
0.31599999999999984,0.0051,-0.236,0.007125057220253672,1.1554394753711101,0.027331927797977745,0.030135598847371253
0.31699999999999995,0.0156,0.764,0.007131144526337705,1.1579599367331754,0.027389376941130656,0.030300162091699247
0.31799999999999984,0.0066,1.764,0.0071868455284802985,1.185516047829882,0.027915056905580597,0.03209932597152992
0.31899999999999995,-0.0021,0.764,0.007221644270578073,1.2017464584562059,0.028243471131630445,0.033159024433741136
0.31999999999999984,-0.0123,-1.236,0.007157114302771659,1.2206659593210858,0.027634467525275368,0.034394296074977376
0.32099999999999995,-0.0033,-0.236,0.007178369863777383,1.2345827434449395,0.027835067552636605,0.035302935731392135
0.32199999999999984,-0.0044,-0.236,0.007165324855434732,1.2345827434449395,0.0277119548749821,0.035302935731392135
0.32299999999999995,-0.012,0.764,0.007289641511438982,1.2345827434449395,0.02888519723679011,0.035302935731392135
0.32399999999999984,-0.0094,-1.236,0.0072232110507994005,1.2932644287791906,0.02825825766938321,0.039134317027920286
0.32499999999999996,0.0007,-0.236,0.0072199761238470475,1.3446024684502418,0.028227727944245454,0.04248622493369543
0.32599999999999985,-0.0029,-0.236,0.0070691137638381535,1.3719055959974977,0.026803959663680415,0.044268871284518986
0.32699999999999996,0.0084,-0.236,0.007027394156174958,1.3817414908052206,0.026410229550582795,0.044911065917925874
0.32799999999999985,-0.0054,0.764,0.006958766967820141,1.3269782270554027,0.025762558296081737,0.04133552197652813
0.32899999999999996,0.0001,-0.236,0.007012583192758586,1.3269782270554027,0.026270450616224378,0.04133552197652813
0.32999999999999985,-0.0047,-0.236,0.007079588487005274,1.3221027940982817,0.02690281519392777,0.041017200467219204
0.33099999999999996,0.0029,-1.236,0.007040174264123954,1.3118198104461982,0.026530842222417608,0.040345814991279205
0.33199999999999985,0.0018,-0.236,0.007050971436640965,1.3362066829881458,0.026632740878574136,0.04193805636617881
0.33299999999999996,0.0029,0.764,0.0070377989611187285,1.3260330752205254,0.026508425225392162,0.04127381214249897
0.33399999999999985,-0.0004,-1.236,0.007004614768447743,1.3260330752205254,0.026195248360478193,0.04127381214249897
0.33499999999999996,0.0043,-0.236,0.006993257194664645,1.3308941105495284,0.026088060899698718,0.041591193617404126
0.33599999999999985,0.005,0.764,0.00692104210471255,1.3308941105495284,0.025406528710716112,0.041591193617404126
0.33699999999999997,0.0028,-0.236,0.0068107289752369505,1.33355304228171,0.024365445072173253,0.041764797719764137
0.33799999999999986,0.0078,-1.236,0.006843534319894186,1.3414982168564211,0.024675046547009135,0.04228354548731388
0.33899999999999997,-0.0013,0.764,0.006891987801846063,1.3313650448864807,0.025132327811082864,0.041621941354116426
0.33999999999999986,-0.0063,-0.236,0.00689217170373811,1.3291734457595619,0.02513406339098906,0.041478849828088575
0.34099999999999997,-0.0078,-0.236,0.006955229006859478,1.326505735317026,0.025729168677933296,0.041304672555642054
0.34199999999999986,0.0005,-1.236,0.006982496698741593,1.326505735317026,0.025986508380054403,0.041304672555642054
0.34299999999999997,-0.0031,-1.236,0.006957671823284476,1.3216285593586221,0.02575222283498712,0.040986237244173614
0.34399999999999986,-0.0108,1.764,0.006956451843829289,1.334023037967847,0.025740709240402407,0.04179548417109998
0.345,-0.0061,1.7639999999999445,0.006967463761636155,1.309595502911445,0.025844634562004698,0.04020058790317092
0.34599999999999986,0.0058,0.7640000000000555,0.007041213514900237,1.3073674110259317,0.026540650184395248,0.04005511373131514
0.347,-0.0022,1.764,0.007049790372139302,1.3073674110259317,0.026621594545090624,0.04005511373131514
0.34799999999999986,0.0021,1.763999999999889,0.0069922426551498156,1.309595502911445,0.026078486151030405,0.04020058790317092
0.349,-0.007,-0.23599999999994448,0.007007077129159309,1.3068878292196684,0.0262184869673529,0.040023801393364956
0.34999999999999987,-0.0009,0.764,0.006986643162737707,1.309595502911445,0.02602564076479122,0.04020058790317092
0.351,0.0136,0.7639999999999445,0.006981533377296608,1.3068878292196684,0.02597741700353559,0.040023801393364956
0.35199999999999987,-0.0002,-0.236,0.007035363835020041,1.3068878292196684,0.026485443646035438,0.040023801393364956
0.353,0.0016,0.764,0.007081202215372975,1.3091167373445847,0.026918044806292604,0.04016932885824333
0.35399999999999987,0.0063,-2.236,0.007080882940659466,1.3113418569652093,0.026915031641114407,0.040314608968186304
0.355,0.0048,-0.236,0.0069537889717587315,1.2982481656687201,0.025715578301253376,0.03945970980075218
0.35599999999999987,-0.0076,0.764,0.006922122160502881,1.2982481656687201,0.025416721771300763,0.03945970980075218
0.357,-0.0091,1.764,0.006620613851782265,1.2982481656687204,0.022571227598613058,0.039459709800752196
0.3579999999999999,-0.0077,-1.236,0.006611422583548142,1.300491881364674,0.02248448471477418,0.03960620406558521
0.359,-0.0041,1.764,0.006625815839038953,1.2977652139012072,0.022620321517411217,0.03942817743492741
0.3599999999999999,-0.0052,-1.236,0.006631859251261318,1.302731732678936,0.022677356410860283,0.03975244602137749
0.361,-0.0063,-0.236,0.006632275893180363,1.3076793889349485,0.022681288482111556,0.04007548305640743
0.3619999999999999,0.0001,-1.236,0.006631676372808251,1.3076793889349476,0.02267563048969174,0.040075483056407374
0.363,0.0044,-1.236,0.006646734801634655,1.3126083959665555,0.022817744886662043,0.04039730246639517
0.3639999999999999,0.0066,-0.236,0.006631185861878625,1.3126083959665555,0.022671001277323393,0.04039730246639517
0.365,-0.0047,-1.236,0.006575731973686881,1.3175189630811805,0.022147653458578206,0.040717917917215206
0.3659999999999999,0.0032,-1.236,0.006576117460614185,1.3175189630811805,0.022151291503612343,0.040717917917215206
0.367,0.0137,-3.236,0.006571023405090555,1.3202048330323184,0.02210321619394893,0.040893280840707966
0.3679999999999999,0.0071,-2.236,0.006401628737272099,1.31751896308118,0.020504548673948905,0.04071791791721518
0.369,0.006,-2.236,0.006368359859375588,1.30719992158626,0.02019057258954819,0.04004417819149775
0.3699999999999999,0.0136,1.764,0.006396765294953239,1.3071999215862602,0.020458649783678718,0.04004417819149776
0.371,0.0045,1.764,0.006408541287974824,1.3049677395100199,0.020569786089217744,0.03989843696732129
0.3719999999999999,-0.0144,2.764,0.006416480684541249,1.3049677395100199,0.020644714394710488,0.03989843696732129
0.373,-0.001,3.764,0.006408792155826761,1.307679388934946,0.020572153662482412,0.04007548305640727
0.3739999999999999,-0.0032,3.764,0.006305620631599716,1.3049677395100199,0.019598469148708702,0.03989843696732129
0.375,-0.0098,2.764,0.006283846832455671,1.302731732678934,0.019392978232572584,0.039752446021377355
0.3759999999999999,-0.004,1.764,0.006283440444151826,1.302731732678934,0.01938914293013814,0.039752446021377355
0.377,-0.0022,-0.236,0.006282992223591367,1.3076793889349463,0.019384912834462583,0.040075483056407284
0.3779999999999999,0.009,-0.236,0.0062355928311889205,1.3126083959665547,0.018937579573756066,0.04039730246639511
0.379,0.01049999999999727,-0.236,0.006274003832892271,1.3099069501603953,0.019300084613758994,0.04022092258097859
0.3799999999999999,-0.0018,0.764,0.006286309555088856,1.3126083959665544,0.019416220255093986,0.0403973024663951
0.381,0.006099999999997669,-3.236,0.00626943530281338,1.3126083959665547,0.019256968967054613,0.04039730246639511
0.3819999999999999,-0.0044,0.764,0.006262888094681928,1.310385427013235,0.019195179483824546,0.040252162775501796
0.383,0.007899999999998956,-0.236,0.006300717658438891,1.3153042934033456,0.019552197184870723,0.04057332009366408
0.3839999999999999,0.0032,-1.236,0.006307005656878291,1.3126083959665544,0.01961154036845696,0.0403973024663951
0.385,-0.004399999999999756,-0.236,0.006380052273027598,1.3126083959665544,0.020300920112150882,0.0403973024663951
0.3859999999999999,-0.0033,0.764,0.006365631998931196,1.31751896308118,0.020164828320571457,0.04071791791721518
0.387,-0.006900000000000733,1.764,0.0064550955429236116,1.31751896308118,0.021009143338550938,0.04071791791721518
0.3879999999999999,-0.0102,0.764,0.006450052635767022,1.31751896308118,0.02096155074321461,0.04071791791721518
0.389,0.0006999999999976463,0.764,0.0064066760040197,1.3153042934033456,0.020552182413062902,0.04057332009366408
0.3899999999999999,-0.0099,-0.236,0.0064168869564862575,1.3255602465858194,0.020648548599004737,0.04124294072534119
0.391,-0.00619999999999809,-0.236,0.00645847237254202,1.355862720403068,0.021041012274574996,0.04322141715730854
0.3919999999999999,0.0024,-0.236,0.006424919758346066,1.355862720403068,0.02072435841989966,0.04322141715730854
0.393,0.0035000000000029088,-2.236,0.006459889846166186,1.355862720403068,0.021054389726608135,0.04322141715730854
0.3939999999999999,0.0166,1.764,0.006495287584688174,1.3558627204030678,0.02138845700030299,0.043221417157308525
0.395,0.014699999999997512,0.764,0.006423896117754361,1.3458377069674576,0.020714697779531298,0.042566874794459565
0.3959999999999999,0.0035,-0.236,0.006429839541750584,1.387605239130421,0.020770789030942666,0.04529391544811154
0.397,-0.004100000000000245,-1.236,0.006569132811778596,1.3876052391304208,0.022085373659940725,0.045293915448111524
0.3979999999999999,-0.0052,-0.236,0.006936070765529504,1.3876052391304208,0.02554836217115839,0.045293915448111524
0.399,0.001099999999998801,0.764,0.007179682766741142,1.3876052391304223,0.027847458115764136,0.04529391544811163
0.3999999999999999,-0.0043,-0.236,0.007214971977481186,1.3876052391304226,0.02818050115509408,0.04529391544811164
0.401,0.01059999999999951,-0.236,0.00722888818388353,1.3876052391304226,0.028311835791913268,0.04529391544811164
0.4019999999999999,0.0084,-1.236,0.007112989347417488,1.3876052391304228,0.02721803686748297,0.045293915448111656
0.403,-0.0012999999999996003,-1.236,0.007192016674007237,1.390155704497011,0.027963859754581547,0.045460437681536424
0.4039999999999999,0.0005,-0.236,0.007196558091913932,1.3876052391304228,0.028006719529305744,0.045293915448111656
0.405,0.001999999999999045,-0.236,0.007168763341497379,1.3735727315698822,0.027744405695643213,0.04437772010190431
0.4059999999999999,-0.0023,-0.236,0.007163437079629247,1.390155704497011,0.027694138931280105,0.045460437681536424
0.40700000000000003,0.0012999999999980681,-1.2359999999999445,0.007141129572669244,1.390155704497011,0.027483611130798506,0.045460437681536424
0.4079999999999999,-0.0074,-0.2360000000000555,0.007215255639073261,1.3943437705286483,0.028183178220315564,0.045733880371037275
0.40900000000000003,0.002799999999999756,-1.236,0.0071805421009136445,1.3897046929097676,0.02785556810911929,0.04543099071950663
0.4099999999999999,0.0017,-1.2360000000000555,0.00718761036307754,1.3820366797756423,0.027922275056213842,0.04493033907775032
0.41100000000000003,0.0028999999999983123,-2.2359999999999447,0.007175153447457902,1.3897046929097676,0.027804712522180374,0.04543099071950663
0.4119999999999999,-0.0047,-1.2359999999999445,0.007153353510534523,1.401944470962455,0.027598974929927432,0.04623013710457731
0.41300000000000003,-0.0021999999999998223,-0.2360000000000555,0.007168333309736512,1.3998633739865347,0.027740347257337455,0.04609426036578931
0.4139999999999999,-0.0014,-1.2359999999999445,0.007329888204314466,1.3952426487576803,0.0292650266701251,0.0457925689587108
0.4149999999999998,0.0008,-0.23599999999994448,0.0073903631133102375,1.3998633739865347,0.02983576053106404,0.04609426036578931
0.4159999999999999,0.0044,0.7639999999999445,0.007379631228493209,1.3998633739865347,0.029734478029635174,0.04609426036578931
0.4169999999999998,-0.005,-0.236,0.007373936714634295,1.3977791785527967,0.029680735875494923,0.045958181325835894
0.4179999999999999,0.0012,0.764,0.0072490012385276,1.366731794523892,0.028501653379453394,0.043931069019893965
0.4189999999999998,-0.0064,0.764,0.007213817392178179,1.3524827346079682,0.028169604719882994,0.04300073477090275
0.41999999999999993,-0.0129,0.764,0.007213817392178178,1.335432032557035,0.028169604719882987,0.041887478725877586
0.4209999999999998,-0.0046,-0.236,0.007094724597653005,1.3225768587922018,0.027045662715536815,0.04104815258782181
0.42199999999999993,0.003,0.764,0.0070811843307218595,1.3095955029114452,0.02691787601933365,0.04020058790317094
0.4229999999999998,-0.0035,-0.236,0.006941610786258786,1.2781966327587204,0.025600646291515247,0.0381505267443949
0.42399999999999993,-0.0078,0.764,0.006968274682412857,1.2240766792071538,0.025852287652410093,0.034616985118496556
0.4249999999999998,-0.0002,-0.236,0.007070066840627444,1.16190592745079,0.026812954355938015,0.030557799460933382
0.42599999999999993,-0.0028,-1.236,0.0071501590335547715,1.1263976362702162,0.027568826952681834,0.02823943041740629
0.4269999999999998,0.0034,-1.236,0.00736419455389932,1.131562328226595,0.02958879392630491,0.028576637913259335
0.42799999999999994,-0.0088,-0.236,0.00739678447947747,1.131562328226595,0.029896362376787916,0.028576637913259335
0.4289999999999998,0.0039,0.764,0.007370429700714288,1.151635418218291,0.029647638321018705,0.029887228451340245
0.42999999999999994,-0.0008,-0.236,0.007393358233629179,1.1547072007994938,0.029864027073535825,0.030087787965975585
0.4309999999999998,0.0006,0.764,0.007657940563182288,1.166376141157554,0.0323610311532381,0.030849663832074457
0.43199999999999994,0.0071,-1.236,0.007640612842373666,1.1232484373066078,0.032197500241615426,0.02803381631584312
0.43299999999999983,-0.0041,-0.236,0.007648172578545057,1.1232484373066078,0.032268845490156094,0.02803381631584312
0.43399999999999994,0.0096,-1.236,0.007618312171596683,1.1232484373066076,0.031987036957826676,0.028033816315843105
0.43499999999999983,0.0006,-1.236,0.007780558047033793,1.1174845121947417,0.03351823752426514,0.02765748433521912
0.43599999999999994,0.0118,0.764,0.0078107628844178625,1.1206499087933317,0.03380329662969428,0.02786415599529247
0.43699999999999983,0.0012,-0.236,0.007804905689974805,1.1174845121947417,0.03374801917241046,0.02765748433521912
0.43799999999999994,-0.0024,0.764,0.007904451929634671,1.1174845121947414,0.034687489948745175,0.027657484335219102
0.43899999999999983,0.0038,1.764,0.008001754794044245,1.1143101237589723,0.03560578880040244,0.027450225589812517
0.43999999999999995,0.0096,2.764,0.008012611379053932,1.1169234019148178,0.035708248163832376,0.027620848928114762
0.44099999999999984,0.0041,-0.236,0.008004293433982256,1.1321161830447157,0.035629747294882455,0.028612799604578402
0.44199999999999995,0.0067,-1.236,0.007985536009742524,1.1378059890984722,0.0354527235120379,0.028984292283615536
0.44299999999999984,0.0074,-1.236,0.008083274735766215,1.152723572672616,0.036375135821424834,0.029958275058135645
0.44399999999999995,-0.0049,0.764,0.008129307689543105,1.1357928438959586,0.036809573274507165,0.028852852178714458
0.44499999999999984,-0.0067,3.764,0.008159104610333076,1.1238063895359762,0.03709078265421439,0.02807024553091732
0.44599999999999995,-0.0147,0.764,0.008025336798778038,1.123806389535976,0.03582834471382,0.028070245530917307
0.44699999999999984,-0.0224,1.764,0.00805412158370301,1.1238063895359762,0.036100002029380004,0.02807024553091732
0.44799999999999995,-0.0187,1.764,0.008062402244615241,1.1383568061370313,0.03617815102789927,0.02902025563550844
0.44899999999999984,-0.01,-0.236,0.008078577421634097,1.144015574629611,0.036330804771156466,0.0293897218435827
0.44999999999999996,-0.0046,0.764,0.008079937447909809,1.1409150064363849,0.03634364006202676,0.029187282889819338
0.45099999999999985,0.0044,0.764,0.008091946964657636,1.146561149188456,0.0364569802550972,0.02955592475166421
0.45199999999999996,0.0106,0.764,0.00809063892485169,1.146561149188456,0.03644463558817491,0.02955592475166421
0.45299999999999985,0.003,-0.236,0.008101673461538197,1.1409150064363849,0.03654877437616717,0.029187282889819338
0.45399999999999996,0.0004,0.764,0.008121662576059653,1.135240782827643,0.036737422274891234,0.02881680760297268
0.45499999999999985,-0.004,-2.236,0.008121603014975628,1.1409150064363849,0.03673686016528228,0.029187282889819338
0.45599999999999996,0.005,0.764,0.008121685133399757,1.1440155746296112,0.03673763516049989,0.029389721843582718
0.45699999999999985,0.0137,-2.236,0.008121876191213127,1.1471077621908514,0.03673943827463926,0.029591613618162982
0.45799999999999996,-0.003,-0.236,0.008148920669533611,1.1471077621908519,0.036994671391732646,0.02959161361816301
0.45899999999999985,-0.0052,-1.236,0.00815263382057144,1.1471077621908516,0.03702971437175958,0.029591613618162996
0.45999999999999996,-0.003,1.764,0.008174932959614344,1.1471077621908519,0.037240163199759646,0.02959161361816301
0.46099999999999985,0.0028,1.764,0.008224334322299815,1.1445634033312742,0.03770639011815146,0.029425490084206637
0.46199999999999997,0.0046,0.764,0.008262589416350979,1.1275101478458727,0.038067423774769765,0.02831206732309266
0.46299999999999986,0.0159,-0.236,0.008249857428492312,1.1275101478458731,0.03794726523780508,0.02831206732309269
0.46399999999999997,0.0115,-1.236,0.00824701548362136,1.1476541148484833,0.037920444293454626,0.0296272854865123
0.46499999999999986,0.0024,-1.236,0.008250193168799339,1.1568767075962794,0.03795043379754141,0.030229437063416267
0.46599999999999997,0.0014,0.764,0.0082748211731057,1.1624453249488444,0.0381828613649144,0.030593017220506388
0.46699999999999986,0.0024,-1.236,0.008267792086329412,1.1649506287086413,0.03811652413677593,0.03075659081101819
0.46799999999999997,-0.0001,0.764,0.008274890168365263,1.1679873930878029,0.03818351250985254,0.030954863954981413
0.46899999999999986,0.006,-0.236,0.008274101786169556,1.1649506287086413,0.03817607212801612,0.03075659081101819
0.47,0.0039,-0.236,0.008318242561268948,1.167450556195804,0.03859265208515297,0.030919813379736764
0.47099999999999986,-0.0012,-0.236,0.008273625910254026,1.1644123917575373,0.038171581034054866,0.030721448824624752
0.472,-0.0033,-0.2360000000000555,0.0082626308538045,1.1644123917575373,0.038067814842044245,0.030721448824624752
0.47299999999999986,-0.0062,-1.2359999999999445,0.008278586633033377,1.1613662794291582,0.03821839801173903,0.030522565344445227
0.474,-0.0124,-0.236,0.008295541474689604,1.1613662794291582,0.0383784098646009,0.030522565344445227
0.47499999999999987,-0.0145,-0.236000000000111,0.008260788328918972,1.161366279429158,0.038050425955326504,0.030522565344445213
0.476,-0.0181,-2.235999999999889,0.00830786951033818,1.1644123917575373,0.0384947560898428,0.030721448824624752
0.47699999999999987,-0.0073,-0.236000000000111,0.008303305514280093,1.1619059274507877,0.038451683233102746,0.03055779946093324
0.478,0.0065,-2.2359999999998337,0.008317395573503864,1.1563347124983572,0.03858465861140722,0.030194049704154843
0.47899999999999987,0.012,0.7640000000000555,0.008271183473044105,1.1619059274507877,0.03814853045585529,0.03055779946093324
0.48,0.02,1.764,0.008261866765536504,1.1644123917575373,0.03806060373491679,0.030721448824624752
0.48099999999999987,0.0033,-0.236,0.008282793170629415,1.167450556195804,0.03825809734296976,0.030919813379736764
0.482,0.0055,0.764,0.008282722694918535,1.1699451418742355,0.03825743222622563,0.031082687176842094
0.4829999999999999,-0.0042,-0.236,0.008251987804124707,1.1674505561958037,0.03796737072502478,0.03091981337973675
0.484,0.0161,-0.236,0.008256125437426386,1.167450556195804,0.03800641976980436,0.030919813379736764
0.4849999999999999,0.0081,0.764,0.00821170499836487,1.167450556195804,0.037587200475204766,0.030919813379736764
0.486,0.0012,-0.236,0.008211655702846425,1.161905927450788,0.03758673524719473,0.030557799460933253
0.4869999999999999,-0.0143,1.764,0.00813661445203214,1.1588532267556113,0.03687853107594217,0.030358485820215927
0.488,-0.0161,-0.236,0.008150025983716827,1.1784615543135575,0.03700510282919675,0.03163873159083054
0.4889999999999999,0.0042,-1.236,0.008147524306775683,1.1754518501035005,0.03698149317416543,0.03144222523023759
0.49,-0.0092,1.764,0.00814223568435467,1.1608263805345638,0.0369315816332716,0.030487314848230224
0.4909999999999999,0.0028,-1.236,0.008105579072314744,1.1403654250553164,0.03658563370104816,0.029151400215142356
0.492,-0.0128,1.764,0.008098995779319778,1.1403654250553161,0.03652350366578061,0.029151400215142342
0.4929999999999999,0.0093,0.764,0.008077429746256228,1.1403654250553161,0.036319973548581796,0.029151400215142342
0.494,0.018,0.764,0.00811225784442896,1.1403654250553161,0.03664866482351491,0.029151400215142342
0.4949999999999999,-0.0008,0.764,0.00811166412032734,1.137254905277708,0.03664306153358066,0.02894831151326668
0.496,-0.0077,-0.236,0.008084558573138152,1.085900342301927,0.03638725207711287,0.025595324785703477
0.4969999999999999,-0.0055,-2.236,0.00796030189369212,1.0826333499057095,0.03521457574596461,0.02538201984240695
0.498,-0.0073,-1.236,0.007639700330231475,1.0727726791254095,0.03218888837949418,0.024738207562925406
0.4989999999999999,-0.0019,-0.236,0.007409539925230535,1.0567270484430413,0.03001674229837082,0.023690573553485306
0.5,0.0061,-1.236,0.007346578470071809,1.0567270484430413,0.029422541579596916,0.023690573553485306
0.5009999999999999,0.0105,-0.236,0.007340884143205451,1.053369579885312,0.02936880119020481,0.023471361338251652
0.502,0.0094,-0.236,0.007328410597093349,1.0500013755916586,0.02925108170537421,0.023251448176929118
0.5029999999999999,0.0058,-0.236,0.007251000834184655,1.046622331913949,0.02852052462653121,0.02303082730223566
0.504,0.0003999999999994449,-1.236,0.00724955636618302,1.046622331913949,0.028506892414209346,0.02303082730223566
0.5049999999999999,-0.0021,0.764,0.007252092684894753,1.043232343525453,0.028530829002043154,0.02280949183729205
0.506,0.0022999999999979794,0.764,0.007255417490632318,1.0210303074563336,0.028562206961051,0.021359900448504568
0.5069999999999999,-0.0068,-1.236,0.007252324191507871,1.0210303074563336,0.028533013853005842,0.021359900448504568
0.508,-0.007799999999999755,-0.236,0.007133086947043841,1.0047823007138206,0.02740770859780596,0.020299053119656765
0.5089999999999999,-0.0067,-1.236,0.007133370688846133,1.0047823007138206,0.027410386420013897,0.020299053119656765
0.51,-0.009199999999999844,0.764,0.007114770235844884,1.0018765582618077,0.027234844058183168,0.02010933451802226
0.5109999999999999,-0.0085,0.764,0.007111586511280345,0.9882671981357783,0.02720479755719525,0.019220766857642704
0.512,-0.0008999999999998224,-1.236,0.007105951105358359,0.9708258797252858,0.027151613236073943,0.018082007110642912
0.5129999999999999,-0.0001,-2.236,0.007091053014425668,0.9708258797252859,0.027011012033032383,0.01808200711064292
0.514,-0.0026999999999979796,1.764,0.006909730323633259,0.9882671981357783,0.02529977342002306,0.019220766857642704
0.5149999999999999,0.0064,-1.236,0.0068253190858626744,0.9989623637361338,0.024503139701354554,0.01991906407271188
0.516,0.0028000000000007103,-1.236,0.006933377768051526,0.9924768950684276,0.02552294692252672,0.019495621848598294
0.5169999999999999,0.006,0.764,0.006933051685861739,0.9924768950684267,0.02551986951157644,0.019495621848598238
0.518,-0.0005000000000022649,-0.236,0.006941098804183973,0.9859487665837652,0.02559581444453702,0.019069394325734876
0.5189999999999999,-0.0107,-1.236,0.006963119324973492,0.9859487665837652,0.02580363380398355,0.019069394325734876
0.52,-0.009599999999997512,-0.236,0.006938025103838827,0.9895350187898522,0.025566806300589634,0.019303544036138896
0.5209999999999999,0.0016,-0.236,0.006946854354517697,1.0066522336826076,0.025650132632333292,0.020421142765882215
0.522,-0.005999999999997269,-0.236,0.006947873638052725,1.0291644928831336,0.025659752152841848,0.021890988908715218
0.5229999999999999,0.0063,-0.236,0.006957231390879624,1.0456331668315444,0.02574806624027573,0.02296624380272783
0.524,-0.0016999999999976684,0.764,0.006933890131340081,1.055747350850719,0.025527782367221655,0.02362660819512695
0.5249999999999999,0.0088,0.764,0.006824523333993283,1.0590972816090554,0.02449562976799031,0.023845328260493976
0.526,-0.0002999999999986233,0.764,0.00666973808921537,1.0651772006705267,0.02303483913869553,0.024242291777200095
0.5269999999999999,0.0059,-0.236,0.006421782827301918,1.0596890115320727,0.020694753534236235,0.02388396285230454
0.528,0.0003999999999998446,-1.236,0.006391647362672966,1.0810974216022597,0.020410349136371436,0.02528173766848631
0.5289999999999999,-0.0003,-1.236,0.006367069720413081,1.0657655549314984,0.020178396862400413,0.024280705968925835
0.53,0.005899999999998801,0.764,0.006279777091577539,1.0657655549314977,0.01935456992468146,0.024280705968925793
0.5309999999999999,0.0005,-1.236,0.005955470075082488,1.0557473508507105,0.01629391222833418,0.023626608195126398
0.532,-0.0002999999999988675,0.764,0.005947275663898688,1.0618464511147128,0.01621657721434716,0.024024824070216628
0.5329999999999999,0.0048,-0.236,0.005932813911103678,1.064588521250414,0.016080093966241445,0.024203856355534483
0.534,0.00439999999999889,-1.236,0.006170527356587474,1.064588521250414,0.018323522105133758,0.024203856355534483
0.5349999999999999,-0.0006,-0.236,0.006005010477076634,1.0645885212504143,0.01676145133458671,0.024203856355534497
0.536,-0.004199999999998001,-0.236,0.005970926173391569,1.0673235467333122,0.016439779643589163,0.02438242868898087
0.5369999999999999,0.0048,-2.236,0.005980700507821242,1.0673235467333122,0.016532025233037602,0.02438242868898087
0.538,0.0011999999999991783,-0.236,0.005811974111380042,1.0573201048694887,0.01493966454523675,0.02372929475392687
0.5389999999999999,-0.0025,-0.236,0.005586649023386378,1.0634101847724815,0.012813151920868479,0.024126921681336698
0.54,-0.0057999999999981565,1.764,0.005916497236714951,1.0634101847724815,0.015926104837093474,0.024126921681336698
0.5409999999999999,0.0025,-0.236,0.006099515197360974,1.0634101847724815,0.017653342612812647,0.024126921681336698
0.542,0.0031999999999969358,-1.236,0.006093370893536418,1.0573201048694887,0.01759535555168593,0.02372929475392687
0.5429999999999999,-0.0106,-1.236,0.00598597456573829,1.044433445020717,0.01658179932096592,0.022887912860443907
0.5439999999999998,-0.0048,-0.236,0.006114228679195583,1.087429486791815,0.01779220156166875,0.025695164038187026
0.5449999999999999,0.0007,1.764,0.005928316308456851,1.090107206919367,0.016037647699414116,0.025869994852189757
0.5459999999999998,-0.004,-0.236,0.0059317779562304655,1.107736418705909,0.016070317109452982,0.02702102233081037
0.5469999999999999,0.0003,-1.236,0.0059421840959027975,1.1135508027225385,0.01616852538080524,0.0274006488198121
0.5479999999999998,0.0014,-0.236,0.005935893649088013,1.137062358518928,0.016109159090599096,0.02893573995800042
0.5489999999999999,0.0025,-0.236,0.005949904048665691,1.137062358518928,0.016241382678481218,0.02893573995800042
0.5499999999999998,0.0035,-0.236,0.006021335558128721,1.1401734035856168,0.016915519801885277,0.029138862956484088
0.5509999999999999,-0.0012,-0.236,0.00605334915833867,1.1376135356133807,0.017217649163529414,0.028971726818274333
0.5519999999999998,-0.0005,-0.236,0.0059668087097484775,1.172782292525312,0.016400920950598627,0.031267927356602616
0.5529999999999999,-0.0027,-0.236,0.0059462813293382375,1.172782292525312,0.016207193150573035,0.031267927356602616
0.5539999999999998,-0.002,-0.236,0.005981698602933014,1.1782757413176015,0.01654144478713343,0.0316265996891426
0.5549999999999999,0.0045,-0.236,0.006080649813920724,1.1782757413176015,0.01747529996160832,0.0316265996891426
0.5559999999999998,-0.0046,0.764,0.006080213879445531,1.175265561264415,0.01747118581624995,0.03143006226031335
0.5569999999999999,0.0041,-1.236,0.006212550075796354,1.1752655612644147,0.018720112843003477,0.031430062260313335
0.5579999999999998,0.003,-0.236,0.006454431226953577,1.2039881526940759,0.021002873835632166,0.033305386715713585
0.5589999999999999,0.0004,0.764,0.006625801310887908,1.2039881526940759,0.02262018440752753,0.033305386715713585
0.5599999999999998,-0.0021,0.764,0.00665287842078223,1.2015642463033178,0.022875725486128165,0.033147127634414415
0.5609999999999999,0.0001,-0.236,0.006590846202820422,1.2015642463033176,0.022290294472706973,0.0331471276344144
0.5619999999999998,-0.0006,0.764,0.006555083141880569,1.2039881526940759,0.02195277945717178,0.033305386715713585
0.563,0.0001,1.764,0.006565136590831524,1.2039881526940757,0.022047659198717696,0.03330538671571357
0.5639999999999998,0.0041,1.763999999999778,0.006595928142903995,1.1902403349370565,0.022338255442522752,0.032407779029051294
0.565,0.0124,-0.23599999999988897,0.006596204306850629,1.1951291656459329,0.022340861748478918,0.03272697528991513
0.5659999999999998,-0.0013,0.763999999999889,0.006565464091457594,1.1951291656459329,0.022050749996205127,0.03272697528991513
0.567,0.0041,-0.23599999999988897,0.006624019670309544,1.2039881526940759,0.02260337011837885,0.033305386715713585
0.5679999999999998,0.0055,0.764,0.006602144363608442,1.201042417545821,0.022396921221471598,0.033113056954097796
0.569,0.0012,0.764000000000111,0.006613101485514549,1.201042417545821,0.022500329405032295,0.033113056954097796
0.5699999999999998,-0.0053,1.763999999999556,0.006652129508252779,1.1986125541270944,0.02286865760051185,0.03295440893295459
0.571,-0.0017,-2.235999999999556,0.006670443568196005,1.2015642463033178,0.023041497118825062,0.033147127634414415
0.5719999999999998,-0.0049,1.764,0.006668656181339218,1.2045087052727528,0.023024628598992535,0.03333937407313936
0.573,-0.0024,1.763999999999889,0.006662758252440275,1.207445983951757,0.02296896670899659,0.03353115170408718
0.5739999999999998,-0.0016,0.763999999999778,0.006632598631535431,1.2215133934296396,0.02268433433551621,0.03444962582863151
0.575,0.0006,-1.235999999999667,0.006632517697056435,1.223897791550106,0.022683570513818134,0.03460530537856596
0.5759999999999998,0.0013,1.763999999999556,0.006579245008888919,1.2262775534088766,0.022180807839093503,0.03476068222270311
0.577,-0.0038,-2.236,0.006581055221041888,1.2262775534088766,0.022197891773378622,0.03476068222270311
0.5779999999999998,-0.0034,-1.236,0.006569911969829497,1.2291628130877712,0.022092726988619627,0.03494906348521077
0.579,-0.0059,0.764,0.006593306856267725,1.226788648156075,0.022313516967221357,0.03479405206959854
0.5799999999999998,0.0021,-1.236,0.006705790677783227,1.2354206314024225,0.023375086580351288,0.03535764220804837
0.581,-0.0012,-1.236,0.006831551492948528,1.2325500206528646,0.024561958239788424,0.03517021738763256
0.5819999999999999,-0.0037,-1.236,0.006832338462795396,1.2325500206528646,0.024569385292538132,0.03517021738763256
0.583,-0.0175,-0.236,0.006847981799699937,1.2325500206528646,0.024717019777943,0.03517021738763256
0.5839999999999999,-0.0077,-0.236,0.006836775950613525,1.2377782395598953,0.024611264223773684,0.03551157261661848
0.585,0.005,-1.236,0.006873490356873293,1.2354206314024223,0.02495775759076963,0.03535764220804836
0.5859999999999999,0.0036,-0.236,0.0068736842197628465,1.2406367532083582,0.024959587177903947,0.035698207606159216
0.587,0.0021,-1.236,0.006899416155828643,1.2543319814060963,0.025202433136073024,0.036592381672047404
0.5879999999999999,0.0011,-1.236,0.006883288659312063,1.2387907284236082,0.025050229379059836,0.03557767894729518
0.589,0.0199,-1.236,0.0068858069557954545,1.2439927193295426,0.025073995881545283,0.03591732172592672
0.5899999999999999,0.0174,1.764,0.006883097855816742,1.2468369856674502,0.025048428665055075,0.036103026495435835
0.591,0.0007,-0.236,0.006871347413492669,1.2330585155058646,0.024937533495029647,0.035203417485040606
0.5919999999999999,-0.0058,0.764,0.006866714173988774,1.2382845874750052,0.024893807151085953,0.035544632538473786
0.593,-0.0156,-3.236,0.0068740628897214495,1.2330585155058646,0.024963160887580965,0.035203417485040606
0.5939999999999999,-0.0101,-1.236,0.0068256657050799405,1.2306918659145731,0.024506410931149372,0.035048896752926974
0.595,-0.0022,-2.236,0.00683568567886411,1.2306918659145731,0.024600974749752983,0.035048896752926974
0.5959999999999999,0.0084,-1.236,0.0069085434850879165,1.2220264807188688,0.02528857259382021,0.03448312577043177
0.597,0.0047,-3.236,0.0069270909913214905,1.2406367532083584,0.025463615268861144,0.03569820760615923
0.5979999999999999,0.0083,-1.236,0.006932804357885399,1.238284587475005,0.025517535345999365,0.03554463253847377
0.599,0.0094,0.764,0.006931324856556234,1.2411419349379533,0.025503572505544032,0.035731191386687906
0.5999999999999999,0.0087,0.764,0.006926772697581964,1.2439927193295426,0.025460611361655835,0.03591732172592672
0.601,0.0026,2.764,0.006939316105954826,1.249173047524452,0.025578990173775715,0.03625555012619846
0.6019999999999999,0.008,-0.236,0.006979469189124278,1.249173047524452,0.025957936162557715,0.03625555012619846
0.603,0.0087,-1.236,0.006979631453660122,1.2543319814060963,0.025959467539232325,0.036592381672047404
0.6039999999999999,0.0109,-1.236,0.007033216715877086,1.2571528557265925,0.02646518014140676,0.03677655915518962
0.605,0.0019,-0.236,0.007054074967367325,1.2571528557265925,0.026662030547685036,0.03677655915518962
0.6059999999999999,-0.013,0.764,0.007046913975681199,1.2622791765604562,0.02659444846279988,0.0371112613651039
0.607,-0.0188,2.764,0.0071524654439977286,1.272962412116527,0.0275905937739781,0.03780877965659106
0.6079999999999999,-0.0169,-0.236,0.007324943197144847,1.272962412116527,0.02921835800900343,0.03780877965659106
0.609,-0.009,0.764,0.007421857397344787,1.275742092174163,0.03013298882992436,0.03799026752836052
0.6099999999999999,-0.0014,0.764,0.007471780208228171,1.2780253203978955,0.0306041369321297,0.03813934160253351
0.611,-0.005,-1.236,0.0075081636473704454,1.2803044768379812,0.030947506786516078,0.03828814982620103
0.6119999999999999,0.0037,-1.236,0.0075821370628259025,1.285338465279863,0.03164563322789171,0.03861682356918072
0.613,-0.0064,-1.236,0.007623661188561733,1.285338465279863,0.032037518474134614,0.03861682356918072
0.6139999999999999,0.0027,-2.236,0.007645425390001985,1.2770439385854517,0.03224291881163849,0.03807526627989183
0.615,-0.001,-1.236,0.007653555151605957,1.277043938585455,0.03231964369317692,0.038075266279892044
0.6159999999999999,0.0092,1.764,0.007586448325819242,1.2770439385854553,0.03168632090836237,0.03807526627989206
0.617,0.0027,-0.236,0.007587607637591262,1.2876046769724152,0.03169726194977382,0.038764786618356306
0.6179999999999999,0.0038,-0.236,0.0076398910498065575,1.318779569682283,0.032190688301499036,0.04080022408354689
0.619,-0.0129,0.764,0.007650697315021927,1.3290087044465777,0.032292672770283096,0.04146809371599436
0.6199999999999999,-0.0108,0.764,0.007663921247128546,1.339159706524264,0.03241747404660304,0.04213086199335269
0.621,0.0005,0.764,0.007646646764341679,1.3263406626547354,0.03225444557048974,0.04129389480944636
0.6219999999999999,-0.0053,0.764,0.007645121411964891,1.313873714058853,0.032240050009326386,0.04047991625032747
0.623,0.0001,1.764,0.007677557238011073,1.3057604631955488,0.03254616414061637,0.039950194627053626
0.6239999999999999,0.0016,-1.236,0.007707298278295364,1.297596485042445,0.03282684614628885,0.03941716097229578
0.625,-0.0028,-1.236,0.007749917837930017,1.299841325634689,0.03322906958450029,0.039563728682643906
0.6259999999999999,-0.0016,0.764,0.007752685820570722,1.299841325634692,0.03325519250797012,0.03956372868264409
0.627,0.0045,0.764,0.007758416975979713,1.291639935344839,0.03330928046789484,0.039028252355011596
0.6279999999999999,-0.0056,0.764,0.007811415327460267,1.2737750542165545,0.03380945408148408,0.03786183780795604
0.629,0.012200000000000467,1.764,0.007816743043339961,1.2820907292366388,0.033859734568127166,0.038404775890911215
0.6299999999999999,0.0143,-0.236,0.007794745020202957,1.2926102355613311,0.03365212753098579,0.03909160415004458
0.631,-0.001199999999998712,-1.236,0.00797440053089882,1.3008055082632723,0.0353476320792535,0.03962668105472643
0.6319999999999999,0.0046,0.764,0.008041945625411577,1.298562334466404,0.035985091038992445,0.03948022217098392
0.633,0.0027999999999975132,-1.236,0.008040498249334137,1.3067202783093965,0.035971431381613454,0.04001286184007545
0.6339999999999999,-0.0084,0.764,0.007865269196159735,1.3067202783093965,0.03431770166580861,0.04001286184007545
0.635,-0.0008000000000014433,-1.236,0.007851289001951613,1.3067202783093965,0.03418576314205431,0.04001286184007545
0.6359999999999999,-0.0073,1.764,0.007847670622109861,1.3017689767498573,0.03415161456817929,0.03968958679981997
0.637,-0.0010999999999992674,0.764,0.007839696749934823,1.3044872754886316,0.034076360898042946,0.03986706702873285
0.6379999999999999,0.0022,-1.236,0.00783687810727404,1.3022504436852842,0.0340497598690359,0.039721022219589945
0.639,0.0015000000000005773,0.764,0.00785724527295088,1.2972820823405768,0.03424197563746207,0.03939663333024435
0.6399999999999999,0.0041,-0.236,0.007600536146221714,1.2950328055028821,0.03181927515772022,0.03924977597334381
0.641,0.0002000000000009548,-1.236,0.007452843921850245,1.2868007686034826,0.030425425132214887,0.03871229870034054
0.6419999999999999,0.0045,-0.236,0.007460855955294118,1.2868007686034824,0.030501038950529406,0.03871229870034053
0.643,0.006699999999999845,0.764,0.007459336868560174,1.2868007686034824,0.030486702521568005,0.03871229870034053
0.6439999999999999,0.006,-0.236,0.007297758694528898,1.250677636488333,0.02896180340820543,0.03635378612576699
0.645,0.0099999999999992,-1.236,0.0072345009930914386,1.2506776364883347,0.028364806855832807,0.036353786125767104
0.6459999999999999,0.0064,-2.236,0.007255561274366277,1.2716563872873219,0.02856356392457497,0.03772350809230459
0.647,0.002799999999999356,0.764,0.007222571606556935,1.2665680204442347,0.028252222894177798,0.03739128393341359
0.6479999999999999,-0.0001,0.764,0.007251680288496142,1.2455035662315066,0.028526936998024874,0.03601596631203788
0.649,0.0002999999999987121,0.764,0.007211344790067146,1.240307912003622,0.028146269459477822,0.03567673726095394
0.6499999999999999,-0.0055,-1.236,0.007241809889652533,1.2426562478867669,0.028433784797640183,0.035830062274191
0.651,-0.007599999999998468,-0.236,0.007207491424444301,1.2450001543153515,0.02810990319988263,0.035983098084259146
0.6519999999999999,-0.0007,-1.236,0.0072340858966570745,1.2119288902386551,0.028360889370141952,0.03382384478547836
0.653,-0.009099999999999268,0.764,0.007310123598035885,1.2259448605715777,0.029078497575023832,0.034738960400859456
0.6539999999999999,-0.0058,-0.236,0.0072957336816782195,1.2345827434449304,0.028942692285561174,0.035302935731391545
0.655,0.0031999999999963807,-1.236,0.007215263624714623,1.232219021350822,0.02818325358505778,0.03514860613826598
0.6559999999999999,-0.0131,1.764,0.007212721047634009,1.2374486387302683,0.028159257933670266,0.03549005267480426
0.657,0.01629999999999911,-1.236,0.007096122722193235,1.2739469381264907,0.02705885755998006,0.03787306026678544
0.6579999999999999,0.0123,0.764,0.006864488196531824,1.2468369856674637,0.02487279941863187,0.03610302649543672
0.659,0.008599999999996381,-1.236,0.00671553874144489,1.246836985667464,0.023467084238598092,0.03610302649543674
0.6599999999999999,-0.0077,-1.236,0.006664960898550639,1.246836985667464,0.022989754251131436,0.03610302649543674
0.661,-0.010599999999999422,-1.236,0.006669722016816628,1.2576514031764567,0.023034687454925505,0.036809109777482786
0.6619999999999999,-0.008,0.764,0.006651307784256913,1.255331118899901,0.022860902554384877,0.03665761627948274
0.663,-0.005799999999997513,-1.236,0.006696708228655691,1.2530065379898239,0.02328937068026283,0.03650584225032176
0.6639999999999999,0.0054,1.764,0.006708813527306892,1.2614591287455152,0.023403614818067187,0.037057719687789634
0.665,0.007199999999998801,-0.236,0.006703244727890246,1.2460067747590877,0.023351059097940698,0.03604882126038924
0.6659999999999999,0.0018,1.764,0.006830641182800569,1.2436647654863873,0.02455336715905719,0.035895909317376545
0.667,0.00979999999999629,2.764,0.006862722555064517,1.2436647654863873,0.024856136121598375,0.035895909317376545
0.6679999999999999,-0.0069,1.764,0.006975098820751787,1.257327011989752,0.025916690673207215,0.0367879299780544
0.669,-0.004699999999998712,1.764,0.007172993488972806,1.270842390403249,0.0277843278458553,0.037670361485841186
0.6699999999999999,0.0011,-0.236,0.007103752988291548,1.2996959442164198,0.027130868436930473,0.039554236595911105
0.6709999999999998,-0.0007,-1.236,0.007021896484135753,1.2969676034231647,0.026358345097324157,0.03937610071200985
0.6719999999999999,-0.0086,-1.236,0.007230089704874809,1.299213530626302,0.0283231751841627,0.039522739368184255
0.6729999999999998,-0.0072,-1.236,0.007468169880746637,1.3014555820294806,0.03057006435265821,0.03966912496980875
0.6739999999999999,-0.0083,-1.236,0.007579326954324418,1.3014555820294806,0.03161911274028219,0.03966912496980875
0.6749999999999998,-0.0022,-1.236,0.007584043056190356,1.3014555820294806,0.03166362110038102,0.03966912496980875
0.6759999999999999,-0.0033,-1.236,0.007639130929346194,1.296484174635031,0.032183514640681254,0.039344537201069285
0.6769999999999998,0.0098,-0.236,0.007653012149537761,1.2987309378436747,0.03231451909403282,0.039491230440813374
0.6779999999999999,0.0044,1.764,0.007740615327920244,1.3009738209301307,0.033141276852895314,0.03963767034380524
0.6789999999999998,-0.0003,1.764,0.007720593814351041,1.3032128439279507,0.03295232318713632,0.03978385821805392
0.6799999999999999,-0.017,1.764,0.007638568718912594,1.290036646925974,0.032178208761982845,0.03892357217709937
0.6809999999999998,-0.0105,0.764,0.007528999533349041,1.2900366469259743,0.031144146117572845,0.03892357217709939
0.6819999999999999,0.0033,1.764,0.007528132471221789,1.2877747149943493,0.031135963191401016,0.038775888557457505
0.6829999999999998,0.0051,-0.236,0.007594911866684972,1.290036646925974,0.03176619584221056,0.03892357217709937
0.6839999999999999,-0.0061,-0.236,0.007589834807259286,1.2982481656687064,0.03171828093375752,0.03945970980075129
0.6849999999999998,0.0044,-0.236,0.007549681025265123,1.3086377966211828,0.031339328349795276,0.040138058377183775
0.6859999999999999,0.0008,0.764,0.007792929125245182,1.3036937776291362,0.03363498996505108,0.039815258822469016
0.6869999999999998,-0.0004,0.764,0.008052252772052293,1.2932644287791821,0.03608236506048673,0.03913431702791973
0.688,-0.0058,-0.23599999999988897,0.008088603820042945,1.2932644287791821,0.0364254292223581,0.03913431702791973
0.6889999999999998,0.0007,0.763999999999778,0.008086673170307562,1.2882614120701308,0.036407208654590524,0.03880766545790954
0.69,0.009,-1.235999999999889,0.008092088566031191,1.2905224909555666,0.036458316622526035,0.03895529338137985
0.6909999999999998,0.0035,-0.23599999999988897,0.008082100999656654,1.293264428779182,0.03636405864987292,0.03913431702791972
0.692,-0.0056,0.764,0.00808470808619563,1.2932644287791821,0.03638866311130824,0.03913431702791973
0.6929999999999998,-0.002,0.763999999999778,0.008073442936182559,1.3308941105495184,0.03628234790277331,0.041591193617403474
0.694,-0.0031,-1.236000000000222,0.008217495208058593,1.3330828808924924,0.037641845761804134,0.04173410044952152
0.6949999999999998,0.0059,-3.235999999999667,0.008195324701960912,1.3458377069674463,0.0374326109112815,0.04256687479445882
0.696,0.0048,-0.23600000000022203,0.008137017392727822,1.353710782532792,0.03688233384146584,0.04308091515126521
0.6969999999999998,0.008,-2.235999999999778,0.008124202741557342,1.3393231992300043,0.03676139516688883,0.04214153658272967
0.698,0.0033,-0.236000000000111,0.008123860087385871,1.3393231992300045,0.03675816135733875,0.042141536582729684
0.6989999999999998,0.0115,-1.236,0.008124393970290224,1.3393231992300043,0.03676319989408648,0.04214153658272967
0.7,-0.0052,-1.235999999999889,0.008154997539116273,1.353710782532792,0.03705202204007471,0.04308091515126521
0.7009999999999998,0.0067,-0.23599999999977794,0.008180584384247345,1.3489319722761883,0.03729349869797137,0.04276890222708763
0.702,0.0132,1.764,0.008145693687761302,1.3489319722761886,0.03696421664948212,0.042768902227087645
0.7029999999999998,0.0074,1.763999999999889,0.008186254678840132,1.3489319722761886,0.0373470122820237,0.042768902227087645
0.704,-0.0017,0.764,0.008166524046187952,1.3632181470985403,0.037160803814093084,0.04370165974251199
0.7049999999999998,-0.0003,-1.236,0.008149577219598194,1.3632181470985403,0.037000867603673784,0.04370165974251199
0.706,0.0011,-3.236,0.008171221586000726,1.3610778386064275,0.03720513699422976,0.04356191702928261
0.7069999999999999,-0.0054,-1.236,0.008100558025957164,1.348467172970398,0.036538247417691946,0.04273855505221185
0.708,-0.0091,-0.236,0.007937318662776164,1.3436697137548947,0.034997670779337346,0.042425324520327184
0.7089999999999999,-0.0036,0.764,0.007852504575888052,1.3410308410244627,0.034197235159416896,0.042253030088670936
0.71,-0.0029,1.764,0.007811316602631914,1.3362066829881376,0.033808522362802865,0.04193805636617828
0.7109999999999999,-0.0004,0.764,0.007773606755397959,1.3313650448864671,0.03345263449021826,0.041621941354115545
0.712,0.0086,0.764,0.0077155843920900845,1.3265057353170124,0.032905046606558595,0.04130467255564117
0.7129999999999999,0.0075,1.764,0.007693087588259871,1.3265057353170122,0.03269273231089423,0.04130467255564116
0.714,-0.0001,0.764,0.007680048078773207,1.3216285593586086,0.03256967152886653,0.04098623724417273
0.7149999999999999,-0.0132,0.764,0.007660802523293908,1.3113418569651956,0.0323880409920536,0.0403146089681854
0.716,-0.0114,1.764,0.007627319029701753,1.3113418569651956,0.03207203946525657,0.0403146089681854
0.7169999999999999,-0.0128,1.764,0.007625202378803013,1.303212843927951,0.0320520635056436,0.039783858218053934
0.718,-0.0172,1.764,0.007562278589715782,1.2716563872873157,0.03145821826160737,0.03772350809230419
0.7189999999999999,-0.0082,2.764,0.007548064113770786,1.2632720285348193,0.031324068696572414,0.037176085585184294
0.72,0.0005,-0.236,0.007584458170417966,1.2548316495962029,0.031667538753996194,0.03662500546850349
0.7209999999999999,0.0172,-1.236,0.0075869962355066475,1.2576514031764567,0.031691491823317534,0.036809109777482786
0.722,0.0194,-1.236,0.00759359223762728,1.2525061416995504,0.0317537418013594,0.036473170915535015
0.7229999999999999,0.0129,1.764,0.007554022036649177,1.2501763080309356,0.03138029678164152,0.03632105392892996
0.724,0.0031,-1.236,0.007534837585806246,1.2501763080309356,0.031199242921761468,0.03632105392892996
0.7249999999999999,-0.0096,-0.236,0.007490729049673893,1.2478421243605409,0.03078296722089282,0.03616865292670121
0.726,-0.0049,-1.236,0.00762734479371734,1.245503566231504,0.032072282613966246,0.036015966312037705
0.7269999999999999,-0.0125,-1.236,0.007639696210473917,1.2540067315391668,0.03218884949915229,0.03657114580859608
0.728,-0.0002,-1.236,0.007598054580830842,1.254006731539167,0.03179585530607887,0.03657114580859609
0.7289999999999999,-0.0049,-0.236,0.007587323591630345,1.245503566231504,0.031694581257059276,0.036015966312037705
0.73,-0.0063,-0.236,0.007592946609342433,1.2317101799240873,0.031747648664058964,0.035115383412739516
0.7309999999999999,0.0002,0.764,0.007491844474709825,1.2317101799240873,0.030793494079848324,0.035115383412739516
0.732,-0.0111,-1.236,0.0074293348475291815,1.22883090140395,0.030203557501867574,0.03492739266559732
0.7329999999999999,-0.0006,1.764,0.007450555362181116,1.2201522999179628,0.03040382677815961,0.03436075877933392
0.734,0.003,1.764,0.00745570569902492,1.2201522999179628,0.030452433244557205,0.03436075877933392
0.7349999999999999,0.0193,-0.236,0.007459654700474863,1.2201522999179628,0.030489702070286843,0.03436075877933392
0.736,0.0215,0.764,0.007481519719449001,1.2230520095557986,0.030696053876446413,0.03455008349297301
0.7369999999999999,0.0077,0.764,0.007509532801938202,1.2230520095557986,0.030960428225930436,0.03455008349297301
0.738,-0.0014,-0.236,0.007513492271024517,1.2230520095557986,0.030997795840308477,0.03455008349297301
0.7389999999999999,0.0033,-1.236,0.007499816689085976,1.225944860571576,0.03086873210445538,0.03473896040085934
0.74,-0.001,0.764,0.007513960818272265,1.2259448605715775,0.031002217769736405,0.03473896040085944
0.7409999999999999,-0.0021,-1.236,0.007459819532567448,1.2235644516447157,0.030491257678359182,0.03458354130905051
0.742,0.0015,-3.236,0.007461993531923786,1.2288309014039527,0.03051177486584943,0.034927392665597495
0.7429999999999999,0.0167,-1.236,0.007508982053359266,1.2288309014039527,0.030955230518846914,0.034927392665597495
0.744,0.0001,1.764,0.007835399214066781,1.23980239043512,0.03403580276775023,0.03564373129202995
0.7449999999999999,0.0023,1.764,0.007890073547683157,1.2345827434449326,0.03455179351560434,0.035302935731391684
0.746,0.0045,0.764,0.007911035352208854,1.2081462932231983,0.034749621206920676,0.03357687554158609
0.7469999999999999,0.0027,0.764,0.007925191116252084,1.2134796589747892,0.03488321667653103,0.03392509590492084
0.748,0.0009,0.764,0.00788753073982805,1.197408297948419,0.03452779568627528,0.03287578193761654
0.7489999999999999,-0.0071,-2.236,0.007925483074461396,1.2163952753233478,0.03488597204133934,0.03411545918235724
0.75,-0.0085,-0.236,0.007876269157208852,1.2110747495148044,0.03442151414513254,0.03376807715073297
0.7509999999999999,0.0005,-0.236,0.007921837115171639,1.2057307460605506,0.03485156318555397,0.03341916224199126
0.752,-0.0082,-1.236,0.00796447327028424,1.2110747495148058,0.03525394324411195,0.03376807715073305
0.7529999999999999,-0.0071,-2.236,0.008017760971852828,1.2158798117325644,0.03575684760828268,0.03408180408963931
0.754,-0.002400000000000977,-0.236,0.007997845764491352,1.207108100929105,0.03556889721071186,0.033509091010260304
0.7549999999999999,-0.0068,0.764,0.008002376201791051,1.2095208973646976,0.03561165335561122,0.03366662471235157
0.756,-0.007499999999997846,-0.236,0.008015349263457192,1.2374486387302857,0.03573408703423706,0.03549005267480539
0.7569999999999999,0.0022,-0.236,0.008015129881577907,1.1998406001752775,0.035732016610832334,0.03303458919078944
0.758,-0.004299999999999755,-0.236,0.00799715684955794,1.197408297948422,0.0355623955543004,0.03287578193761673
0.7589999999999999,-0.0032,-0.236,0.007980601301940768,1.197408297948422,0.03540615205152526,0.03287578193761673
0.76,-1.0436096431475304e-15,-0.236,0.007977086206071673,1.208665054959032,0.03537297822339963,0.033610745973232804
0.7609999999999999,-0.0047,-0.236,0.007988657747672314,1.1944463357189194,0.0354821850122054,0.03268239269491693
0.762,-0.005399999999998002,0.764,0.007988607976893413,1.1944463357189194,0.035481715298909824,0.03268239269491693
0.7629999999999999,0.0036,-0.236,0.007948947189891328,1.1914770101974146,0.03510741537073366,0.032488522696098796
0.764,-2.442490654175071e-16,0.764,0.007915290003328964,1.1825242985151805,0.03478977461105227,0.03190399190259584
0.7649999999999999,-0.0011,-0.236,0.007939269511730334,1.184987152002946,0.03501608197786928,0.032064793875739
0.766,-0.00040000000000015544,-1.236,0.007839719677325394,1.1874448973511504,0.03407657727601456,0.0322252623337443
0.7669999999999999,-0.0011,-0.236,0.007794358424868316,1.1729689757527764,0.033648479025322454,0.03128011607650745
0.768,-0.005100000000000822,-1.236,0.0077707281008232015,1.1613662794291633,0.03342546709688037,0.03052256534444556
0.7689999999999999,-0.0088,-1.236,0.007678451525952316,1.1814635915162661,0.0325546040112664,0.031834737365450415
0.77,-0.0022999999999987787,0.764,0.007638884959683663,1.1613662794291535,0.032181193294233586,0.030522565344444922
0.7709999999999999,0.0032,-0.236,0.007692313477923153,1.1809328807465471,0.032685426620177135,0.031800086770373166
0.772,-0.003699999999998135,0.764,0.007575119045550103,1.175451850103492,0.031579400468513215,0.031442225230237035
0.7729999999999999,0.0047,-1.236,0.007323723482958365,1.1754518501034887,0.029206846917900483,0.03144222523023682
0.774,0.0014000000000029087,0.764,0.007208662849374465,1.1754518501034834,0.028120958559606106,0.03144222523023647
0.7749999999999999,0.0145,0.764,0.00721694933392421,1.1754518501034845,0.028199162518888085,0.03144222523023654
0.776,0.0053999999999975136,1.764,0.007153919192163494,1.1947877994627012,0.027604313568141633,0.03270468717732513
0.7769999999999999,-0.0058,-0.236,0.007140339548662425,1.1923451899142659,0.027476155254317937,0.03254520694963075
0.778,0.0018000000000002441,-1.236,0.007135163016337667,1.1923451899142647,0.027427301567242674,0.03254520694963068
0.7789999999999999,0.0029,-0.236,0.00714172911422847,1.186916861029056,0.027489269323172374,0.03219078635581632
0.78,0.011599999999998311,1.764,0.007132018792849221,1.2012247088541883,0.02739762785890619,0.03312495892155868
0.7809999999999999,0.004,-0.236,0.0071164533707634954,1.2041699980672218,0.02725072869706121,0.033317259567653044
0.782,0.0064999999999998444,-1.236,0.007196908541968174,1.20416999806722,0.02801002691274534,0.033317259567652927
0.7829999999999999,0.0058,-0.236,0.0072334076977993034,1.2041699980672178,0.028354488847032323,0.03331725956765278
0.784,0.006500000000000155,-0.236,0.007236949872099189,1.1928708233341196,0.028387918228702562,0.03257952603985774
0.7849999999999999,0.0072,0.764,0.007233261375475211,1.1784615543135268,0.02835310792548391,0.031638731590828535
0.786,0.006499999999998001,0.764,0.006970758525804903,1.1814635915162333,0.02587572900275936,0.031834737365448264
0.7869999999999999,-0.0025,0.764,0.006629829303432196,1.1784615543135268,0.022658198714201324,0.031638731590828535
0.788,-0.003600000000000244,0.764,0.006606398298639791,1.1809328807465254,0.022437067867492926,0.031800086770371744
0.7889999999999999,-0.0047,0.764,0.0066112015914408665,1.1863885896892736,0.022482399094791997,0.03215629503336699
0.79,0.0006999999999989563,0.764,0.006624561638069909,1.1809328807465254,0.02260848495621017,0.031800086770371744
0.7909999999999999,-0.004,-1.236,0.006640272632643906,1.1972254255478112,0.022756757963004366,0.032863842030107934
0.792,-0.010100000000002753,0.764,0.006637913474948781,1.1972254255478112,0.022734493337852196,0.032863842030107934
0.7929999999999999,-0.0225,1.764,0.006652526766386686,1.1552499594582497,0.02287240673667954,0.03012322517882728
0.794,-0.009799999999999667,-0.236,0.006446408809768295,1.1527235726725875,0.02092716202043061,0.02995827505813379
0.7949999999999999,-0.0083,1.764,0.006508451973437978,1.1527235726725873,0.02151269633431508,0.029958275058133775
0.796,-0.006799999999998001,-1.236,0.00651057899362264,1.1409150064363562,0.02153277015439098,0.029187282889817468
0.7969999999999999,0.0022,0.764,0.006498385843903975,1.1378059890984433,0.021417696919366732,0.02898429228361365
0.7979999999999998,0.0084,-2.236,0.006506634761593944,1.1378059890984433,0.021495546340224773,0.02898429228361365
0.7989999999999999,0.0074,-0.236,0.006506498939850523,1.1346884531645256,0.02149426451823762,0.028780745490428843
0.7999999999999998,0.0099,-0.236,0.0064683573116135675,1.114310123758943,0.02113430169881944,0.0274502255898106
0.8009999999999999,0.0106,-1.236,0.006459177647718777,1.1174845121947121,0.021047668331299008,0.02765748433521719
0.8019999999999998,0.0161,-2.236,0.006730749566134697,1.1206499087933024,0.023610636876335602,0.027864155995290556
0.8029999999999999,0.0048,-1.236,0.006700721063244858,1.1206499087933024,0.023327241933257106,0.027864155995290556
0.8039999999999998,-0.0032,-1.236,0.006663458788299221,1.1000115382327604,0.022975578038259285,0.026516657768099656
0.8049999999999999,-0.0046,2.764,0.006661597993154664,1.1000115382327604,0.02295801672539574,0.026516657768099656
0.8059999999999998,-0.001,0.764,0.006627247217271358,1.0967865795868494,0.022633830194623145,0.026306097247084624
0.8069999999999999,0.0001,0.764,0.006585464139480267,1.1000115382327604,0.02223950108019175,0.026516657768099656
0.8079999999999998,-0.0075,-0.236,0.006604335168006298,1.1032270697044138,0.022417597007071174,0.02672660278022253
0.8089999999999999,-0.0027,1.764,0.006648586843725768,1.1090650946834473,0.022835223592307653,0.027107772809439087
0.8099999999999998,-0.0052,-0.236,0.006641084315064154,1.1148725492906444,0.022764418241444744,0.0274869468709152
0.8109999999999999,0.0002,0.764,0.006642422596039655,1.1206499087933024,0.022777048310358494,0.027864155995290556
0.8119999999999998,-0.0034,-0.236,0.006683749832063103,1.1263976362701822,0.023167075403731162,0.028239430417404073
0.813,0.0018,-1.236,0.006689439662585157,1.1263976362701822,0.023220773358732086,0.028239430417404073
0.8139999999999998,-0.0062,-1.236,0.006725342860601885,1.141464323210244,0.023559610922350004,0.029223148288047847
0.815,0.004,-1.235999999999889,0.00679541616413583,1.1532672648806104,0.024220929934462468,0.029993773223277165
0.8159999999999998,0.0076,-0.23599999999988897,0.0069461959483113345,1.1563347124983263,0.025643918902995565,0.030194049704152827
0.817,0.0112,0.7640000000002221,0.00697866235566046,1.1538107008930685,0.02595032164629657,0.030029254661176098
0.8179999999999998,0.0123,2.7639999999998888,0.006984880948705836,1.156876707596249,0.02600900981428775,0.030229437063414282
0.819,-0.0025,1.763999999999556,0.0069894890420225605,1.156876707596249,0.026052498840296954,0.030229437063414282
0.8199999999999998,-0.0091,-2.235999999999778,0.006990338416252278,1.1543538810717897,0.026060514836377946,0.03006471939545466
0.821,-0.0109,-0.236000000000111,0.007004292225346655,1.1543538810717897,0.026192204349789132,0.03006471939545466
0.8219999999999998,-0.0018,-1.235999999999667,0.007008441289623905,1.1543538810717897,0.02623136127476118,0.03006471939545466
0.823,-0.0003,1.763999999999667,0.007035438009276386,1.1543538810717897,0.02648614366791904,0.03006471939545466
0.8239999999999998,-0.0047,-1.236000000000111,0.007072789228477919,1.1518255288507329,0.026838646977137056,0.029899640949673578
0.825,-0.001,-2.235999999999667,0.007176935596691354,1.1518255288507329,0.02782153161177749,0.029899640949673578
0.8259999999999998,-0.0021,0.763999999999778,0.00708146540833897,1.1543538810717897,0.02692052869820991,0.03006471939545466
0.827,-0.0122,-1.235999999999889,0.00706768351087721,1.1394576414148694,0.0267904616062534,0.029092130184953352
0.8279999999999998,-0.0031,-0.23599999999977794,0.0070457913157369765,1.1394576414148694,0.026583853324169206,0.029092130184953352
0.829,0.0031,1.763999999999889,0.007046945801617987,1.1394576414148694,0.02659474882108206,0.029092130184953352
0.8299999999999998,0.0041,0.764,0.007082098280647919,1.1425621644628883,0.0269265014505855,0.02929482735482958
0.831,0.0107,0.763999999999778,0.007007774297153684,1.1275101478458427,0.02622506651228749,0.028312067323090703
0.8319999999999999,0.0132,-1.235999999999778,0.006998558161271537,1.1275101478458427,0.026138088939236102,0.028312067323090703
0.833,0.0023,0.764,0.006984053403259448,1.1217681206821388,0.026001199828037877,0.027937165079675915
0.8339999999999999,-0.002,-0.236,0.007028776607621544,1.124921463775192,0.026423276479710475,0.02814304975526836
0.835,-0.001,0.764,0.007077174525198262,1.130647476704714,0.02688003335324122,0.028516906414580157
0.8359999999999999,0.0001,-0.236,0.007058801772501801,1.130647476704714,0.026706639920218267,0.028516906414580157
0.837,-0.0054,-1.236,0.007028498925128994,1.130647476704714,0.026420655842429325,0.028516906414580157
0.8379999999999999,-0.0029,-1.236,0.007069199847413497,1.130647476704714,0.026804772080137672,0.028516906414580157
0.839,-0.0054,-0.236,0.007097491826125906,1.130647476704714,0.027071778521524203,0.028516906414580157
0.8399999999999999,-0.0047,-2.236,0.007388810845787398,1.130647476704714,0.02982111095736096,0.028516906414580157
0.841,-0.0011,-1.236,0.0077341970248529755,1.1476541148484534,0.03308070391527395,0.029627285486510342
0.8419999999999999,-0.0047,-0.236,0.007847497972926241,1.1476541148484536,0.034149985186063776,0.029627285486510356
0.843,-0.0032,0.764,0.007880302830819723,1.1445634033312457,0.034459582067051374,0.02942549008420478
0.8439999999999999,-0.009,1.764,0.007554444369642257,1.1352407828276139,0.031384282562583486,0.028816807602970777
0.845,-0.0029,0.764,0.0075221558860563125,1.1383568061370026,0.031079558980408963,0.02902025563550657
0.8459999999999999,-0.0022,-0.236,0.007565037180507308,1.1232484373065785,0.03148425254920437,0.028033816315841203
0.847,-0.0043,0.764,0.0075378306562144375,1.1326697670379573,0.031227490118135894,0.028648943613491608
0.8479999999999999,0.0008,-0.236,0.00756635724292615,1.1445634033312457,0.03149671067991505,0.02942549008420478
0.849,-0.0007,-0.236,0.007522524775909063,1.1300929020786685,0.031083040390028547,0.028480697726338548
0.8499999999999999,0.0077,0.764,0.007593237433994851,1.1357928438959297,0.03175039333088835,0.028852852178712574
0.851,0.0189,0.764,0.007655844394270818,1.141464323210244,0.03234124849302595,0.029223148288047847
0.8519999999999999,0.0051,-1.236,0.007620977421603717,1.1357928438959297,0.0320121903388262,0.028852852178712574
0.853,-0.0004,-0.236,0.0074786198599049,1.1212091541405587,0.030668686360541573,0.02790066963922296
0.8539999999999999,-0.0018,-0.236,0.0074746025328014006,1.1154346912356503,0.0306307727093016,0.027523649636383193
0.855,-0.0004,-0.236,0.007473014979871765,1.1154346912356503,0.030615790128459042,0.027523649636383193
0.8559999999999999,0.0007,0.764,0.0074596356175926064,1.0941252064222755,0.030489521974983703,0.026132333741354517
0.857,-0.0055,0.764,0.00746377361772464,1.0941252064222755,0.030528574481736317,0.026132333741354517
0.8579999999999999,-0.0088,-1.236,0.007468766346982379,1.0967865795868494,0.030575693521569712,0.026306097247084624
0.859,0.0002,-1.236,0.0075019318634354975,1.0967865795868494,0.030888694129088536,0.026306097247084624
0.8599999999999999,0.0013,-1.236,0.007544843843727999,1.0843690414607183,0.03129367729648094,0.02549534474305566
0.861,-0.0088,-1.236,0.007559302496204243,1.0903080459187,0.03143013128523053,0.025883107815481032
0.8619999999999999,0.006,0.764,0.007606529079878478,1.0929787138038358,0.03187583365811441,0.026057478182079475
0.863,0.0078,1.764,0.0076346961945298174,1.0988711870573837,0.03214166169098657,0.02644220318930006
0.8639999999999999,0.0097,1.764,0.007659561961501206,1.0988711870573837,0.032376333151009455,0.02644220318930006
0.865,0.0144,0.764,0.007977490653616517,1.0962148748815947,0.035376795209859785,0.026268770120190205
0.8659999999999999,0.0067,0.764,0.008139069842947835,1.090308045918701,0.03690170390514853,0.02588310781548109
0.867,0.0031,0.764,0.008175293073437596,1.096214874881596,0.03724356178532406,0.026268770120190292
0.8679999999999999,-0.0057,-1.236,0.00811595365802493,1.0962148748815943,0.036683544180887505,0.026268770120190174
0.869,0.0088,0.764,0.008050744879906443,1.074524298854285,0.036068134280803535,0.02485257242871984
0.8699999999999999,-0.005,0.764,0.008047331237867227,1.0585052208947967,0.03603591792639709,0.023806672071018522
0.871,0.004,-0.236,0.008029044429387252,1.0366303433858757,0.03586333559462778,0.022378441166024287
0.8719999999999999,-0.0072,0.764,0.008029044429387252,1.042841256253767,0.03586333559462778,0.022783957389030846
0.873,-0.0087,0.764,0.008086294400313323,1.0366303433858792,0.03640363400082403,0.02237844116602452
0.8739999999999999,-0.0123,0.764,0.008086525042471072,1.023483212243833,0.03640581069346191,0.02152005286184203
0.875,-0.0087,-1.236,0.008102197417945593,1.0206307128005305,0.0365537192312868,0.021333810545296848
0.8759999999999999,-0.0032,-0.236,0.008109466620573148,0.9979259582145863,0.036622322560344506,0.0198513962014117
0.877,0.0015,-0.236,0.008148868998012839,0.9943699688723109,0.03699418374012571,0.019619222381265893
0.8779999999999999,0.0022,-1.236,0.00805985599897537,0.9914337099180609,0.03615412075436808,0.019427511329086714
0.8789999999999998,0.0076,0.764,0.008066955232714433,0.9950001930880585,0.036221119996680075,0.019660370300912045
0.8800000000000001,0.005499999999998357,-0.236,0.008088116471364221,0.9776789954164461,0.036420829853832375,0.018529453347616097
0.881,0.0018,-0.236,0.008086793600297792,0.9740490927027897,0.03640834521642151,0.018292453655359434
0.8819999999999999,0.0047,-0.236,0.008020013887482554,0.9704056120570141,0.03577810957059193,0.01805456744740591
0.8829999999999998,0.0098,0.764,0.00795597585652434,0.9704056120570168,0.03517374863375672,0.018054567447406085
0.8840000000000001,0.010499999999997603,-1.236,0.008055441379142521,0.9734053039433197,0.03611245764046483,0.018250420094157182
0.885,0.0051,0.764,0.008139523707854531,0.9770375984722236,0.03690598726951971,0.018487575950234838
0.8859999999999999,-0.0,0.764,0.008239511913253745,0.9966688113802998,0.037849629111458484,0.019769315926442786
0.8869999999999998,-0.008,0.764,0.00824118572606696,0.9966688113803,0.03786542577267284,0.019769315926442793
0.8880000000000001,-0.007300000000006129,0.764,0.008234078666715916,0.9901683203686146,0.03779835267590097,0.01934489287965133
0.889,-0.0211,0.764,0.008244060570679081,0.9872195646503222,0.03789255720936818,0.019152365902235065
0.8899999999999999,-0.0229,-2.236,0.008250161259502904,1.004376241751637,0.037950132652549935,0.020272541155930163
0.8909999999999998,-0.0139,-1.236,0.008270723773988282,1.0218583808004216,0.03814419203151772,0.02141396612001043
0.8920000000000001,-0.012399999999993916,-0.236,0.008371065836040106,1.054766743287624,0.03909117340677562,0.023562583423938535
0.893,0.0013,-1.236,0.008398828158563352,1.0581197785832006,0.039353181201172344,0.023781506187402057
0.8939999999999999,0.0068,0.764,0.008486411054470965,1.054766743287623,0.04017974754353857,0.023562583423938476
0.8949999999999998,0.0115,-0.236,0.008594250841723088,1.0446430651162284,0.04119748893684173,0.022901599149594325
0.8960000000000001,-0.002199999999995959,1.764,0.008610864567640328,1.0474301730085216,0.04135428149915862,0.02308357199153152
0.897,0.0069,1.764,0.008637917299726175,1.0535774220460843,0.04160959251142292,0.02348493154440502
0.8979999999999999,0.0022,-1.236,0.008648676250143034,1.0535774220460843,0.0417111304453038,0.02348493154440502
0.8989999999999998,0.0127,-1.236,0.008664907267615323,1.0569342303703928,0.04186431118460139,0.023704100652390384
0.9000000000000001,0.013899999999997246,-1.236,0.008705599198704384,1.0569342303703928,0.04224834256761918,0.023704100652390384
0.901,0.0077,-0.236,0.008731359806533567,1.0535774220460834,0.04249145911645948,0.023484931544404963
0.9019999999999999,0.0067,-1.236,0.008565223878448627,1.0535774220460834,0.04092354605547047,0.023484931544404963
0.9029999999999998,-0.0042,-0.236,0.008557543344345154,1.0508066189418668,0.040851060772635985,0.02330402325710222
0.9040000000000001,-0.0027999999999983568,-1.236,0.008560379794116627,1.0541722503914723,0.04087782985681179,0.02352376843506662
0.905,0.0009,1.764,0.008586056220854753,1.057527170610195,0.0411201519439503,0.023742814266898844
0.9059999999999999,-0.0027,0.764,0.00862285532600249,1.0608714812182434,0.04146744465937273,0.02396116738747595
0.9069999999999998,0.0027,-1.236,0.00862543598728609,1.0735608425914056,0.041491799731627046,0.0247896674817233
0.9080000000000001,-0.0102999999999992,-0.236,0.008775011449267582,1.0735608425914056,0.042903422871471565,0.0247896674817233
0.909,-0.0085,0.764,0.008731892886956772,1.070841747837809,0.04249649007976607,0.024612135280269343
0.9099999999999999,-0.007,-1.236,0.008732473482429812,1.064794173535767,0.042501969467854034,0.024217283582704287
0.9109999999999998,-0.0085,-1.236,0.008737076600239946,1.064794173535767,0.04254541153736286,0.024217283582704287
0.9120000000000001,-0.0073999999999938715,-1.236,0.008694010676071026,1.064794173535767,0.04213897551978158,0.024217283582704287
0.913,0.0064,-1.236,0.008699149033163179,1.0774373369616912,0.04218746892689514,0.025042767370416167
0.9139999999999999,0.0231,0.764,0.008664730489119341,1.0614622220843914,0.04186264283197022,0.02399973740285234
0.9149999999999998,0.0166,-0.236,0.008655414818414444,1.045242977850398,0.041774725895889944,0.022940768004683507
0.9160000000000001,0.010799999999997603,-1.236,0.00853425013899154,1.0480284903468993,0.04063123041247718,0.02312263668175968
0.917,0.0054,0.764,0.0085311872309105,1.044643065116223,0.04060232412086266,0.022901599149593974
0.9179999999999999,0.0068,1.764,0.00853082575735454,1.063026520951038,0.04059891270277794,0.02410187191698074
0.9189999999999998,-0.0008,-0.236,0.00851904175159924,1.056934230370391,0.04048770077681175,0.02370410065239027
0.9200000000000002,-0.007300000000001599,-0.236,0.008555805444176745,1.0535774220460818,0.040834659284985766,0.023484931544404862
0.921,-0.0109,-1.236,0.008555046377212744,1.0663535845715768,0.04082749556657313,0.024319098965854397
0.9219999999999999,-0.0098,-0.236,0.008549589112066562,1.069670299864418,0.04077599245464177,0.02453565036287918
0.9229999999999998,-0.0007,0.764,0.008563466703827757,1.0723923648764324,0.04090696266456726,0.024713376495241607
0.9240000000000002,-0.006899999999998534,0.764,0.008547126791190546,1.0690840945229163,0.04075275422371632,0.024497376476085343
0.925,-0.0036,-0.236,0.008502929211685132,1.0657655549315246,0.04033563817320611,0.024280705968927545
0.9259999999999999,-0.0083,-0.236,0.008468418307939003,1.0596890115321023,0.04000994043067792,0.023883962852306467
0.9269999999999998,0.0019,0.764,0.008466387271869666,1.0657655549315248,0.03999077246371761,0.024280705968927563
0.9279999999999997,-0.0046,0.764,0.008465629102715474,1.0718076483190058,0.039983617218413356,0.024675199812531592
0.929,0.0066,-0.236,0.008475358122280377,1.0690840945229163,0.040075435147396365,0.024497376476085343
0.9299999999999999,-0.0039,-0.236,0.008570259791242402,1.0657655549315246,0.040971072641287146,0.024280705968927545
0.9309999999999998,-0.0028,-0.236,0.008557518228804252,1.0657655549315248,0.04085082374392661,0.024280705968927563
0.9319999999999997,0.0085,-1.236,0.008564591936161216,1.0718076483190058,0.040917582080202484,0.024675199812531592
0.933,0.0128,-1.236,0.0086149161704476,1.092978713803865,0.041392518628433954,0.026057478182081373
0.9339999999999999,0.0118,0.764,0.008794532229774145,1.0956428718618052,0.04308765085315949,0.02623142351606498
0.9349999999999998,0.0128,-2.236,0.008763662085300628,1.0929787138038647,0.04279631289109087,0.02605747818208136
0.9359999999999997,-0.0017,-0.236,0.00877008824416281,1.0897329423968825,0.042856959968024494,0.02584555877672203
0.937,0.0041,-0.236,0.008833509855130784,1.0897329423968825,0.04345550342176082,0.02584555877672203
0.938,-0.005,0.764000000000111,0.008806907945156116,1.0897329423968825,0.043204447057389045,0.02584555877672203
0.9389999999999998,0.0062,1.764000000000111,0.008831049818214455,1.0897329423968825,0.043432286745776955,0.02584555877672203
0.9399999999999997,-0.0075,2.764,0.00858721187571404,1.0864774745302286,0.04113105847313251,0.02563300628057779
0.9410000000000001,-0.013,2.7639999999997777,0.008277237463547745,1.0684975675740838,0.03820566518216752,0.024459081591252596
0.942,-0.0083,0.763999999999889,0.008162106640016611,1.0657655549315246,0.037119114404032434,0.024280705968927545
0.9429999999999998,-0.0126,-0.236000000000111,0.008109789325462448,1.0690840945229163,0.036625368097914925,0.024497376476085343
0.9439999999999997,-0.0163,-1.236,0.00828362285949992,1.0843690414607474,0.03826592755785234,0.025495344743057556
0.9450000000000001,-0.0061,-1.236,0.008255419728214159,1.1020900456987852,0.037999759616856914,0.02665236543540098
0.946,-0.0072,-1.235999999999778,0.008201589844948868,1.105299530404195,0.037491738395823905,0.02686191564858518
0.9469999999999998,-0.0061,0.764,0.008210884498951042,1.0929787138038647,0.03757945698610939,0.02605747818208136
0.9479999999999997,-0.0054,0.763999999999889,0.008185899307374324,1.0832122227791747,0.03734365845260724,0.025419814985607577
0.9490000000000001,0.0084,-0.236,0.008244137908719985,1.077234098356334,0.037893287089568344,0.02502949773463692
0.95,0.0102,-0.23599999999988897,0.008159136180952105,1.0870543003510607,0.037091080602927165,0.02567066776982613
0.9509999999999998,0.0084,0.764,0.008170175962910062,1.081097421602289,0.037195268893334174,0.025281737668488225
0.9519999999999997,0.0036,0.764,0.008231525502453773,1.0967865795868674,0.03777425710765388,0.026306097247085797
0.9530000000000001,0.0022,0.764,0.008217196657971819,1.0967865795868672,0.03763902818594436,0.026306097247085783
0.954,-0.0069,0.764,0.008212233466254203,1.0967865795868672,0.03759218790757746,0.026306097247085783
0.9549999999999998,-0.008,0.764000000000111,0.008215317326324774,1.0908828462512568,0.037621291934253974,0.02592063705873388
0.9559999999999997,0.0022,1.763999999999889,0.008312893588877534,1.078397329912245,0.03854217098951013,0.02510544619456036
0.9570000000000001,0.017,0.764,0.00831003209460003,1.078397329912245,0.03851516554701878,0.02510544619456036
0.958,-0.0012,0.763999999999889,0.008312222218656256,1.0723923648764209,0.03853583491187277,0.024713376495240854
0.9589999999999999,0.001,-0.236000000000111,0.008251167824367175,1.0723923648764209,0.0379596321402021,0.024713376495240854
0.9599999999999997,0.0031,-1.236,0.008314140489163634,1.0849469882573148,0.03855393865028564,0.02553307942184437
0.9610000000000001,0.0013,-1.236,0.008332211603765405,1.082256500786844,0.03872448536427672,0.02535741501626043
0.962,0.0067,1.764,0.008296196642089674,1.0795593080799921,0.038384593027602096,0.0251813128196159
0.9629999999999999,-0.0013,-0.236,0.008342155742221564,1.0768553597530717,0.0388183334845805,0.02500476954231342
0.9639999999999997,-0.0089,-0.236,0.008326606497536249,1.0866789843735136,0.0386715869974621,0.02564616304388871
0.9650000000000001,0.0002,-1.236,0.008034192615924012,1.0834143399437113,0.03591192176743482,0.02543301140148251
0.966,0.0063,-0.236,0.007860982251066058,1.086678984373512,0.034277243486282964,0.025646163043888608
0.9669999999999999,0.003,-2.236,0.0077987703887248275,1.080720036902449,0.03369011707336526,0.02525709787376646
0.9679999999999997,-0.0035,-0.236,0.007779852911058337,1.0807200369024508,0.03351158278125781,0.025257097873766576
0.9690000000000001,-0.0119,-0.236,0.007776441438837952,1.0807200369024508,0.03347938690458502,0.025257097873766576
0.97,0.0048,1.764,0.007776938445535575,1.0807200369024508,0.033484077420968705,0.025257097873766576
0.9709999999999999,0.0026,0.764,0.007743005022251455,1.0807200369024508,0.033163829668513625,0.025257097873766576
0.9719999999999998,-0.0087,-1.236,0.007693600932002223,1.074728049901843,0.0326975770086528,0.02486587552232248
0.9730000000000001,-0.0069,-0.236,0.007635567672493604,1.0747280499018428,0.03214988629175496,0.024865875522322462
0.974,-0.0087,-0.236,0.007636021465082625,1.0714269915222565,0.03215416897362581,0.024650346379588177
0.9749999999999999,-0.0041,-0.236,0.00761704522399447,1.0839927957536513,0.03197508009987309,0.02547077931422135
0.9759999999999998,-0.0026,-1.236,0.007684485692347543,1.0839927957536513,0.03261155164693025,0.02547077931422135
0.9770000000000001,0.001,-1.236,0.007654132815031056,1.0899338503608527,0.03232509540996996,0.025858676242778
0.978,0.0046,0.764,0.007655663303975724,1.0926054328968289,0.03233953944765468,0.02603310632777244
0.9789999999999999,0.0148,-0.236,0.007642051370550661,1.0893585492904911,0.032211076396654915,0.02582111430589257
0.9799999999999998,-0.003,-0.236,0.007620944181787511,1.0952704989311544,0.03201187663701242,0.02620711094437072
0.9810000000000001,0.0039,-1.236,0.00762710477668364,1.101150708461615,0.032070017445640905,0.026591035241812864
0.982,0.0104,-2.236,0.007636158706837234,1.101150708461615,0.03215546419701334,0.026591035241812864
0.9829999999999999,0.0202,-1.236,0.007632864298314624,1.0952704989311546,0.03212437311268032,0.026207110944370733
0.9839999999999998,0.0075,0.764,0.00752538097030414,1.0952704989311544,0.031109995814712334,0.02620711094437072
0.9850000000000001,0.0061,-0.236,0.007434817717810297,1.092031539263183,0.030255302263067416,0.025995636283726788
0.986,-0.0106,0.764,0.00741399033378325,1.0741446047882317,0.030058743169446525,0.024827781853350495
0.9869999999999999,-0.0041,0.764,0.007434513201458238,1.0774373369616674,0.030252428380390856,0.025042767370414616
0.9879999999999998,-0.0098,0.764,0.0074336008606605795,1.0834143399437108,0.03024381813533904,0.02543301140148248
0.9890000000000001,-0.0044,-0.236,0.007495697530161692,1.08341433994371,0.030829857412195124,0.025433011401482422
0.99,0.0003,0.764,0.007575816742774392,1.0708417478377825,0.03158598500807181,0.024612135280267615
0.9909999999999999,0.0017,0.764,0.007573560384428547,1.0384429288982346,0.03156469055502061,0.02249678654398767
0.9919999999999998,0.0082,0.764,0.007466041401246294,0.9985539381168184,0.030549976760244547,0.01989239758776083
0.9930000000000001,0.0169,-2.236,0.007420859019698912,0.9950001930880342,0.030123566609404028,0.01966037030091046
0.994,0.0002,-2.236,0.007318189341696247,1.0014693211286312,0.029154618285200416,0.020082745630426124
0.9949999999999999,-0.0067,0.764,0.00722146668369743,0.995000193088034,0.02824179514984354,0.019660370300910442
0.9959999999999998,-0.0045,0.764,0.007218749345388131,0.9920657994367066,0.02821615018384861,0.01946878103607751
0.9970000000000001,-0.0027,-1.236,0.007254675603797914,0.9855349478812915,0.02855520538065327,0.019042375721415997
0.998,0.01,-0.236,0.007282224695837102,0.9819340865923725,0.02881520080563171,0.01880727217053512
0.9989999999999999,-0.0048,1.764,0.007333236538414552,0.9783199718541042,0.029296626678796282,0.01857130328973637
0.9999999999999998,-0.0146,-0.236,0.007413513375171748,0.9848986669933267,0.03005424185750789,0.01900083235606102
1.0010000000000001,-0.0127,1.7639999999993339,0.007382452442051446,1.0078969283009378,0.02976110332156804,0.020502410024199624
1.002,-0.0047,-1.236,0.007337319170476457,1.0269383958292317,0.029335156647640834,0.021745644981253105
1.003,0.003,-0.236,0.0074364188017515655,1.023483212243822,0.030270412543259014,0.021520052861841305
1.0039999999999998,-0.0036,-0.236,0.007951217887014691,1.0422399610909103,0.035128845146449914,0.022744698273899105
1.0050000000000001,0.012699999999995026,0.764,0.008051939906178458,1.0853229031773213,0.036079412378935076,0.025557623253286747
1.006,0.0015,0.764,0.008030839107129886,1.0820541673492432,0.03588027292242543,0.025344204479717886
1.007,0.0033,-0.236,0.008083352224375914,1.0661482330853909,0.03637586712262275,0.024305691378139326
1.0079999999999998,-0.0021,-0.236,0.008133326062650596,1.0628205266307749,0.03684749679744279,0.024088422358036557
1.0090000000000001,-0.013299999999998046,1.763999999999778,0.008249856034806954,1.0754868920219822,0.03794725208485556,0.02491542102343681
1.01,-0.0089,0.764,0.008455560369350325,1.0787755271577522,0.03988859322972645,0.0251301390411373
1.011,0.0034,0.764,0.00846318328442074,1.0885818238628808,0.03996053473111922,0.025770401187158284
1.0119999999999998,0.0114,0.764,0.008467329581745982,1.0859003423019087,0.039999665542894434,0.025595324785702287
1.0130000000000001,0.0039000000000015984,1.763999999999556,0.008715835600899972,1.1372549052776908,0.04234494893618139,0.028948311513265563
1.014,0.0075,-0.236,0.00878199599574185,1.1521796239063318,0.04296933974910499,0.02992276014206703
1.015,-0.0012,0.763999999999778,0.008754207418747493,1.1552499594582635,0.042707084177309125,0.030123225178828178
1.0159999999999998,-0.0045,-0.236,0.008760146775348837,1.1496464899749412,0.042763137042553044,0.02975736949401307
1.0170000000000001,0.00020000000000275337,0.7640000000002221,0.0087973275536121,1.1527235726726013,0.04311403181004067,0.02995827505813469
1.018,0.0064,1.764,0.008798537050505267,1.1326697670379715,0.04312544647511572,0.028648943613492534
1.019,-0.0012,-0.236,0.008792480080089348,1.1326697670379715,0.043068283625787386,0.028648943613492534
1.0199999999999998,-0.0004,-0.236,0.0087170872702907,1.135792843895944,0.04235676160553223,0.028852852178713504
1.0210000000000001,-0.006499999999996003,-0.236,0.008757934478899257,1.1238063895359613,0.042742258425037497,0.02807024553091635
1.022,0.0025,-0.236,0.008755690100622115,1.1238063895359611,0.04272107703426251,0.028070245530916336
1.023,-0.0011,-0.2359999999995559,0.008716774468146692,1.1180453408718432,0.04235380952543283,0.02769410135621577
1.0239999999999998,-0.0043,1.764,0.008698588593056777,1.121209154140573,0.04218217975571551,0.0279006696392239
1.0250000000000001,-0.010799999999997291,-0.236,0.008658277043828419,1.121209154140573,0.0418017382385048,0.0279006696392239
1.026,-0.0047,-1.236,0.008654766687939958,1.1269540293398113,0.041768609144095886,0.028275757833502505
1.027,-0.0025,-1.236,0.008729269555384667,1.121209154140573,0.042471732305318234,0.0279006696392239
1.0279999999999998,-0.0002,-0.236,0.008779838437429372,1.1154346912356647,0.042948977724484694,0.027523649636384137
1.0290000000000001,0.003400000000000666,-1.236,0.00877485217731974,1.1154346912356647,0.0429019197374406,0.027523649636384137
1.03,0.0049,-1.236,0.00869561485327084,1.121209154140573,0.04215411499269826,0.0279006696392239
1.031,0.0046,-0.236,0.008691168870565823,1.1269540293398113,0.04211215589069979,0.028275757833502505
1.0319999999999998,0.0082,-0.236,0.008699248722406601,1.1243640648882383,0.042188409747273996,0.028106656668430176
1.0330000000000001,0.0013000000000003551,-1.236,0.00864423018879347,1.1243640648882383,0.04166917060109493,0.028106656668430176
1.034,0.0021,-0.236,0.008417591634795177,1.1619059274507708,0.03953026209988315,0.030557799460932136
1.035,-0.0116,0.764,0.008466915022011369,1.1588532267555942,0.0399957531223244,0.03035848582021481
1.0359999999999998,-0.0058,0.764,0.008459068529801694,1.1644123917575204,0.03992170160462856,0.030721448824623653
1.0370000000000001,-0.003999999999993427,-1.236,0.008422239280444384,1.1669134723327614,0.03957412440227758,0.030884746679525156
1.038,0.0108,0.764,0.008413322186979134,1.1669134723327614,0.039489969051467025,0.030884746679525156
1.039,0.0126,0.764,0.008361951084213108,1.1694092037199535,0.039005152648942214,0.031047695281010954
1.0399999999999998,0.0072,-1.236,0.00842181977427074,1.1724344198411778,0.03957016529953319,0.031245214428574513
1.0410000000000001,0.002499999999999334,-0.236,0.008513043624791793,1.18392865152918,0.04043109326589421,0.0319956834046533
1.042,0.001,-0.236,0.008511278683429085,1.18392865152918,0.04041443657611995,0.0319956834046533
1.043,-0.0026,-1.236,0.008472627725555076,1.1809328807465391,0.04004966694218857,0.031800086770372646
1.0439999999999998,0.0111,-0.236,0.008387480119523902,1.1669134723327614,0.03924608372483676,0.030884746679525156
1.0450000000000002,0.005699999999992939,0.764,0.008429069974548356,1.1471077621908368,0.03963858929331404,0.029591613618162024
1.046,-0.0102,-0.236,0.0084054599296311,1.1471077621908368,0.0394157687497807,0.029591613618162024
1.047,-0.0088,-0.236,0.008427619187346233,1.149646489974941,0.039624897443338275,0.029757369494013055
1.0479999999999998,-0.0102,-0.236,0.008451339040273146,1.1440155746295964,0.039848754303425944,0.029389721843581747
1.0490000000000002,-0.01379999999999729,-1.236,0.008402917136130787,1.1588532267555942,0.03939177105592545,0.03035848582021481
1.05,-0.0077,-2.236,0.008397395937328078,1.1440155746295966,0.039339664568094256,0.02938972184358176
1.051,-0.0022,-2.236,0.00828214782803535,1.1440155746295966,0.0382520069018851,0.02938972184358176
1.0519999999999998,0.0126,-0.236,0.008209967036974637,1.1321161830447117,0.03757079840977165,0.02861279960457814
1.0530000000000002,0.028199999999993872,-2.236,0.008314283343647607,1.1295380551705612,0.03855528684398356,0.02844447126055028
1.054,0.0144,-3.236,0.008310352759501984,1.1445634033312704,0.038518191832144284,0.02942549008420639
1.055,0.0054,-0.236,0.008357254399606355,1.147654114848478,0.03896082753983932,0.02962728548651195
