time_sec,bts_raw,diy_raw,bts_rms,diy_rms,bts_norm_rms,diy_norm_rms
0.0,-0.0141,0.717,0.005771175154165871,0.8705533681623042,0.009943390373970403,0.02885041806724716
0.001,0.0027,0.717,0.0057734421852402825,0.8705533681623041,0.00996548964617795,0.028850418067247138
0.002,0.0229,-0.283,0.005786051229995288,0.8705533681622974,0.01008840402325165,0.028850418067245972
0.003,0.015,-0.283,0.005804448934142093,0.8728575848209195,0.010267746898840463,0.02925400858824686
0.004,0.0032,-0.283,0.0058529306382179005,0.8728575848209202,0.010740351967006604,0.029254008588246998
0.005,-0.0122,0.717,0.005853453321988165,0.8819655133953493,0.010745447146798323,0.030849289841352334
0.006,-0.0177,0.717,0.005928168096563093,0.8909803422399524,0.011473775117196987,0.03242826439503123
0.007,-0.0192,-0.283,0.00602012849428806,0.893231866213197,0.01237021534890659,0.032822625632724554
0.008,-0.0041,0.717,0.006035592681916503,0.8909803422399509,0.01252096197771416,0.03242826439503097
0.009000000000000001,-0.0022000000000000092,-0.283,0.006231885178650544,0.8659265405895191,0.014434443167534495,0.02804001521572089
0.01,-0.0074,-0.283,0.006234252195654614,0.8659265405895191,0.014457517113755725,0.02804001521572089
0.011,-0.0087,-1.283,0.006244169116077335,0.8589896197386252,0.014554188362048687,0.026824992535506225
0.012,-0.0099,0.717,0.0062477594160524254,0.8589896197386252,0.014589187007348185,0.026824992535506225
0.013000000000000001,-0.003200000000000002,-0.283,0.006257654930724559,0.8519962206137324,0.014685649589992763,0.025600077514680637
0.014,-0.0041,-0.283,0.006274670017216415,0.8543504880906732,0.014851514554202002,0.026012434587978684
0.015,0.0015,-0.283,0.00627642045210749,0.8613746839690816,0.014868577989095362,0.027242743753382637
0.016,0.0023,-0.283,0.006278770679900105,0.8706027507549855,0.014891488272207485,0.02885906757780166
0.017,0.0017,-0.283,0.006334475350657041,0.8729068370581338,0.015434503626599509,0.029262635266646828
0.018000000000000002,-0.0020999999999999604,-1.283,0.006504669038503576,0.8729068370581338,0.017093570711378306,0.029262635266646828
0.019,0.0093,-0.283,0.006561041450257466,0.8590396670830441,0.017643095279614995,0.026833758479339314
0.02,0.0108,-0.283,0.006609849643007791,0.8729068370581338,0.01811888299585874,0.029262635266646828
0.021,0.0004,-0.283,0.007963636163593456,0.8660258306218187,0.03131574525638011,0.028057406165359258
0.022,-0.0031,-1.283,0.008160528936314753,0.8637033881741596,0.033235078003592725,0.027650623342251875
0.023,0.0056,-0.283,0.008183163627485125,0.8567484670922375,0.03345572350208359,0.02643244786709859
0.024,-0.0108,0.717,0.00818510416318606,0.8258645948254923,0.03347464006091134,0.021023044175817827
0.025,-0.0128,0.717,0.008204803885988293,0.8111936466871439,0.03366667515982712,0.018453383210744332
0.026000000000000002,-0.01049999999999998,-1.283,0.008542525878208739,0.8111936466871439,0.03695882687349168,0.018453383210744332
0.027,-0.0045,-0.283,0.008574364152872714,0.8111936466871439,0.03726918993218971,0.018453383210744332
0.028,-0.0061,0.717,0.008586071505995305,0.8136659812148193,0.03738331451848511,0.018886420085284468
0.029,-0.0013,-0.283000000000222,0.008588359331577592,0.8111936466871439,0.03740561649787878,0.018453383210744332
0.03,0.0003,-1.283,0.008598055681364798,0.8136659812148193,0.037500137598972506,0.018886420085284468
0.031,0.0015,0.717,0.008600340318968832,0.8161308262447649,0.03752240850159798,0.01931814515163179
0.032,0.0052,0.717,0.008608652958059276,0.8161308262447649,0.03760344103621839,0.01931814515163179
0.033,-0.0023,-0.28299999999977793,0.008703031548976286,0.783647828216437,0.038523454085347485,0.013628649743780814
0.034,-0.0015,0.717,0.008945406746167894,0.783647828216437,0.040886154588023936,0.013628649743780814
0.035,0.0012,1.716999999999778,0.009092381970277652,0.7759757159793818,0.04231888549410995,0.012284856067372741
0.036000000000000004,0.010299999999999958,0.717,0.009257042014093409,0.7759757159793818,0.0439240099986056,0.012284856067372741
0.037,0.0043,-0.28299999999977793,0.009258127659044367,0.7759757159793818,0.04393459298688608,0.012284856067372741
0.038,0.0076,0.717,0.010158749530279825,0.7733829033725961,0.052713955613694914,0.011830717092674026
0.039,0.0051,0.7169999999997779,0.01077169081961572,0.7656079338345456,0.05868897578574745,0.010468907648719926
0.04,-0.0086,-0.283,0.010838129909107142,0.7656079338345456,0.05933663145331419,0.010468907648719926
0.041,-0.0103,-0.283,0.01085408059055334,0.7811355227558723,0.05949212047821292,0.013188611839381215
0.042,-0.0012,-0.283,0.010916767330037965,0.7888119513503542,0.06010319781866532,0.014533161538855153
0.043000000000000003,-0.005799999999999988,-0.28299999999977793,0.010937199369793567,0.8063861901809389,0.06030237162506393,0.017611342654892833
0.044,-0.0042,0.717,0.010938995482074405,0.8038914672726919,0.06031988032825621,0.01717438438774169
0.045,-0.0052,-0.283,0.010957019918063055,0.7862614692533685,0.06049558454413428,0.014086436881052582
0.046,-0.0062,-0.283,0.010971411924025912,0.7888119513503542,0.060635879426271425,0.014533161538855153
0.047,-0.0007,-0.283,0.010973267235626145,0.7888119513503542,0.060653965211043485,0.014533161538855153
0.048,0.0001,-0.283,0.010985665466176188,0.7988786503796842,0.06077482454769305,0.01629637433866023
0.049,-0.0024,-0.283,0.011014885070935135,0.8013889783327155,0.06105966051957425,0.016736065876630835
0.05,0.0016,-0.283,0.011014885214378295,0.8112996351733838,0.06105966191787421,0.018471947414861852
0.051000000000000004,0.0038000000000000056,-1.2829999999995558,0.010946785854353715,0.8112996351733838,0.060395821747649105,0.018471947414861852
0.052000000000000005,0.00460000000000002,0.717,0.010977291021083229,0.8088200674264814,0.06069318952125456,0.01803764362008424
0.053,0.0075,-0.283000000000222,0.010738833105970649,0.8088200674264814,0.058368675121960326,0.01803764362008424
0.054,-0.0008,-1.283,0.010633620642452565,0.8088200674264814,0.057343052272253114,0.01803764362008424
0.055,-0.0094,-1.2829999999995558,0.010696476832203324,0.8088200674264814,0.057955781432832365,0.01803764362008424
0.056,-0.0105,0.717,0.010802826080934554,0.8161835016406556,0.05899248579180974,0.01932737140663342
0.057,0.0043,-0.2829999999995559,0.010658358834388074,0.8307663359279129,0.05758420293122556,0.021881598964029653
0.058,0.0155,1.717,0.010535603527888064,0.8307663359279129,0.056387570488077965,0.021881598964029653
0.059000000000000004,0.0017000000000000125,0.717,0.010662194470511284,0.8307663359279129,0.057621593140708215,0.021881598964029653
0.06,0.0035,0.717,0.010664416109239015,0.8403305946771199,0.05764324992324865,0.023556807828237828
0.061,0.0021,-0.283,0.01063960712043689,0.842717452596711,0.05740140912851034,0.023974873216194435
0.062,0.0035,0.717,0.010609312231430556,0.8355878757093509,0.05710609116564466,0.022726106248158382
0.063,0.0046,0.717,0.010563643795165596,0.8331805935520689,0.05666091014642358,0.022304463493160415
0.064,-0.0015,1.717,0.010562094124686026,0.842717452596711,0.05664580378544488,0.023974873216194435
0.065,0.0017,-1.283,0.010554757168471936,0.8730053331966043,0.056574282316515685,0.029279887163378485
0.066,-0.0084,0.717,0.010573161352074005,0.8730053331966043,0.05675368835455836,0.029279887163378485
0.067,-0.0148,0.717,0.010628926080807061,0.8889165905252809,0.05729728916081185,0.03206679203668154
0.068,-0.0086,0.717,0.010627934192877992,0.8889165905252809,0.05728762012645617,0.03206679203668154
0.069,0.008,1.717,0.010651753974470133,0.895669746387112,0.05751981801878797,0.03324962772293448
0.07,0.0444,0.717,0.010611510137379489,0.895669746387112,0.05712751659840573,0.03324962772293448
0.07100000000000001,0.017799999999999667,-0.283,0.010576328220203008,0.895669746387112,0.05678455933891238,0.03324962772293448
0.07200000000000001,-0.0060999999999999405,0.717,0.010576245856158262,0.895669746387112,0.05678375644500171,0.03324962772293448
0.073,-0.0018,-0.283,0.010580832397422347,0.9023723645342966,0.05682846656169584,0.034423611575524954
0.074,-0.0057,0.717,0.010586391111697735,0.9111853201816464,0.05688265352952453,0.03596722742777676
0.075,-0.0238,-0.283,0.010657996331770113,0.9089782677016219,0.05758066921520345,0.03558065550670486
0.076,-0.0074,-1.283,0.010657996331770113,0.9089782677016219,0.05758066921520345,0.03558065550670486
0.077,-0.0045,0.717,0.010645996806104521,0.9089782677016219,0.057463696498314606,0.03558065550670486
0.078,-0.002,-0.283,0.010667219323308604,0.9089782677016219,0.057670575967200634,0.03558065550670486
0.079,-0.0041,0.717,0.0106510406989924,0.9067658433097012,0.057512864929737124,0.03519314267900734
0.08,-0.002,0.717,0.01065075516984825,0.9067658433097006,0.05751008155973794,0.03519314267900722
0.081,-0.0038,0.717,0.010670025980020103,0.897909511673554,0.0576979355704106,0.03364192939104906
0.082,-0.0128,-0.283,0.010693333480678557,0.897909511673554,0.05792513969096393,0.03364192939104906
0.083,-0.0207,-0.283,0.010831506437188089,0.8956697463871113,0.059272065109010244,0.03324962772293435
0.084,-0.0163,0.717,0.010915641078798558,0.895669746387112,0.060092218995748126,0.03324962772293448
0.085,-0.0174,0.717,0.010921896874578106,0.8934243661510837,0.06015320119196392,0.03285634257940734
0.08600000000000001,0.0014000000000005607,1.717,0.010949881888975346,0.9177277889402506,0.06042600223905908,0.03711316063029783
0.08700000000000001,0.041799999999999914,-0.283,0.010902219257024745,0.9177277889402506,0.059961381577483944,0.03711316063029783
0.088,0.0358,0.717,0.010918216489652686,0.9177277889402513,0.06011732438850346,0.037113160630297945
0.089,-0.012,-0.283,0.010893297241892684,0.9155365083012663,0.059874408777124584,0.036729351194914384
0.09,-0.0059,1.717,0.010901374137858405,0.9155365083012679,0.05995314326142575,0.036729351194914654
0.091,-0.0117,1.717,0.01091420747467386,0.9155365083012679,0.060078244062564734,0.036729351194914654
0.092,-0.0067,1.717,0.01099146873571468,0.9155365083012679,0.0608313954675505,0.036729351194914654
0.093,-0.002,-0.283,0.0112164186688816,0.9155365083012679,0.06302423254959877,0.036729351194914654
0.094,-0.0063,-0.283,0.011387226241753982,0.9155365083012686,0.06468928385419856,0.03672935119491479
0.095,0.0056,0.717,0.011417338055936239,0.9133399703679846,0.0649828171832243,0.036344620928524626
0.096,0.002,0.717,0.011430320358611412,0.9155365083012686,0.06510937012020769,0.03672935119491479
0.097,0.0052,-1.283,0.011567675294666688,0.9155365083012686,0.06644832138346891,0.03672935119491479
0.098,0.008,0.717,0.011640493222741589,0.9177277889402536,0.06715815868225167,0.037113160630298354
0.099,-0.0,-1.283,0.01169537790720369,0.9177277889402536,0.06769318071862501,0.037113160630298354
0.1,-0.007,0.717,0.011697657496567645,0.9199138498543518,0.06771540241044215,0.03749605581507154
0.101,0.0086,-0.283,0.011721973367708187,0.9199138498543518,0.06795243623911959,0.03749605581507154
0.10200000000000001,0.0026999999999999737,-0.283,0.011748144607760056,0.919913849854358,0.06820755641124403,0.03749605581507263
0.10300000000000001,0.0008000000000001555,-0.283,0.011741689719528988,0.9263946772474951,0.06814463343956632,0.03863119234588708
0.10400000000000001,0.012000000000000103,-0.283,0.01180354012630465,0.9263946772474944,0.06874755811532873,0.03863119234588694
0.105,0.0194,-1.283,0.011827837754889752,0.9177277889402594,0.0689844141135375,0.03711316063029936
0.106,0.0016,1.717,0.011792406086839242,0.9089782677016413,0.0686390222546196,0.03558065550670825
0.107,-0.0104,-0.283,0.011752139711883325,0.9089782677016413,0.06824650113260852,0.03558065550670825
0.108,-0.0169,0.717,0.011756531766526688,0.9111853201816671,0.06828931537199397,0.035967227427780385
0.109,-0.0031,-1.283,0.011761397687778124,0.897909511673574,0.06833674891601978,0.033641929391052566
0.11,-0.0013,0.717,0.011852683634659198,0.8956697463871315,0.06922661452554707,0.03324962772293789
0.111,0.0033,0.717,0.01185287665877651,0.9023247206365319,0.06922849614620911,0.0344152666026469
0.112,-0.001,-0.283,0.0118528136687798,0.917727788940256,0.06922788211268334,0.03711316063029876
0.113,0.0026,-1.283,0.01185582607171757,0.9177277889402576,0.06925724735309491,0.03711316063029905
0.114,-0.0011,-2.283,0.01189431565985128,0.930720952355679,0.06963244815864365,0.03938895252367751
0.115,0.0064,-0.283,0.011897220049079003,0.9307209523556749,0.06966076046934137,0.03938895252367679
0.116,0.0111,1.717,0.011933994219102937,0.9242704605661863,0.07001923918749325,0.03825912936564593
0.117,0.0009,-0.283,0.011966035532452419,0.930720952355678,0.070331581489983,0.039388952523677336
0.11800000000000001,0.007399999999999913,1.717,0.011889115434380483,0.9561327844351937,0.06958175577973588,0.04383991181614776
0.11900000000000001,0.001100000000000075,-0.283,0.011858212391628075,0.9561327844351937,0.06928050946620479,0.04383991181614776
0.12,0.0065,-0.283,0.011832271654026867,0.9434896421853864,0.0690276362577233,0.041625427189194514
0.121,0.0,-0.283,0.01096703901589811,0.9413583315350328,0.060593251829258905,0.04125212167880671
0.122,-0.0044,1.717,0.010821777156873087,0.9413583315350328,0.059177222997452254,0.04125212167880671
0.123,-0.0066,-1.283,0.01084446970305873,0.9392221844642155,0.05939843247309609,0.04087796905473825
0.124,-0.0164,-0.283,0.01099110383776226,0.9392221844642155,0.060827838401540456,0.04087796905473825
0.125,-0.0128,0.717,0.011074166506443018,0.9370811678979815,0.06163754257638855,0.04050296352381102
0.126,-0.0092,-1.283,0.010951415904033876,0.9370811678979815,0.06044095598924432,0.04050296352381102
0.127,-0.0081,-0.283,0.011023381989892564,0.9285140342448964,0.06114248943492754,0.039002404137784975
0.128,-0.0016,-0.283,0.0110524739090072,0.9263482688649258,0.06142608071288175,0.038623063777234526
0.129,0.001,-0.283,0.011108139947379518,0.9285140342448914,0.061968719474472155,0.0390024041377841
0.13,0.0064,-0.283,0.011100741101142205,0.9539846550692834,0.061896594694681645,0.043463660456831796
0.131,0.0072,0.717,0.011099437804739055,0.9518768436867092,0.061883890015727125,0.04309447091431132
0.132,0.018,-0.283,0.011103019480162655,0.9497643544512944,0.061918804587935077,0.04272446203170923
0.133,0.0137,-0.283,0.011030193065099815,0.9518768436867092,0.06120888455704566,0.04309447091431132
0.134,-0.004,-0.283,0.010844669082811316,0.9539846550692834,0.0594003760492009,0.043463660456831796
0.135,0.0079,2.717,0.010721741585985899,0.9787926912403799,0.05820206507552249,0.04780886306867704
0.136,0.0015,0.717,0.010589121453952327,0.9848861555043862,0.05690926921088199,0.04887615177514846
0.137,0.0073,-0.283,0.010698398712806655,0.9726168530020042,0.057974516139684344,0.04672714631130673
0.138,0.0019,-0.283,0.010110426080145306,0.9989740485228564,0.05224289322263008,0.05134368887147751
0.139,0.0066,0.717,0.00959449231114628,1.0324647900744715,0.0472135131974203,0.05720969360716311
0.14,-0.0101,-0.283,0.009519380941137207,1.0324647900744712,0.046481319170418194,0.05720969360716307
0.14100000000000001,-0.01660000000000016,-0.283,0.009503549743839932,1.0187978943942446,0.04632699489035305,0.05481589546869025
0.14200000000000002,-0.022399999999999948,-0.283,0.009439055377097032,1.006941881670168,0.04569829659742176,0.0527392789602562
0.14300000000000002,-0.02049999999999969,-0.283,0.00946004109873043,0.992923743265354,0.04590286775662771,0.0502839595956072
0.14400000000000002,-0.009299999999999533,-0.283,0.009469057672997027,1.0009397401339377,0.04599076232999557,0.05168798570592441
0.145,0.0075,0.717,0.009623449842328541,1.0009397401339377,0.04749579444679463,0.05168798570592441
0.146,0.0188,-0.283,0.009693023758521907,1.012866012827009,0.04817400875530444,0.0537769084605554
0.147,0.013,0.717,0.009692214900591658,1.0362653956675476,0.048166123917827104,0.05787538117855052
0.148,0.0113,-0.283,0.009754974032846551,1.0304757946596295,0.04877790695109247,0.0568613150409633
0.149,0.0033,0.717,0.00988031029163027,1.0362653956675476,0.0499996988054701,0.05787538117855052
0.15,0.0077,-0.283,0.010506099363722899,1.0285247526524128,0.056099960599311265,0.05651958412896734
0.151,0.0087,-1.283,0.010520735561254109,1.0265700026096707,0.056242635888140116,0.05617720374332747
0.152,-0.0025,-1.283,0.01049835548796079,1.0515757591047084,0.056024472433163094,0.06055703766827138
0.153,0.0142,-0.283,0.010528541896497042,1.0515757591047084,0.05631873291628594,0.06055703766827138
0.154,0.0076,-0.283,0.010588882260167163,1.053484111744136,0.05690693752313921,0.06089129140830841
0.155,-0.0021,-0.283,0.010522726785837638,1.066706692028651,0.056262046567858826,0.06320726636059212
0.156,-0.0039,0.717,0.01034201536204801,1.0591885400529006,0.054500451417965674,0.06189043928988103
0.157,-0.0054,0.717,0.010402114949667762,1.0477896577169996,0.05508630891297817,0.0598938905523481
0.158,-0.0159,0.7169999999997779,0.010365215963249092,1.0477896577169996,0.05472661347066474,0.0598938905523481
0.159,-0.0148,-0.283,0.010286678960304937,1.045870914720368,0.05396102599106729,0.0595578169098025
0.16,-0.0036,-1.2829999999993338,0.010326613825188189,1.045870914720368,0.054350315515850574,0.0595578169098025
0.161,-0.0021,1.717,0.010326141569107296,1.043948645143683,0.054345711910809114,0.05922112557608807
0.162,0.0044,0.717000000000222,0.010322591823994292,1.0666663883404537,0.0543111085988364,0.06320020704763345
0.163,0.0106,1.717,0.010322448445829285,1.074132202037803,0.05430971093246434,0.06450786691049144
0.164,0.003,1.716999999999778,0.01032211357811194,1.0685477904969696,0.054306446604541064,0.06352974032902832
0.165,0.0095,0.717,0.010326450605545209,1.0439486451436828,0.05434872443253436,0.05922112557608804
0.166,0.0121,-1.283000000000222,0.010306714212280072,1.0439486451436828,0.05415633186584902,0.05922112557608804
0.167,0.0059,-2.283,0.010257267691597375,1.0381604808579776,0.05367432165760048,0.05820731108474437
0.168,0.0005,0.717,0.01026323537804243,1.0400934480016473,0.053732495331833316,0.05854587612969017
0.169,-0.0017,0.717,0.010236443531322428,1.0284829527100912,0.05347132541656787,0.05651226274257067
0.17,0.0005,-0.283,0.010248124839825101,1.0362239079728761,0.05358519611699835,0.05786811448327473
0.171,-0.001,-0.283,0.010265014522179627,1.0362239079728761,0.05374983862766555,0.05786811448327473
0.17200000000000001,-0.00930000000000024,-0.283,0.010510475164689238,1.0362239079728761,0.05614261639603707,0.05786811448327473
0.17300000000000001,-0.01799999999999991,-0.283,0.010870334040532342,1.0303923513752011,0.05965056092459762,0.05684669969717154
0.17400000000000002,-0.014700000000000069,-0.283,0.011099467972264855,1.0303923513752011,0.06188418409213923,0.05684669969717154
0.17500000000000002,-0.017199999999999927,-0.283,0.011090771054560175,1.0553075403175798,0.061799405566651984,0.06121067044118293
0.176,-0.0146,-0.283,0.011022368575010821,1.0534024910215716,0.061132610553432006,0.06087699529174272
0.177,-0.0092,-0.283,0.011187109415830813,1.0534024910215716,0.06273852267615235,0.06087699529174272
0.178,-0.0113,0.7169999999993338,0.011296107921507828,1.0534024910215716,0.0638010522878373,0.06087699529174272
0.179,-0.0005,-2.283,0.011295889551559654,1.0609616447024672,0.06379892359318415,0.062201003935193344
0.18,0.001,-0.283,0.011296403495750274,1.0851752017109442,0.06380393357857703,0.06644208172263545
0.181,0.0047,-0.283,0.011296976033066921,1.0851752017109442,0.06380951473630898,0.06644208172263545
0.182,-0.0015,0.717,0.011318887615036136,1.0851752017109442,0.06402311128551437,0.06644208172263545
0.183,-0.0047,0.717,0.011180301311579363,1.0925145407946297,0.06267215651524331,0.06772758917416054
0.184,0.0,-2.282999999999778,0.011097101525746812,1.0998049032837656,0.06186111570707952,0.06900451822693254
0.185,0.0044,-1.283,0.011112545169004269,1.1016297117669351,0.0620116620670633,0.06932413895517156
0.186,0.0153,0.717,0.011225014223435257,1.0924751892122133,0.06310802297576458,0.06772069662541075
0.187,0.0229,-2.283,0.012304366285154668,1.0979379062237014,0.07362966746884068,0.06867750804177528
0.188,0.0163,2.717,0.012839892176298301,1.0979379062237014,0.07885003368973355,0.06867750804177528
0.189,-0.0001,-0.283,0.012873691510928884,1.0979379062237014,0.07917951338009425,0.06867750804177528
0.19,0.0021,-0.283,0.012857413771338644,1.0979379062237014,0.07902083615586536,0.06867750804177528
0.191,-0.0038,0.717,0.012826371612558144,1.0979379062237014,0.07871823372374906,0.06867750804177528
0.192,-0.0092,-0.283,0.012741311098293039,1.0979379062237014,0.07788905432692651,0.06867750804177528
0.193,-0.0046,-1.283,0.012639597545015667,1.1051924942570854,0.07689753924517716,0.06994817109035824
0.194,-0.0183,-0.283,0.012598662072933801,1.1051924942570854,0.07649849568962447,0.06994817109035824
0.195,-0.0129,1.717,0.012614083816238167,1.1070084217940193,0.07664882856641866,0.07026623629398768
0.196,-0.0016,-2.283,0.012592420192954295,1.1284573790094254,0.0764376491461823,0.07402308606117425
0.197,0.0122,0.717,0.012469480533535913,1.1355170010528834,0.07523921961018876,0.07525960022659674
0.198,0.0176,-1.283,0.012409569806428834,1.1337467367624245,0.07465520314855507,0.0749495330787779
0.199,0.0357,-0.283,0.01238927092117993,1.1337467367624245,0.07445732734716504,0.0749495330787779
0.2,0.0089,-0.283,0.012513769403351263,1.144289674724077,0.0756709524615208,0.07679616056881955
0.201,0.0052,-2.283,0.012545731638637762,1.146043653723898,0.07598252390221724,0.07710337529869905
0.202,0.0084,-0.283,0.012545040725156182,1.1512895578102347,0.0759757888004034,0.07802221127508308
0.203,0.0113,0.717,0.012633364718251643,1.1565116668693616,0.07683678095349102,0.0789368794804405
0.20400000000000001,-0.002199999999999939,1.717,0.012584741546858484,1.1582471377757153,0.07636279684610926,0.0792408524617382
0.20500000000000002,-3.1363800445660645e-16,-0.283,0.012562355669586515,1.1599800122098332,0.07614457681329988,0.0795443706630661
0.20600000000000002,-0.011299999999999841,0.717,0.01256078181870885,1.1599800122098332,0.07612923473909887,0.0795443706630661
0.20700000000000002,-0.005600000000000153,-0.283,0.012623796318005554,1.1582471377757153,0.07674350711881983,0.0792408524617382
0.20800000000000002,-0.011099999999999959,-0.283,0.01266357375724267,1.1582471377757153,0.07713126204081551,0.0792408524617382
0.209,-0.0096,-1.283,0.01256584258795236,1.156511666869363,0.07617856768312167,0.07893687948044073
0.21,0.0008,-0.283,0.012478903870005045,1.1582471377757166,0.07533107934695425,0.07924085246173844
0.211,0.0019,-2.283,0.012473914181931132,1.1530701736178215,0.07528243931011454,0.07833409152245363
0.212,0.0008,-1.283,0.012475741061843895,1.1408489962153876,0.07530024793962048,0.07619351531550864
0.213,-0.0025,0.717,0.0124745979112185,1.1390870184516046,0.07528910437960051,0.07588489957791458
0.214,-0.0032,-0.283,0.012429575214671773,1.1267141795875255,0.07485021810330093,0.07371775940698984
0.215,-0.0007,-0.283,0.012437998955683423,1.1142039532160268,0.07493233367186262,0.07152655539836522
0.216,-0.0047,-1.283,0.012404878454192674,1.112399772025118,0.07460947132279468,0.07121054760278997
0.217,0.0036,0.717,0.012350746036562098,1.107008421794028,0.07408178246754542,0.0702662362939892
0.218,0.0003,0.717,0.012336769387056095,1.0832829912097208,0.07394553652655723,0.06611065532695581
0.219,0.005,-1.283,0.012337435041551603,1.0887918285525955,0.07395202540095268,0.06707554485893652
0.22,-0.0088,-0.283,0.012372949742406644,1.0887918285525955,0.07429822667292638,0.06707554485893652
0.221,-0.0226,-0.283,0.012373231268944233,1.0887918285525955,0.0743009710250696,0.06707554485893652
0.222,-0.0281,-1.283,0.012396052014414813,1.0887918285525955,0.07452343020166664,0.06707554485893652
0.223,-0.0234,-1.283,0.012412630441864005,1.0887918285525955,0.07468503856474029,0.06707554485893652
0.224,-0.0158,-2.283,0.012394464759474349,1.0887918285525955,0.07450795746316384,0.06707554485893652
0.225,-0.0035,-0.283,0.012612488666045099,1.0887918285525955,0.07663327886411134,0.06707554485893652
0.226,0.0212,-1.283,0.012570683320701243,1.0906350638428934,0.0762257556868103,0.06739839309820905
0.227,0.0176,-0.283,0.012543181555111183,1.1142039532160244,0.07595766540308066,0.07152655539836479
0.228,0.0014,-1.283,0.01255336772889725,1.1142039532160244,0.07605696136324305,0.07152655539836479
0.229,-0.0015,-2.283,0.012502571510145943,1.1142039532160286,0.07556179414742065,0.07152655539836553
0.23,0.0065,-0.283,0.012592351053880822,1.0906350638428972,0.07643697517076921,0.06739839309820972
0.231,-0.0101,0.717,0.012602745664557751,1.0924751892122258,0.07653830299703226,0.06772069662541293
0.232,-0.0036,-1.283,0.012616119087620396,1.092475189212225,0.07666866861925242,0.0677206966254128
0.233,-0.0017,-1.283,0.012673932170950404,1.092475189212225,0.07723223701497858,0.0677206966254128
0.234,-0.0071,0.717,0.012866785035655004,1.0906350638428965,0.07911218828746765,0.06739839309820961
0.23500000000000001,0.01770000000000091,-2.283,0.012968145495238278,1.0665454681376623,0.08010026137243596,0.06317902750817413
0.23600000000000002,0.05039999999999964,-1.283,0.012960618552312009,1.0665454681376567,0.08002688789180934,0.06317902750817316
0.23700000000000002,0.037399999999999226,-0.283,0.013201717547953502,1.0665454681376567,0.08237714783918595,0.06317902750817316
0.23800000000000002,0.009499999999999698,-0.283,0.013908783833665705,1.0438250932445694,0.08926970899245085,0.059199485087053624
0.23900000000000002,-0.0014000000000000915,0.717,0.01479528356071816,1.0087215847819309,0.09791140737990406,0.05305099934619109
0.24,-0.0047,-0.283,0.015098713607942318,1.0107108548767323,0.10086927738232392,0.05339942602341706
0.241,-0.0076,-0.283,0.015100657061745563,1.0107108548767325,0.10088822238713903,0.053399426023417094
0.242,-0.0156,-1.283,0.015115454248343273,1.0087215847819289,0.10103246701537534,0.05305099934619074
0.243,-0.0178,-0.283,0.015276953076648636,1.0107108548767318,0.10260677563787474,0.053399426023416977
0.244,-0.0112,0.717,0.015273824731899907,1.0027729696827394,0.10257628018373581,0.052009081409293535
0.245,-0.0014,-2.283,0.01517580953182387,1.0047740170242403,0.10162081706220812,0.05235957090692035
0.246,-0.0068,-1.283,0.015121312814862883,0.9927505370063188,0.10108957697638303,0.050253621995163644
0.247,0.0045,-0.283,0.015121028665524205,0.9744592476276379,0.10108680705688175,0.04704984730561923
0.248,0.0088,-0.283,0.015071645983855011,0.9723958189576579,0.10060541915846953,0.046688431529524885
0.249,0.0179,1.717,0.014968959803996493,0.9641425336987379,0.0996044228041361,0.04524284363953521
0.25,0.0118,0.717,0.014539437203631569,0.9641425336987373,0.09541738850544573,0.04524284363953509
0.251,0.0086,1.717,0.014512856482599439,0.9662235879172629,0.09515827666697461,0.04560734658379735
0.252,0.0151,1.717,0.014505659011451847,0.9410842744036133,0.09508811491405825,0.041204119742860396
0.253,0.0089,0.717,0.014507430855088797,0.9558629633222281,0.09510538704379838,0.0437926518316531
0.254,0.0013,0.717,0.014473360093451229,0.9558629633222281,0.09477326145264718,0.0437926518316531
0.255,0.0006,-0.283,0.014479080426297357,0.9432162043192766,0.09482902389636101,0.041577533719441256
0.256,-0.0132,-0.283,0.014484112710172662,0.9453433263376598,0.0948780791618319,0.041950105578263404
0.257,-0.0114,0.717,0.014457462233128642,0.9453433263376598,0.09461828733396307,0.041950105578263404
0.258,-0.0024,-0.283,0.014492239875252725,0.9474656728408877,0.09495730367507621,0.04232184099115396
0.259,-0.0009,0.717,0.01464420709307638,0.9474656728408877,0.0964386970936381,0.04232184099115396
0.26,0.0006,0.717,0.014640403502029753,0.9389932895247568,0.09640161926314238,0.04083787741338806
0.261,-0.003,-0.283,0.01464363317577534,0.9389932895247569,0.0964331024836641,0.04083787741338808
0.262,-0.0041,-0.283,0.014643029718651713,0.919633402140875,0.09642721991619904,0.0374469345493381
0.263,-0.0008,-0.283,0.014642801470968657,0.9131045873581931,0.09642499493228261,0.036303392882020814
0.264,-0.0055,-0.283,0.014647254330191132,0.9196334021408719,0.0964684019014989,0.03744693454933755
0.265,-0.0029,-0.283,0.014644006032593982,0.9196334021408719,0.09643673713359133,0.03744693454933755
0.266,-0.0036,0.717,0.01464518864661997,0.9196334021408719,0.09644826538724949,0.03744693454933755
0.267,0.0007,-0.283,0.014637967806525758,0.9109021851405794,0.09637787583123046,0.03591763546848324
0.268,-0.0014,-1.283,0.014633523668009598,0.9086944449776253,0.09633455387243368,0.03553094309766509
0.269,0.0095,0.717,0.014655988130029718,0.9086944449776253,0.09655353995814828,0.03553094309766509
0.27,-0.001,-0.283,0.014854490633703605,0.9020864634027994,0.09848856454254114,0.034373535127121574
0.271,-0.0076,-0.283,0.01488294446196766,0.9304437620475482,0.09876593563959034,0.03934040180234829
0.272,-0.0113,-0.283,0.014711307506522837,0.9304437620475482,0.0970927994210079,0.03934040180234829
0.273,-0.0167,-0.283,0.014444375950724361,0.9218149439523544,0.09449072079096273,0.037829038199611476
0.274,-0.0276,-0.283,0.014285371484756495,0.91310458735819,0.09294072749122305,0.03630339288202027
0.275,-0.0138,0.717,0.014269578541457884,0.8841913710141861,0.09278677611541097,0.03123915553939713
0.276,-0.012,-2.283,0.014352365614958267,0.8841913710141861,0.09359379375764867,0.03123915553939713
0.277,-0.0105,-0.283,0.014245991002147193,0.8751066090120873,0.09255684214678707,0.02964793198154436
0.278,0.0001,0.717,0.014142923868354671,0.8773988680738777,0.09155213221094119,0.03004942809327296
0.279,0.015,-0.28299999999977793,0.014156767752228874,0.8682430364005287,0.09168708393771674,0.028445756467422815
0.28,0.0052,0.717,0.014179824463681535,0.8472680607804697,0.09191184333707146,0.02477192601107023
0.281,-0.0075,-0.28299999999977793,0.014165052998838145,0.8472680607804697,0.09176784944737014,0.02477192601107023
0.28200000000000003,-0.012200000000000584,0.717,0.014147550215841735,0.8472680607804697,0.09159723036314445,0.02477192601107023
0.28300000000000003,-0.02269999999999964,-0.283,0.014169245377304787,0.8797340240444548,0.0918087172210752,0.03045843772839432
0.28400000000000003,-0.0161999999999991,-0.283,0.014220828260474237,0.8706027507549796,0.09231155292953927,0.02885906757780063
0.28500000000000003,1.6320278461989787e-15,-1.2829999999995558,0.014218425868511247,0.8706027507549796,0.09228813414426605,0.02885906757780063
0.28600000000000003,0.02940000000000111,0.717,0.014124066656363616,0.8426154160138544,0.09136831000154605,0.023957001199914115
0.28700000000000003,0.0494000000000002,0.7169999999997779,0.013203333937296806,0.8330773888810623,0.0823929045831028,0.022286386882705664
0.28800000000000003,0.05299999999999873,-0.283,0.01266294450641207,0.8354849684019315,0.07712512803341294,0.02270808172183584
0.289,0.0301,0.7169999999997779,0.012627156425312404,0.8378856300153765,0.07677626182027002,0.023128564868545018
0.29,0.0032,-0.283,0.012660472768070077,0.8354849684019315,0.07710103325188919,0.02270808172183584
0.291,-0.0077,-0.28299999999977793,0.012676341468206924,0.8520971338685234,0.07725572311382464,0.02561775277665073
0.292,-0.024,0.717,0.012670237728644482,0.8520971338685234,0.07719622317860236,0.02561775277665073
0.293,-0.0034,-0.28299999999977793,0.012585569136717146,0.8450466961466261,0.07637086428451767,0.024382847272944094
0.294,-0.006,0.717,0.012459581186080038,0.8450466961466261,0.07514271966514002,0.024382847272944094
0.295,0.0009,0.7169999999995559,0.01241063194233656,0.8426664358497021,0.07466555696805546,0.02396593747856401
0.296,-0.0013,-1.283,0.01241004972102733,0.8210383174178464,0.07465988140968181,0.020177707082121302
0.297,0.0004,-0.283,0.012401514989322073,0.8137188161703672,0.07457668389143791,0.018895674287642945
0.298,-0.0014,-0.283,0.012393353717291932,0.8137188161703672,0.07449712689983348,0.018895674287642945
0.299,-0.0029,-0.28299999999977793,0.012374253234703208,0.8450466961466261,0.07431093326147178,0.024382847272944094
0.3,0.0015,0.717,0.012248611674291768,0.8282931398647173,0.07308616529271593,0.021448411188935885
0.301,0.0025,0.717000000000222,0.012195202306371446,0.8567484670922316,0.0725655248068282,0.026432447867097558
0.302,0.0087,1.717,0.012167750888017536,0.8426154160138543,0.07229792531358181,0.023957001199914094
0.303,0.0054,0.717,0.012080835501235192,0.8258125369494126,0.07145066441221731,0.021013926081279877
0.304,0.0046,0.717,0.012050861474298489,0.8330257817507506,0.07115847424865614,0.02227734773765308
0.305,0.0038,0.717,0.012106636213131489,0.8330257817507506,0.07170217263448231,0.02227734773765308
0.306,-0.0071,0.717,0.01211888491862399,0.8354335099947434,0.07182157438416459,0.022699068626088434
0.307,-0.0115,0.7169999999997779,0.012048838585645238,0.8449449408461176,0.07113875490404797,0.024365024524118303
0.308,-0.0238,-0.283,0.011998503878655909,0.8425643930886003,0.07064808655644579,0.023948064380145358
0.309,-0.009,-0.283,0.0120003587822617,0.8519962206137264,0.07066616836404245,0.025600077514679586
0.31,-0.0032,-0.283,0.012048377117560386,0.8496354296869838,0.07113425646159725,0.02518657783940686
0.311,-0.0014,-1.2829999999995558,0.012048224491704394,0.8472680607804697,0.07113276864770023,0.02477192601107023
0.312,0.0,0.717,0.012124678215970021,0.8472680607804697,0.07187804809397576,0.02477192601107023
0.313,-0.0044,-1.2829999999997779,0.01259437470263435,0.8496354296869838,0.07645670192491981,0.02518657783940686
0.314,-0.0008,-0.283,0.012689372296190694,0.8496354296869838,0.07738274908093797,0.02518657783940686
0.315,-0.002,-0.283,0.012706780954621842,0.8659761870286973,0.07755245062838499,0.028048710939787797
0.316,-0.0009,-0.283,0.012705276851498023,0.8659761870286973,0.07753778846308136,0.028048710939787797
0.317,-0.0003,-0.283,0.01270029456307169,0.8659761870286973,0.07748922055883302,0.028048710939787797
0.318,0.0081,0.717,0.01270202799879333,0.8659761870286973,0.07750611828392343,0.028048710939787797
0.319,0.0247,0.717,0.012724702377465145,0.8590396670830381,0.07772715066061262,0.026833758479338263
0.32,0.0127,-2.283,0.012689088478370058,0.8590396670830381,0.07737998239311158,0.026833758479338263
0.321,0.0014,-0.283,0.012689292674356244,0.8613746839690757,0.07738197291839963,0.027242743753381607
0.322,0.0032,-0.283,0.012666638137281966,0.8613746839690757,0.07716113395982012,0.027242743753381607
0.323,-0.0095,-0.283,0.012616600936914262,0.8637033881741537,0.07667336574000579,0.027650623342250845
0.324,-0.0143,-0.283,0.012533884876253166,0.8660258306218128,0.0758670403388597,0.028057406165358227
0.325,-0.0158,-0.283,0.012349570700469265,0.8660258306218128,0.0740703251599928,0.028057406165358227
0.326,-0.0121,-0.283,0.0124108148604387,0.8660258306218128,0.07466734007415247,0.028057406165358227
0.327,0.0042,0.717,0.012420868325974312,0.8354849684019315,0.074765342379462,0.02270808172183584
0.328,0.0064,-0.283,0.01238296333310425,0.8378856300153765,0.07439584027385983,0.023128564868545018
0.329,0.0082,-1.283,0.012382989893295022,0.8378856300153765,0.07439609918556703,0.023128564868545018
0.33,-0.0008,-0.283,0.012295290657431242,0.8402794330143715,0.07354119723577764,0.02354784670817707
0.331,0.0072,0.717,0.012297053084470022,0.8378856300153773,0.0735583775714667,0.023128564868545153
0.332,0.0086,2.717,0.012331029002882613,0.8473695371121027,0.07388957862026405,0.024789699897653245
0.333,0.0122,-0.283,0.01227080013519878,0.8449958200280586,0.0733024608887425,0.024373936166810772
0.334,-0.0066,0.717,0.012096562691087012,0.8449958200280586,0.07160397481608347,0.024373936166810772
0.335,0.0068,0.717,0.01198875119493868,0.8473695371121027,0.07055301630590805,0.024789699897653245
0.336,-0.0051,-0.283,0.012048480770097656,0.8378856300153851,0.0711352668781116,0.023128564868546517
0.337,0.0015,0.717,0.011687633196299391,0.8520971338685318,0.06761768441141744,0.02561775277665221
0.338,-0.0003,0.717,0.01071043227480959,0.8520971338685336,0.05809182064659248,0.025617752776652517
0.339,-0.0093,-0.283,0.009606111495791261,0.861424592745228,0.04732677830754493,0.027251485426563447
0.34,-0.0079,1.717,0.009156622325874492,0.8590897115118985,0.04294510765800892,0.026842523912502445
0.341,-0.0065,-0.283,0.00923435900146585,0.8590897115118985,0.04370289345715114,0.026842523912502445
0.342,-0.0054,0.717,0.009240445730468169,0.8683420615546102,0.043762227571532766,0.028463101022839696
0.343,0.0008,-0.283,0.00893661364569916,0.8683420615546101,0.040800438462206254,0.028463101022839676
0.34400000000000003,0.0017999999999998612,-0.283,0.008931441034760039,0.8977658618724238,0.040750015272838606,0.03361676869365419
0.34500000000000003,-0.0007000000000002387,-1.283,0.008922152644044274,0.9110437636602448,0.04065947100235435,0.03594243337466123
0.34600000000000003,-0.0049999999999997,0.717,0.00892346053252951,0.9088363674190982,0.04067222044543811,0.03555580124278848
0.34700000000000003,0.0004000000000002831,-0.283,0.008922637069540149,0.9088363674190982,0.04066419323621274,0.03555580124278848
0.34800000000000003,0.0054999999999998835,-2.283,0.00892431902786788,0.9110437636602482,0.04068058915391578,0.03594243337466183
0.34900000000000003,0.0033999999999999777,-0.283,0.00892324872743199,0.9110437636602482,0.04067015574568262,0.03594243337466183
0.35000000000000003,0.0029999999999999836,-2.283,0.008920373250789468,0.9110437636602489,0.04064212527809583,0.03594243337466195
0.35100000000000003,0.0027000000000000834,0.717,0.008924757024569208,0.9241309084025484,0.040684858794697465,0.0382346863818585
0.352,0.0042,-0.283,0.008922984880260207,0.9219548466732133,0.04066758373397258,0.037853542584557046
0.353,-0.0027,-1.283,0.008910396255661155,0.9066235967494186,0.040544868414860644,0.03516822776349355
0.354,-0.0117,0.717,0.008969008721241081,0.9044054122030477,0.04111622927807356,0.03477970602731214
0.355,-0.0055,0.717,0.009003040969352952,0.9109965732651187,0.041447979435073175,0.03593416783414277
0.356,0.0021,-1.283,0.009135825481243727,0.9175403878736963,0.04274237769292777,0.037080336766359606
0.357,0.0029,-0.283,0.00912087851800466,0.9240378619180231,0.04259667302525705,0.03821838900850762
0.358,-0.0032,-1.283,0.009062217784127321,0.9218615805517371,0.04202484163728795,0.03783720674112953
0.359,-0.0108,-0.283,0.008750508010801284,0.9304899661665701,0.03898625993973755,0.03934849459362235
0.36,0.0001,-0.283,0.008717412670537807,0.9580068809853554,0.0386636428651243,0.044168165498480766
0.361,0.0139,-0.283,0.008841803540410597,0.9580068809853554,0.03987621896277039,0.044168165498480766
0.362,0.0343,0.717,0.009016517090822646,0.9496285487368143,0.041579346172839676,0.04270067524982967
0.363,0.0155,-0.283,0.009081179447690388,0.9496285487368128,0.042209682052277375,0.0427006752498294
0.364,0.0086,1.717,0.009070728015095689,0.9411756356476079,0.042107800319611206,0.04122012194123227
0.365,0.0021,-0.283,0.009085965851250849,0.9411756356476079,0.04225634044896709,0.04122012194123227
0.366,0.0004,0.717,0.00914681314267724,0.9411756356476079,0.042849486644227254,0.04122012194123227
0.367,0.0022,-0.283,0.009165511893153257,0.9411756356476079,0.04303176415306898,0.04122012194123227
0.368,0.0077,0.717,0.009194634864045982,0.9411756356476079,0.043315658127225404,0.04122012194123227
0.369,-0.0003,0.717,0.009179811260490646,0.9390390729761953,0.0431711559835346,0.04084589652346182
0.37,0.0012,0.717,0.008855367864588296,0.9453888022684722,0.04000844551038937,0.04195807082516885
0.371,0.0002,-0.283,0.008814717651503727,0.9196801493653525,0.03961218269141418,0.0374551224671763
0.372,-0.0009,0.717,0.008957313273128943,0.9196801493653525,0.0410022207431502,0.0374551224671763
0.373,-0.0084,0.717,0.009076044868063243,0.9196801493653525,0.042159629596388096,0.0374551224671763
0.374,-0.0174,-0.283,0.009028010432576627,0.9196801493653525,0.041691384552402476,0.0374551224671763
0.375,-0.0185,0.717,0.008922494463080254,0.9475110469093649,0.040662803092508346,0.042329788396563144
0.376,-0.013,-0.283,0.008802400693764846,0.9475110469093649,0.039492115611208384,0.042329788396563144
0.377,-0.004,0.717,0.008754063799092786,0.9621910294409532,0.039020922161289454,0.04490103176295335
0.378,-0.0003,0.717,0.008788895014168307,0.9601012345455835,0.03936046073751888,0.04453499786268996
0.379,0.003,0.717,0.008899377789496213,0.9621910294409532,0.04043745917559739,0.04490103176295335
0.38,0.0056,-0.283,0.008878919908493276,0.955952912155205,0.04023803346583253,0.043808406641960854
0.381,0.0118,-1.283,0.008906266999524164,0.9580517558142159,0.04050461596467766,0.04417602546056023
0.382,-0.0005,-0.283,0.008955290464285712,0.9559529121552034,0.040982502176539023,0.043808406641960576
0.383,-0.0095,-0.283,0.009122777373792707,0.917493531626219,0.04261518328363708,0.03707212975281306
0.384,-0.0015,0.717,0.00909927972462025,0.9261626120802242,0.04238612557412404,0.03859054542954153
0.385,-0.012,-0.283,0.009076883101804153,0.9261626120802242,0.0421678007925499,0.03859054542954153
0.386,-0.003,1.717,0.009099076638101986,0.9261626120802242,0.04238414586405325,0.03859054542954153
0.387,0.0159,0.717,0.00908489845673537,0.9411756356475912,0.04224593536797077,0.04122012194122936
0.388,0.0238,-1.283,0.0090899250754674,0.9766503828177323,0.04229493540899206,0.04743363126518943
0.389,-0.008,-0.283,0.009092120522412124,0.9766503828177308,0.04231633687110536,0.04743363126518916
0.39,-0.0124,-0.283,0.009055714335863293,0.9766503828177308,0.041961445296983375,0.04743363126518916
0.391,-0.0084,-1.283,0.009063991513497526,0.97046091141063,0.04204213214936656,0.046349526617058635
0.392,-0.0048,0.717,0.009046738630535133,0.97046091141063,0.041873949118593656,0.046349526617058635
0.393,-0.0015,-2.283,0.00914609996316896,0.9683889631833186,0.04284253449069738,0.04598661861471499
0.394,-0.0044,1.717,0.009151268896754286,0.9683889631833186,0.04289292183280935,0.04598661861471499
0.395,-0.0018,-0.283,0.009151009674870453,0.9704609114106298,0.04289039490892302,0.046349526617058615
0.396,0.0004,-1.283,0.009212894375853356,0.9621910294409517,0.04349365388844929,0.04490103176295308
0.397,-0.0018,0.717,0.009210817824286188,0.9867927783757715,0.04347341143176052,0.049210102541078084
0.398,0.0,-0.283,0.009211615525686466,0.9888261647100882,0.04348118751413719,0.04956625631116398
0.399,-0.0018,-0.283,0.00919601910457521,0.9621910294409517,0.04332915185856477,0.04490103176295308
0.4,-0.0032,1.717,0.00920682081585601,0.964276295310284,0.04343444814699951,0.04526627239059983
0.401,-0.0018,-0.283,0.009251999569065132,0.9390848541955034,0.043874855681080245,0.04085391524257118
0.402,0.0073,-0.283,0.009481622574847418,0.9390848541955034,0.04611324639710302,0.04085391524257118
0.403,-0.0116,-0.283,0.009671230854650187,0.9412213129440269,0.04796156909345328,0.041228122457933114
0.404,-0.0091,-1.283,0.00974069283807848,0.9326922088774869,0.04863869226886298,0.039734224069079255
0.405,-0.016,-1.283,0.009688258823616342,0.9326922088774869,0.04812755963746133,0.039734224069079255
0.406,-0.0048,-1.2829999999997779,0.00975682651646795,0.9326922088774869,0.04879596516841088,0.039734224069079255
0.40700000000000003,0.0049999999999999,-0.283,0.010045012910310912,0.9262554451241523,0.051605238334505525,0.03860680541812586
0.40800000000000003,0.003199999999999556,-1.283000000000222,0.010092270653316755,0.9412669880238642,0.05206591209340913,0.04123612258639296
0.40900000000000003,-0.0047999999999988946,-2.283,0.01012201947190128,0.9705938022603837,0.052355906900790845,0.046372802851560146
0.41000000000000003,0.015100000000000145,-0.283,0.010112200654890588,0.9705938022603837,0.052260191975519385,0.046372802851560146
0.41100000000000003,0.01769999999999962,-0.283,0.010249453832493403,0.9705938022603837,0.0535981512860166,0.046372802851560146
0.41200000000000003,0.010799999999999373,0.7169999999997779,0.010329234313775868,0.9726610537833602,0.054375860331389074,0.046734888211925917
0.41300000000000003,-0.000499999999999678,-0.283,0.00978599293549918,0.9726610537833602,0.049080282679875895,0.046734888211925917
0.41400000000000003,0.0053000000000003,-0.283,0.009668448825155442,0.9808426627070566,0.04793444955910382,0.048167921774887316
0.41500000000000004,0.010699999999999732,-0.283,0.009642333900284602,0.9685221383249745,0.04767987835365612,0.04600994464380351
0.41600000000000004,0.005900000000000078,-0.283,0.009640128560836349,0.976738417318011,0.047658380458313145,0.047449050774331765
0.417,0.0073,-0.283,0.009645078465075703,0.9746798137358776,0.04770663267788855,0.047088480126975904
0.418,0.0062,-0.283000000000222,0.00967634107759005,0.976738417318011,0.04801138411763358,0.047449050774331765
0.419,-0.0051,-1.283,0.009648543534996215,0.9746798137358776,0.04774041056662413,0.047088480126975904
0.42,-0.0095,0.7169999999997779,0.009652615940059424,0.9726168530020016,0.04778010882618796,0.046727146311306283
0.421,-0.016,-0.283,0.009672271089024676,0.9705495073322274,0.04797170941436064,0.04636504446084398
0.422,-0.015,-0.283,0.009675964912389326,0.9848861555043837,0.04800771721722818,0.048876151775148036
0.423,0.0017,-0.283,0.009730043936909209,0.982844617802589,0.04853488559046882,0.048518570268379906
0.424,0.0038,-2.282999999999556,0.00970993050928211,0.9889131153049501,0.04833881765069722,0.04958148597099234
0.425,0.006,-0.283,0.009624244230576479,1.0420640862922383,0.047503538232192104,0.05889103939002333
0.426,0.0078,1.716999999999556,0.009546586428807832,1.040134781352585,0.0467465213038862,0.05855311579119389
0.427,-0.0089,-0.283,0.009461705680811908,1.040134781352585,0.045919094288740823,0.05855311579119389
0.428,-0.0154,0.717,0.009468267043605422,1.0516166411483217,0.0459830551863496,0.06056419828193144
0.429,-0.0056,0.717,0.009475918872462493,1.0497048934721558,0.04605764606898311,0.060229349890935334
0.43,0.007,0.7169999999997779,0.009471119651007349,1.0497048934721558,0.0460108627220239,0.060229349890935334
0.431,0.0118,-0.283,0.009461228069223927,1.0497048934721558,0.0459144384776179,0.060229349890935334
0.432,0.0194,-0.283000000000222,0.009390412797885052,1.0420640862922386,0.045224123300453715,0.05889103939002337
0.433,0.0103,-1.283,0.009413579381395388,1.0439898258607532,0.04544995374490259,0.05922833850330798
0.434,0.0016,0.717,0.00936824274508086,1.0439898258607532,0.04500800714867017,0.05922833850330798
0.435,0.0093,0.717,0.009372595324485263,1.0420640862922383,0.045050436579015675,0.05889103939002333
0.436,0.0002,1.7170000000002221,0.009303939812035606,1.0420640862922383,0.04438117497281231,0.05889103939002333
0.437,-0.0034,2.717,0.009321278774802672,1.0285247526524104,0.04455019711913882,0.05651958412896691
0.438,0.002,0.7169999999997779,0.009188276506513849,1.0265700026096682,0.04325367614758624,0.05617720374332705
0.439,-0.0045,-0.283,0.008918548052531493,1.0187556953552221,0.04062433304154866,0.05480850417929865
0.44,-0.0088,-1.2829999999997779,0.009085408796228567,1.0207254103721481,0.04225091021437042,0.05515350572545527
0.441,-0.0033,-0.283,0.009178510883186868,1.0226913317028155,0.0431584797602869,0.05549784279598286
0.442,-0.0145,-0.283,0.009339273115222736,1.016824445546749,0.04472560796005175,0.05447023993080968
0.443,-0.0032,-0.283,0.009371136192931838,1.014847159182488,0.04503621280160489,0.054123912240254174
0.444,-0.0017,0.717,0.009409510316074298,0.9889131153049501,0.045410288041518095,0.04958148597099234
0.445,-0.0107,-0.283,0.00946134707256323,1.0009397401339353,0.045915598535465604,0.05168798570592398
0.446,-0.0046,-2.283,0.009547461165265133,1.0009397401339353,0.04675504833260581,0.05168798570592398
0.447,-0.0013,0.717,0.00991147464100446,0.9929237432653516,0.05030349236514598,0.050283959595606775
0.448,0.0013,-0.283,0.010063512869119457,0.9908987654545695,0.051785577999961835,0.04992927860386464
0.449,0.0056,0.717,0.010108420687299675,0.9989310120417235,0.05222334442910939,0.051336150901565916
0.45,0.0096,0.717,0.010133050546726283,0.9989310120417235,0.05246343905068114,0.051336150901565916
0.451,0.0209,0.717,0.01016215045966125,0.9928804445332975,0.052747108253289085,0.050276375691652685
0.452,0.0195,0.717,0.010209852947312472,0.9928804445332975,0.05321211743268692,0.050276375691652685
0.453,0.0119,-0.283,0.010216697958819668,0.9949013889312479,0.05327884336964859,0.05063035021893104
0.454,-0.0059,0.717,0.010150841190256714,0.9969182364958593,0.052636864231554975,0.05098360717345183
0.455,-0.0128,0.717,0.010119193812182105,0.9888696409632071,0.05232836205413886,0.04957387130846979
0.456,-0.024,0.717,0.009997574637153814,0.9828008750200001,0.05114280474751695,0.048510908587630824
0.457,-0.0102,1.717,0.009990105136837015,0.9746357045074695,0.05106999122386546,0.0470807542621326
0.458,-0.0084,2.717,0.009981100293683648,0.9766944010597478,0.050982211006700084,0.04744134119349071
0.459,0.0098,-0.283,0.010067948658348876,0.9684777486458538,0.05182881856897859,0.04600216965716918
0.46,0.0167,-0.283,0.010099331181178535,0.9684777486458538,0.0521347389078748,0.04600216965716918
0.461,0.0189,0.717,0.010019007260397093,0.9684777486458537,0.05135173235354809,0.04600216965716916
0.462,0.0092,0.717,0.009871741396002463,0.9705495073322273,0.049916168253492064,0.04636504446084396
0.463,-0.0035,-1.283,0.009829312102578935,0.9684777486458553,0.04950256276059698,0.04600216965716945
0.464,-0.0049,0.717,0.009829455887513704,0.970549507332229,0.049503964392206126,0.04636504446084425
0.465,-0.0005,-1.283,0.009820333824972546,0.9705495073322291,0.04941504150735169,0.046365044460844274
0.466,0.0031,-0.283,0.009764339944833705,0.9848861555043854,0.04886920690759164,0.04887615177514833
0.467,-0.0081,0.717,0.009756691911594584,0.9848861555043853,0.048794653025065984,0.048876151775148306
0.468,0.0024,-0.283,0.009732126613823992,0.9869234701155385,0.04855518775773052,0.049232993594810245
0.46900000000000003,0.0027999999999994947,-0.283,0.009779882185694954,0.9889565877355703,0.049020714408033454,0.04958910029877593
0.47000000000000003,-0.0062999999999998006,-0.283,0.009822758050061334,0.9828883586384358,0.04943867312437459,0.04852623160815122
0.47100000000000003,-0.002700000000000422,1.717,0.009801076475835177,0.9828883586384374,0.04922731871634718,0.04852623160815149
0.47200000000000003,-0.01029999999999974,-0.283,0.009699069801490445,0.9849298056753332,0.04823294625768293,0.04888379723468819
0.47300000000000003,-0.005600000000000338,-1.283,0.00958419492428641,0.9869670301830439,0.047113133119788694,0.049240623272459504
0.47400000000000003,-0.011700000000000122,-3.283,0.009582658941792084,1.0129508998697625,0.0470981601908195,0.05379177668298704
0.47500000000000003,-0.013899999999999378,-0.283,0.00963938005037853,0.9869670301830542,0.047651083894739654,0.049240623272461315
0.47600000000000003,-0.002699999999999556,-0.283,0.01010824099326837,0.9950310156511052,0.0522215927516151,0.050653054731202955
0.47700000000000004,0.005299999999999917,1.717,0.01033748228618474,0.9828883586384556,0.05445626248797235,0.048526231608154675
0.47800000000000004,0.0037999999999997944,-0.283,0.010319228634411821,0.9849298056753512,0.054278323851019085,0.04888379723469134
0.47900000000000004,9.999999999979462e-05,0.717,0.010212651368552223,0.9828883586384556,0.05323939675559814,0.048526231608154675
0.48,-0.0036,-0.283,0.010198611184429402,0.9808426627070772,0.05310253147206653,0.04816792177489093
0.481,-0.0025,-0.283,0.01018039473879963,0.9787926912403998,0.052924955524753674,0.04780886306868053
0.482,0.0066,0.717,0.010121657061808178,0.9808426627070789,0.052352374086711395,0.04816792177489122
0.483,-0.0022,-0.283,0.009952254804316895,0.9828883586384565,0.05070102195346169,0.048526231608154835
0.484,0.0032,-0.283,0.009945866735089721,0.9767824315928162,0.0506387503408996,0.047456760007764144
0.485,0.0039,-0.283,0.009963133419746962,0.9767824315928162,0.050807067912135934,0.047456760007764144
0.486,0.0064,-0.283,0.00994543419428856,0.9747239209682327,0.050634533884842334,0.04709620564220446
0.487,-0.0027,-0.283,0.00999340312526128,0.9623250623084645,0.05110214038350771,0.044924508025321164
0.488,-0.0089,-0.283,0.009995755946290364,0.9241309084025523,0.05112507594577867,0.03823468638185918
0.489,-0.0191,0.717,0.010088792404383736,0.9219548466732206,0.052032005734187134,0.03785354258455833
0.49,-0.018,0.717,0.010082951007764627,0.9305823675223716,0.051975063147287906,0.03936467897072489
0.491,-0.0192,0.717,0.010044863404199428,0.9241309084025507,0.05160378093222654,0.03823468638185891
0.492,-0.0091,-0.283,0.01006040471932235,0.9263018581572685,0.051755279408467705,0.03861493480133578
0.493,0.0086,-0.283,0.009966625672700204,0.9263018581572685,0.05084111078411172,0.03861493480133578
0.494,0.0108,-2.283,0.009967067685008426,0.9284677317959377,0.05084541956947807,0.038994294123724904
0.495,0.0129,-0.283,0.010026367909392505,0.9263018581572668,0.051423484782356796,0.03861493480133549
0.496,0.0266,-0.283,0.009976856772098943,0.953939588917563,0.05094084468416595,0.04345576698397442
0.497,0.0175,-0.283,0.009968173452984702,0.9263018581572559,0.05085619871925768,0.03861493480133356
0.498,0.0095,-1.283,0.00997465764756613,0.9241309084025349,0.050919407372513076,0.03823468638185613
0.499,-0.0073,-0.283,0.009987953609309886,0.9391764099391925,0.051049017893141986,0.04086995150815318
0.5,0.0083,-1.283,0.010018415015225875,0.974723920968194,0.051345959081447824,0.04709620564219769
0.501,0.01,-0.283,0.009975748914838642,0.9726610537833424,0.05093004516781223,0.0467348882119228
0.502,0.0082,0.717,0.009756062059858146,0.970593802260366,0.04878851315996618,0.04637280285155704
0.503,0.0001,0.717,0.009580354350820709,0.9685221383249567,0.047075694780539794,0.0460099446438004
0.504,-0.0043,-0.283,0.009520800543892694,0.9828883586384212,0.04649515761669014,0.04852623160814865
0.505,-0.0033,0.717,0.009521423603836666,1.016909002157177,0.046501231274638136,0.054485050277019526
0.506,0.0028,-0.283,0.009491095630428215,1.0169090021571738,0.046205590801324116,0.05448505027701898
0.507,-0.0027,0.717,0.009522125268618372,1.0227754032762635,0.04650807118132684,0.05551256818649781
0.508,-0.0136,-0.283,0.009535703592110412,1.0168667247308538,0.046640434195826155,0.05447764525785499
0.509,-0.0093,-2.283,0.009516986488317768,0.9807988306389799,0.04645797777680335,0.048160244455514846
0.51,-0.0082,-0.283,0.009476348627426337,0.9828446178025692,0.04606183536838697,0.04851857026837642
0.511,-0.0046,0.717,0.009333267577245015,0.9848861555043639,0.04466706530484933,0.04887615177514455
0.512,-0.0058,-0.283,0.009150203740873032,0.9970044813664776,0.04288253857426958,0.050998713223543185
0.513,0.0007,0.717,0.0091040233993974,0.994987808620865,0.04243236744585997,0.050645486889099096
0.514,0.0032,-0.283,0.009106675797258379,0.9949878086208621,0.04245822331655981,0.05064548688909859
0.515,-0.0023,1.717,0.009189139195232418,0.9929670401093167,0.0432620857336026,0.050291543168856354
0.516,-0.0045,-0.283,0.009200111781594161,1.0208096438544128,0.043369047731418156,0.05516825947478943
0.517,-0.0024,0.717,0.009199991984490176,1.0208096438544128,0.04336787993586364,0.05516825947478943
0.518,-0.0115,0.717,0.009164548790544987,1.0208096438544112,0.043022375721236614,0.05516825947478915
0.519,-0.0105,0.717,0.009161414078820023,1.0208096438544114,0.04299181820110198,0.05516825947478919
0.52,-0.0069,0.717,0.009160540446116347,1.0227754032762328,0.04298330193189603,0.055512568186492445
0.521,0.0075,0.717,0.009139053500522328,1.0363898487867569,0.04277384478552045,0.05789717951901208
0.522,0.0017,0.717,0.009150958362783382,1.0227754032762328,0.04288989471296518,0.055512568186492445
0.523,-0.0001,-2.283,0.009235877940776346,1.0247373917777904,0.04371770024726015,0.05585621641009956
0.524,0.0111,-0.283,0.009293978537621808,1.0169090021571432,0.04428407135685868,0.054485050277013614
0.525,0.031,-1.283,0.00925562083070573,0.9623697357826151,0.04391015614415445,0.04493233271951383
0.526,0.023,0.717,0.00915265638278932,0.9623697357826151,0.04290644720170193,0.04493233271951383
0.527,0.0064,0.717,0.009167204637020768,0.9644546152676072,0.043048265209418846,0.045297505670774084
0.528,0.0042,-0.283,0.009235630195723736,0.9519220074934187,0.04371528520080688,0.043102381491735564
0.529,-0.0016,-0.283,0.009321920782959365,0.9519220074934187,0.04455645548638149,0.043102381491735564
0.53,-0.0035,-0.283,0.009479587893355962,0.9519220074934187,0.04609341209459041,0.043102381491735564
0.531,0.0045,0.717,0.009615749204229215,0.9519220074934187,0.04742072776621417,0.043102381491735564
0.532,-0.0061,0.717,0.009718590723147964,0.9540297190921194,0.048423238383062686,0.04347155355680862
0.533,-0.0097,0.717,0.00971060469056872,0.9540297190921194,0.04834538964520501,0.04347155355680862
0.534,-0.0061,0.717,0.00971513304917405,0.9623697357826151,0.04838953259084088,0.04493233271951383
0.535,-0.0072,-0.28299999999977793,0.009712812452633815,0.9644546152676072,0.048366911156487655,0.045297505670774084
0.536,-0.0098,0.717,0.009735265872325498,0.9665349975410493,0.04858578960035089,0.04566189092182145
0.537,0.004,-0.283,0.009722662626640718,0.9747680262046905,0.04846293175326168,0.04710393080784558
0.538,0.0138,-0.283,0.009723536491051388,0.982932097527749,0.0484714502811733,0.04853389260698128
0.539,-0.0029,-1.2829999999995558,0.009702598714819774,0.9910289157182108,0.048267346499100854,0.04995207481641474
0.54,-0.0007,0.717,0.009552639390311049,0.9910289157182108,0.046805526248913744,0.04995207481641474
0.541,-0.0065,0.7169999999997779,0.009497602698248845,0.9890000582552685,0.04626902242547087,0.04959671429185577
0.542,-0.0047,-0.283,0.009329561798954677,0.9869670301829928,0.04463094096403047,0.04924062327245056
0.543,0.0033,0.7169999999997779,0.009296548996296335,0.9869670301829928,0.04430912847521397,0.04924062327245056
0.544,0.011,-0.283,0.009286193870788254,0.9890000582552685,0.04420818555478849,0.04959671429185577
0.545,-0.0039,-2.282999999999556,0.009350948189289617,0.9644546152676071,0.04483941788650555,0.04529750567077406
0.546,0.0019,-0.283,0.009274340289617638,1.0011115295475583,0.04409263552114297,0.05171807514160579
0.547,0.0038,-0.2829999999995559,0.008885138880546617,1.0031158911879223,0.040298656700250964,0.052069145148708536
0.548,0.0053,1.717,0.008714093437661687,1.0031158911879223,0.03863128661219175,0.052069145148708536
0.549,0.0096,2.716999999999334,0.008667091803432145,0.9951174240834233,0.03817310943025443,0.05066818942962103
0.55,-0.0027,-0.283,0.008638152585429866,0.9971338346857535,0.03789100669980468,0.051021369848875876
0.551,0.002,-0.283,0.008634392733574896,0.991115673065708,0.03785435524383617,0.04996727062838235
0.552,0.0064,-0.283,0.008619271438883861,0.991115673065708,0.0377069511736937,0.04996727062838235
0.553,0.0053,1.7170000000002221,0.008581932460246704,0.9890869935631564,0.03734296663807435,0.049611941274124376
0.554,-0.006,2.717,0.00858580833842811,0.9870541445509033,0.03738074913163652,0.049255881617624016
0.555,-0.0103,0.7169999999995559,0.008652988470077482,0.9870541445509033,0.038035628560955194,0.049255881617624016
0.556,-0.0252,-1.283,0.008780771214225045,0.9930969193154009,0.03928126902800409,0.050314291904855014
0.557,-0.0114,-1.2829999999997779,0.00880980760647892,0.9930969193154009,0.03956431902391562,0.050314291904855014
0.558,-0.0059,-0.283,0.008997593717580559,0.9930969193154009,0.041394879016177326,0.050314291904855014
0.559,-0.0044,0.717,0.008930234244881418,0.9951174240834233,0.04073825135026782,0.05066818942962103
0.56,0.0032,0.717,0.008908486792817225,0.9686552951570561,0.04052625475771474,0.04603326746591468
0.561,0.0044,1.716999999999556,0.008889656360464394,0.9830195694680647,0.04034269359922509,0.04854921358204361
0.562,0.0008,-0.283,0.008888823879861332,1.0071126472620209,0.04033457848529383,0.052769189070456565
0.5630000000000001,0.004100000000001011,-1.2829999999997779,0.008972410583274236,1.0071126472620209,0.041149391009261,0.052769189070456565
0.5640000000000001,0.013199999999999034,-0.283,0.008985049212069895,1.0071126472620209,0.041272593774868395,0.052769189070456565
0.5650000000000001,0.004499999999999156,2.716999999999334,0.008986978753049601,1.0071126472620209,0.04129140315592517,0.052769189070456565
0.5660000000000001,-0.003099999999999711,-0.283,0.008988702564354236,0.9930969193154009,0.04130820706112328,0.050314291904855014
0.5670000000000001,-0.0004999999999999112,0.7169999999997779,0.008977564648153982,0.9930969193154009,0.04119963340956971,0.050314291904855014
0.5680000000000001,0.00030000000000024424,-0.283,0.00901664645988241,0.9910722953412894,0.04158060727688859,0.04995967288867655
0.5690000000000001,0.0024999999999996783,0.717000000000222,0.008943237778612036,0.9890435268643964,0.04086501124995183,0.04960432795029344
0.5700000000000001,-0.00040000000000055513,1.717,0.008887294150961886,0.9890435268643963,0.04031966651706623,0.04960432795029342
0.5710000000000001,-0.005400000000001199,-0.283,0.00897181350216794,0.9870105883280463,0.041143570595925265,0.04924825261337656
0.5720000000000001,-0.01619999999999951,0.717,0.008963730256604326,0.984973453911824,0.041064774215034405,0.048891442355402076
0.5730000000000001,-0.011799999999999589,-0.283,0.009055624431170873,0.984973453911824,0.04196056889599666,0.048891442355402076
0.5740000000000001,-0.0080999999999993,-0.283,0.009065739937647841,0.9951174240834233,0.042059175983334335,0.05066818942962103
0.5750000000000001,-0.0017999999999991562,-0.283,0.009032963991818577,0.9951174240834233,0.04173967240135156,0.05066818942962103
0.5760000000000001,0.0058000000000007325,0.717,0.008536937074048586,0.9890869935631564,0.036904346586104385,0.049611941274124376
0.577,0.0124,0.717,0.008259779759342977,0.9890869935631564,0.03420258611571385,0.049611941274124376
0.578,0.0132,-0.283,0.008264658189555603,0.9890869935631564,0.03425014159849095,0.049611941274124376
0.579,0.0172,0.717,0.008275075793568822,0.9890869935631564,0.03435169356636519,0.049611941274124376
0.58,0.0165,-0.283,0.008298142735011034,0.991115673065708,0.034576552688801054,0.04996727062838235
0.581,0.0143,0.717,0.008292539587040028,0.9931402086096299,0.03452193257634292,0.050321874155745475
0.582,0.0053,0.717,0.008415310205572657,1.005159027476681,0.0357187142828953,0.05242700665282121
0.583,-0.0037,-1.283,0.008492125817779993,1.0110936046660028,0.03646752145326016,0.053466465807322214
0.584,0.0024,0.717,0.008442508612660785,1.009105089094195,0.03598384739405402,0.05311817128708199
0.585,-0.0077,0.717,0.00842394011919364,1.0071126472620209,0.03580283964508834,0.052769189070456565
0.586,-0.0041,-1.283,0.008396466200506929,1.0091050890941957,0.03553502081608386,0.05311817128708211
0.587,-0.003,-1.283,0.008348022511302702,1.0071126472620215,0.03506278632113327,0.05276918907045668
0.588,-0.0062,-1.283,0.008342776376102513,1.0091050890941957,0.03501164640905392,0.05311817128708211
0.589,-0.0087,0.717,0.008234917547357968,1.0091050890941957,0.03396022649544217,0.05311817128708211
0.59,-0.0148,-0.283,0.008242618674466507,1.001154472295112,0.03403529794293907,0.05172559669379731
0.591,-0.0072,-0.283,0.008355126614063913,1.0130782170973731,0.03513203790858721,0.053814076680702747
0.592,-0.0046,-0.283,0.00833334857098306,1.0110936046660108,0.034919743111385806,0.053466465807323615
0.593,0.0074,0.717,0.008379851675439491,1.0130782170973747,0.03537306056939438,0.05381407668070302
0.594,0.0154,0.717,0.008376488439284796,1.0189666730741602,0.035340275367585806,0.054845457565251825
0.595,0.0049,2.717,0.008304219874957563,1.020935981047054,0.03463579332799545,0.05519038781641436
0.596,0.0013,0.717,0.008312168104499994,0.9951606254861105,0.03471327355762655,0.05067575628604195
0.597,0.0024,-0.283,0.008334700863107867,0.9951606254861105,0.03493292540610931,0.05067575628604195
0.598,-0.003,-0.283,0.008386002787778882,0.9971769487300622,0.03543302229973929,0.05102892140421245
0.599,0.0017,0.717,0.008369129160229657,0.9830195694680861,0.03526853629310796,0.04854921358204736
0.6,0.0079,0.717,0.008362446387467595,0.945661611928492,0.03520339187756071,0.04200585426272428
0.601,0.0086,-0.283,0.008362892142804907,0.9477832457032999,0.03520773715039283,0.04237746483907515
0.602,0.0018,-0.283,0.00836222209305157,0.949900140749842,0.035201205430533004,0.04274824541282947
0.603,-0.0026,-0.283,0.00834135910813294,0.9645437628837509,0.034997830722535914,0.045313120145528775
0.604,-0.0116,-0.283,0.00833253094868446,0.9520123286792298,0.03491177283786655,0.04311820152076908
0.605,-0.0153,-1.283,0.008312350563517418,0.915583464702085,0.03471505218851446,0.03673757575062177
0.606,-0.0077,-0.283,0.008264773746943642,0.9155834647020884,0.03425126806482072,0.03673757575062237
0.607,-0.0185,0.717,0.007893734654510964,0.9068132538712522,0.030634337535785316,0.035201446782341425
0.608,-0.008,0.717,0.007860456168121052,0.8979573898338727,0.030309935132268758,0.033650315395722406
0.609,-0.0069,-0.283,0.007863550658538077,0.9134341065882216,0.030340100570599698,0.03636110917238325
0.61,-0.0058,1.717,0.007851423506280342,0.9112325008020371,0.03022188373543099,0.035975491256220744
0.611,0.0044,-2.283,0.007859000214296526,0.9112325008020371,0.030295742331714334,0.035975491256220744
0.612,0.0135,-0.283,0.00787700915262566,0.8979573898338727,0.030471295474675884,0.033650315395722406
0.613,0.0048,0.717,0.007951890594844727,0.8979573898338727,0.031201248139891308,0.033650315395722406
0.614,0.0037,-0.283,0.007998055006588086,0.8890133129025434,0.0316512639834909,0.03208373325376967
0.615,-0.0029,-0.283,0.00791923478685061,0.8890133129025426,0.03088291567494849,0.032083733253769536
0.616,-0.0003,-0.283,0.007906346519229366,0.8498883911412217,0.030757279402177276,0.025230884803653045
0.617,0.0087,-0.283,0.007951233719471113,0.8498883911412217,0.03119484484535698,0.025230884803653045
0.618,0.0,-0.283,0.007969283253221255,0.8475217288281933,0.03137079371701823,0.024816356737303803
0.619,-0.0032,0.717,0.007971939682456623,0.8475217288281917,0.03139668888600603,0.02481635673730351
0.62,-0.0141,-0.283,0.008014048660321498,0.8615743017271417,0.03180717190704667,0.027277707407809423
0.621,-0.0065,-0.283,0.008091596642069054,0.847521728828188,0.03256311829751685,0.02481635673730287
0.622,-0.013,0.717,0.008086669316910296,0.847521728828188,0.03251508618134184,0.02481635673730287
0.623,-0.0043,2.717,0.007923526022690931,0.8451484391958805,0.030924747121377452,0.02440066787592565
0.624,0.008,-0.283,0.007835444813544517,0.8451484391958805,0.03006612165335127,0.02440066787592565
0.625,0.0095,0.717,0.007808926502315366,0.8475217288281862,0.029807618192612614,0.024816356737302557
0.626,0.008,0.717,0.007809408557169007,0.8475217288281862,0.029812317317185637,0.024816356737302557
0.627,0.007,0.717,0.007814107455757243,0.8451484391958786,0.029858122705629223,0.02440066787592532
0.628,0.0059,-0.283,0.007718183015151681,0.8427684662554371,0.02892304054101916,0.02398380841290277
0.629,-0.0064,0.717,0.0076246222930820996,0.8451484391958786,0.02801100016879486,0.02440066787592532
0.63,-0.0017,0.717,0.007434066711808003,0.8451484391958786,0.026153443071860603,0.02440066787592532
0.631,0.015,1.717,0.007252153361554833,0.8475217288281862,0.02438013140851024,0.024816356737302557
0.632,0.0129,-1.283,0.007111402106279994,0.8475217288281862,0.02300807244602776,0.024816356737302557
0.633,0.0031,-0.283,0.007099722840527263,0.8615743017271292,0.022894221658551955,0.027277707407807248
0.634,-0.0024,-0.283,0.007092162961332245,0.8522484813464194,0.022820527111497606,0.02564426174542659
0.635,0.0023,0.717,0.007089086600925389,0.8498883911412076,0.022790538406531457,0.025230884803650575
0.636,0.0038,-0.283,0.007063787436396826,0.8475217288281773,0.022543919324044745,0.024816356737301003
0.637,0.0027,0.717,0.007102044568838991,0.8546020538928973,0.02291685412554015,0.026056497099551004
0.638,-0.0035,-0.283,0.007117201630793966,0.847572453327345,0.02306460685896777,0.0248252412868376
0.639,-0.0046,-0.283,0.007090980736373938,0.8380908424508787,0.02280900265051466,0.023164508447656943
0.64,-0.0137,1.717,0.007191198723256886,0.8451993061276423,0.02378593878395234,0.02440957737296216
0.641,-0.0024,-0.283,0.0071563663286182255,0.8475724533273458,0.023446388709209637,0.024825241286837735
0.642,-0.01,0.717,0.007120336833736266,0.8499389743975879,0.02309516916754388,0.025239744614085527
0.643,0.0023,-1.283,0.007106306184486357,0.8522989245333502,0.022958396831018746,0.02565309702227357
0.644,0.0009,0.717,0.00707162003668169,0.8592898600817593,0.022620272386753886,0.026877580540222525
0.645,0.0053,-0.283,0.006909959739135048,0.8569491624820228,0.02104438974404963,0.026467600271983277
0.646,0.0064,-0.283,0.006907228198409955,0.8162888422349436,0.021017762379867824,0.019345822130514858
0.647,0.01,0.717,0.00692797911416203,0.8138244757910488,0.021220044625107907,0.01891418088996268
0.648,-0.0001,-0.283,0.006929904210789098,0.8162888422349427,0.021238810682118588,0.019345822130514705
0.649,0.009,-0.283,0.006981965247510403,0.8187457911451826,0.021746307484829988,0.019776164167599582
0.65,0.0028,0.717,0.0069887108016752665,0.8187457911451826,0.021812063900506273,0.019776164167599582
0.651,0.0017,0.717,0.006951946575812257,0.8260207487688038,0.021453682119146136,0.02105039501155699
0.652,0.0025,1.717,0.00695071403814444,0.8260207487688038,0.021441667204249473,0.02105039501155699
0.653,-0.0037,0.717,0.006948529589236539,0.8685400779921667,0.021420372952227932,0.028497784201134198
0.654,-0.0015,0.717,0.006960423432975385,0.8708496217139483,0.021536315469887077,0.028902307773368763
0.655,-0.0052,0.717,0.0068761126576089545,0.8731530565714208,0.02071444461161675,0.029305761359532355
0.656,-0.0059,-0.283,0.006706880077734407,0.8662740059134815,0.01906474651473297,0.028100874818746055
0.657,-0.0088,-0.283,0.006714017207289102,0.8662740059134815,0.019134320051059847,0.028100874818746055
0.658,-0.0063,1.716999999999556,0.006494454906786162,0.8935206005679593,0.01699400221417742,0.032873198328757014
0.659,-0.0004,-0.283,0.006498210359599833,0.9001914632554293,0.017030610787799848,0.03404162011647703
0.66,0.0047,0.717,0.006501456084520015,0.9001914632554293,0.01706225047696491,0.03404162011647703
0.661,0.0069,0.717,0.006480838596308647,0.8934724846551725,0.01686126889829943,0.03286477068101937
0.662,0.0109,-0.283,0.006465769020880643,0.8731038182235692,0.016714368993311555,0.029297137113896293
0.663,0.0095,-0.283,0.006326429957091576,0.9023723645342866,0.015356076231215788,0.034423611575523205
0.664,0.007,-0.28299999999977793,0.006370782814572477,0.9001437039242743,0.015788432841460934,0.034033254925091336
0.665,0.0001,0.717,0.006463377352114523,0.9089782677016122,0.016691054738959526,0.035580655506703154
0.666,-0.009,-0.283,0.006545294644917702,0.9089782677016122,0.017489593661780736,0.035580655506703154
0.667,-0.0054,-0.283,0.006569298258510132,0.9089782677016122,0.017723583568990803,0.035580655506703154
0.668,-0.0021,-0.2829999999995559,0.006531786720158167,0.9111853201816366,0.0173579169019915,0.035967227427775035
0.669,-0.0086,1.717,0.006542727775770328,0.9111853201816366,0.017464571534537204,0.035967227427775035
0.67,-0.0112,0.7169999999997779,0.006534989585868414,0.9242704605661697,0.017389138794789483,0.03825912936564302
0.671,-0.0046,-0.283,0.006482171612617412,0.9264410833052944,0.016874263290214478,0.03863932050734912
0.672,0.0008,-0.283,0.006637595795888463,0.9264410833052944,0.018389355594202527,0.03863932050734912
0.673,0.0001,-0.283,0.006965190787670097,0.9242704605661697,0.02158278817610515,0.03825912936564302
0.674,-0.0049,0.7169999999997779,0.007135607014661933,0.8867025945342799,0.02324402459733652,0.03167900393864898
0.675,-0.002,-0.283,0.00711477656824604,0.8867025945342799,0.023040967078299633,0.03167900393864898
0.676,0.0064,-0.283,0.007106998825012311,0.8844344490085944,0.0229651487682541,0.03128173138574387
0.677,-0.0023,-0.283,0.007716848127064758,0.8844344490085944,0.028910027902801495,0.03128173138574387
0.678,-0.0056,0.717,0.00865516067811068,0.8844344490085944,0.03805680348756246,0.03128173138574387
0.679,-0.0031,0.717,0.008773233123615139,0.8867025945342799,0.03920778687851185,0.03167900393864898
0.68,-0.0024,0.717,0.008768649915518234,0.9001437039242743,0.039163109253903795,0.034033254925091336
0.681,-0.0017,0.717,0.008772106882235044,0.9001437039242743,0.03919680815170432,0.034033254925091336
0.682,0.0034,1.716999999999556,0.00871209592475345,0.8844344490085944,0.038611814633181196,0.03128173138574387
0.683,-0.0017,-0.283,0.008714549423283797,0.8844344490085944,0.03863573161098311,0.03128173138574387
0.684,0.0012,-0.283,0.008777941597746445,0.8844344490085944,0.03925368561041914,0.03128173138574387
0.685,0.0048,-0.283,0.008789414017181864,0.8867025945342799,0.03936552003688297,0.03167900393864898
0.686,0.0084,1.716999999999778,0.008849853809114452,0.8844344490085944,0.039954693881547834,0.03128173138574387
0.687,0.0055,0.717,0.008860502207285605,0.8934243661510738,0.04005849565666013,0.03285634257940561
0.6880000000000001,-0.0010000000000015322,-0.283000000000222,0.008857411681571923,0.8934243661510738,0.04002836886670036,0.03285634257940561
0.6890000000000001,-0.014799999999999801,-1.283,0.008884150134957313,0.9023247206365124,0.040289018297774405,0.03441526660264348
0.6900000000000001,-0.012999999999998601,0.717,0.008944220286301102,0.9023247206365124,0.04087458884467991,0.03441526660264348
0.6910000000000001,-0.0003999999999998446,0.717,0.009272378448098912,0.8866541086299574,0.04407351127082291,0.03167051148577416
0.6920000000000001,0.0010000000000001555,0.7169999999995559,0.009749430359088719,0.915489549491969,0.048723866599909384,0.036721126217354676
0.6930000000000001,0.002400000000000111,-1.283,0.0097144499884178,0.9132928986192329,0.04838287403827095,0.03633637616927768
0.6940000000000001,0.003400000000000122,-0.28299999999977793,0.0097144499884178,0.9067184302691196,0.04838287403827095,0.03518483814146354
0.6950000000000001,0.004500000000000111,0.717,0.009714190922775262,0.9327843920797735,0.048380348637442214,0.03975037023593346
0.6960000000000001,0.005499999999999711,-0.28299999999977793,0.009701723147914412,0.9327843920797735,0.04825881137508076,0.03975037023593346
0.6970000000000001,0.002900000000000677,0.717,0.009692776411445466,0.9413126608874146,0.04817159758836734,0.041244122326663454
0.6980000000000001,0.008999999999999389,0.717,0.009662206510847015,0.9413126608874146,0.0478735987817748,0.041244122326663454
0.6990000000000001,0.003499999999999234,0.717,0.009668120883238042,0.9685221383249683,0.047931252744652236,0.04600994464380242
0.7000000000000001,-0.003399999999998679,-1.283,0.009639912494551265,0.9705938022603776,0.04765627422002517,0.04637280285155908
0.7010000000000001,0.008499999999999112,-0.283,0.009643213489905931,0.9949878086208862,0.047688452691560926,0.05064548688910281
0.7020000000000001,0.0005000000000004774,2.717,0.009798894848764053,1.0009826902513437,0.04920605197190582,0.05169550854896786
0.7030000000000001,0.004799999999999,0.717,0.009920396646871528,0.9868799081253208,0.05039046507518917,0.04922536358039211
0.704,-0.0042,0.717,0.009974205445564677,0.9929237432653455,0.05091499925687862,0.05028395959560571
0.705,0.0019,0.717,0.01014474222078811,0.9929237432653456,0.05257741079574039,0.05028395959560572
0.706,-0.0083,-0.283,0.010203285822560826,0.9908987654545635,0.053148100366866506,0.04992927860386359
0.707,-0.0072,-2.283,0.01019192967004317,0.9929237432653455,0.053037399323307484,0.05028395959560571
0.708,-0.0083,-1.283,0.010162777783398157,0.9929237432653455,0.052753223475167,0.05028395959560571
0.709,-0.0072,-0.283,0.01016622888308371,0.9807549966119943,0.05278686518049131,0.04815256679303355
0.71,-0.0026,-1.283,0.010277948258339593,0.9807549966119943,0.05387591813283241,0.04815256679303355
0.711,-0.0001,-1.283,0.010279369001051288,0.9787048415220521,0.053889767691524836,0.047793475924652606
0.712,0.0021,-2.283,0.010292207317135343,0.990898765454571,0.05401491703113048,0.04992927860386491
0.713,0.0089,-0.283,0.01026218564314402,0.9929237432653532,0.053722262398757305,0.050283959595607046
0.714,0.0115,-1.283,0.010218526584986334,1.0009397401339368,0.05329666902183268,0.05168798570592425
0.715,0.0107,-0.283,0.010252317864798473,1.0029444450915923,0.053626070192923245,0.05203911584608958
0.716,0.0056,-0.283,0.010517795924953208,1.0029444450915925,0.05621397998503492,0.05203911584608962
0.717,-0.0052,0.717,0.010593121361579404,1.0029444450915925,0.0569482607573383,0.05203911584608962
0.718,-0.0038,-0.283,0.01063837196724966,1.0029444450915923,0.0573893687172382,0.05203911584608958
0.719,-0.0001,1.717,0.010642829519500435,1.0049451509912233,0.05743282143461872,0.05238954553913958
0.72,-0.0114,0.717,0.01091782260229168,1.0049451509912235,0.06011348473049955,0.052389545539139624
0.721,-0.0157,-0.283,0.010872458116547834,1.0108809837856285,0.05967126665491852,0.05342922461667079
0.722,-0.0248,-0.283,0.010866620905102334,1.0362653956675503,0.05961436486555924,0.05787538117855098
0.723,-0.0161,0.717,0.010872333943367951,1.0382018911650626,0.05967005620088722,0.05821456422535017
0.724,-0.0059,-0.283,0.010904591848414595,1.04013478135259,0.05998450986344059,0.058553115791194786
0.725,0.0089,-0.283,0.010895114754791806,1.0401347813525914,0.05989212609593498,0.05855311579119502
0.726,0.0311,0.717,0.010900718265024898,1.0401347813525914,0.059946749739764396,0.05855311579119502
0.727,0.0398,0.717,0.010923353918692716,1.0401347813525914,0.0601674046207879,0.05855311579119502
0.728,0.0155,0.717,0.011013129757692596,1.0401347813525914,0.06104254952996577,0.05855311579119502
0.729,0.0057,1.717,0.011073408183184969,1.045870914720372,0.061630150356542034,0.0595578169098032
0.73,-0.003,0.717,0.011107431827241918,1.045870914720372,0.061961816640252944,0.0595578169098032
0.731,-0.011,-0.283,0.01111857681877906,1.0572904836508674,0.06207045926298101,0.061557988966983106
0.732,-0.0131,-1.283,0.011117310395374445,1.0553890137091617,0.06205811402613601,0.061224940752281166
0.733,-0.011,-0.283,0.011114608781217367,1.0439486451436797,0.062031778389482886,0.05922112557608749
0.734,-0.0051,0.717,0.011117609033378639,1.0439486451436797,0.06206102518276756,0.05922112557608749
0.735,-0.0106,-0.283,0.011149254772799318,1.043948645143677,0.06236951138640208,0.059221125576087025
0.736,-0.0058,-1.283,0.011165300617431248,1.057290483650872,0.06252592807266787,0.061557988966983924
0.737,-0.0014,0.717,0.011154774685556361,1.0439486451436808,0.062423320112694664,0.059221125576087684
0.738,0.0077,-1.283,0.011171861616883228,1.0420228294699876,0.06258988542838277,0.05888381313275073
0.739,0.0113,-0.283,0.011181237701161716,1.0420228294699856,0.0626812845455144,0.05888381313275037
0.74,0.028,-0.283,0.01108524046622117,1.0362653956675436,0.06174549277359366,0.05787538117854982
0.741,0.0302,-2.283,0.011012564349436347,1.0343252746101308,0.06103703786711109,0.05753556310396203
0.742,0.0056,-0.283,0.011097607242459293,1.0400934480016433,0.06186604549009624,0.05854587612968947
0.743,0.0023,0.717,0.01111399116902859,1.0400934480016462,0.062025757836861206,0.05854587612968998
0.744,-0.0006,-2.283,0.01121508584341161,1.034325274610134,0.0630112400180014,0.05753556310396257
0.745,0.002,-0.283,0.01124609005107549,1.0343252746101346,0.06331347249839264,0.05753556310396269
0.746,-0.0049,-1.283,0.011242516884933057,1.0343252746101346,0.06327864087560825,0.05753556310396269
0.747,0.0064,0.717,0.01123319760173009,1.034325274610134,0.06318779546170714,0.05753556310396257
0.748,-0.0034,-2.283,0.011241523298733642,1.034325274610134,0.0632689552863235,0.05753556310396257
0.749,-0.0052,0.717,0.011205310134491796,1.034325274610134,0.06291594531521627,0.05753556310396257
0.75,-0.0038,-2.283,0.011199906634586825,1.03238150755263,0.06286327139441243,0.057195106421424946
0.751,-0.0175,-1.283,0.011198865300037547,1.0265700026096665,0.06285312034887831,0.056177203743326735
0.752,-0.0157,-0.283,0.011166949938591141,1.0265700026096665,0.06254200583961228,0.056177203743326735
0.753,-0.011,-1.283,0.011168252021446508,0.9988879737063907,0.06255469868876742,0.0513286126068856
0.754,-0.0186,0.717,0.011189296681791056,1.0226072532175758,0.06275984438911486,0.0554831161948467
0.755,-0.0121,-0.283,0.011181751608374276,1.0206411699380467,0.06268629417044103,0.05513875075848585
0.756,-0.0034,0.717,0.0111849237941584,1.0206411699380467,0.0627172169918913,0.05513875075848585
0.757,0.0042,-0.283,0.011215226769124662,1.0226072532175745,0.0630126137775978,0.05548311619484647
0.758,0.0068,0.717,0.011199647924040402,0.9988879737063893,0.0628607494551003,0.05132861260688535
0.759,0.0151,-0.283,0.011203456424604658,0.9908553782343537,0.06289787514412243,0.04992167920094124
0.76,0.005,-0.283,0.011180476441301419,0.9908553782343538,0.06267386369934107,0.04992167920094126
0.761,0.0086,1.717,0.011192440116526627,0.9847988493582434,0.0627904869421315,0.04886085983943724
0.762,-0.0076,0.717,0.011192667250711509,0.9766503828177245,0.06279270107154332,0.04743363126518807
0.763,-0.0011,-1.283,0.011201907481270462,0.951786509643879,0.06288277587143806,0.043078648633331995
0.764,-0.0109,0.717,0.011166419515683033,0.9664015485611835,0.06253683521784018,0.045638516929141754
0.765,-0.0235,0.717,0.011108187998817068,0.9726168530020016,0.06196918788525415,0.046727146311306283
0.766,-0.0155,-0.283,0.011059004915779788,0.9746798137358776,0.061489745696606875,0.047088480126975904
0.767,-0.0112,-0.283,0.011057521560845962,0.9767384173180046,0.06147528578697748,0.04744905077433064
0.768,0.0037,0.717,0.011094391795827436,0.9828446178025827,0.06183470095706875,0.048518570268378795
0.769,0.0258,1.717,0.011108274500241353,0.9828446178025828,0.06197003111080284,0.048518570268378816
0.77,0.0051,-1.283,0.011109011465384273,0.9684777486458475,0.06197721512935675,0.04600216965716807
0.771,-0.0029,-2.283,0.011050549905527052,0.9664015485611772,0.061407325311989384,0.04563851692914064
0.772,0.0036,0.717,0.010959099095025645,0.9664015485611771,0.060515852593470955,0.04563851692914062
0.773,-0.0084,0.717,0.010714634815304805,0.9684777486458473,0.05813278748088746,0.04600216965716806
0.774,-0.0018,0.717,0.010654227809238201,0.9664015485611771,0.05754393323650735,0.04563851692914062
0.775,0.004,-0.283,0.010690481711566675,0.9664015485611771,0.057897340327034655,0.04563851692914062
0.776,0.0095,-0.283,0.010653269060567806,0.9664015485611771,0.057534587247347856,0.04563851692914062
0.777,0.0142,-0.283,0.010219388113116434,0.9725726502118315,0.05330506729430298,0.046719404058837226
0.778,0.0128,-1.283,0.009521557801777596,0.9705052103823953,0.04650253945116019,0.046357285716025175
0.779,0.0092,0.717,0.009394530384482095,0.9684333569320553,0.04526426199465746,0.04599439431415489
0.78,0.0055,1.716999999999112,0.009512338627695772,0.9621910294409453,0.046412669912157124,0.044901031762951946
0.781,0.0001,-0.283,0.009891352122729388,0.9601012345455755,0.05010733580872226,0.044534997862688566
0.782,-0.0024,0.717,0.010062187324952452,0.9683889631833121,0.05177265644731952,0.04598661861471386
0.783,-0.0031,-0.283,0.010169074061670124,0.9621910294409453,0.05281460029924198,0.044901031762951946
0.784,-0.0085,-0.2829999999991118,0.01039946648557269,0.9642762953102777,0.05506049138906792,0.045266272390598716
0.785,-0.0077,1.717,0.010479397622491496,0.9704609114106235,0.055839669042416114,0.04634952661705751
0.786,-0.0069,-0.283,0.010426327189641297,0.9704609114106235,0.055322332533460965,0.04634952661705751
0.787,-0.0083,-0.283,0.01051520910684492,0.9621910294409453,0.056188763393091506,0.044901031762951946
0.788,-0.0047,-0.2829999999995559,0.011333951613332033,0.9683889631833121,0.06416995682399533,0.04598661861471386
0.789,-0.0022,0.717,0.013310453776233199,0.9601012345455755,0.08343712074149774,0.044534997862688566
0.79,0.0028,-0.283,0.013357432955555271,0.9683889631833121,0.08389507903048818,0.04598661861471386
0.791,0.0137,-1.283,0.013080572043767353,0.9683889631833121,0.08119620792885623,0.04598661861471386
0.792,0.0061,0.717,0.012726809726244235,0.9559529121551971,0.07774769333196414,0.04380840664195947
0.793,0.0152,0.717,0.012727708234941735,0.9705052103823955,0.07775645209513728,0.046357285716025196
0.794,0.009,-0.283,0.012778519606453634,0.9705052103823955,0.07825176702176295,0.046357285716025196
0.795,0.0035,0.717,0.012795511835817992,0.9454797475681017,0.07841740917213952,0.04197400016962642
0.796,-0.0031,-0.2829999999995559,0.012795358048435726,0.9454797475681017,0.07841591003555459,0.04197400016962642
0.797,0.0052,0.717,0.012801149712365479,0.9391306331830609,0.07847236782264137,0.04086193357078268
0.798,-0.0002,0.717,0.012787152782771012,0.9518316777369331,0.07833592418908499,0.04308655996152247
0.799,0.0005,-0.283,0.012783322060427262,0.926301858157247,0.07829858187967352,0.038614934801332004
0.8,0.003,0.7169999999995559,0.012774407332970273,0.9391764099391852,0.078211680120385,0.0408699515081519
0.801,-0.0011,-0.283,0.012769111705300332,0.9110909516111069,0.07816005775018073,0.035950698487059465
0.802,-0.0018,-1.283,0.012650037150032682,0.9045004782911992,0.07699930568129457,0.03479635714035006
0.803,-0.0084,-2.283,0.01259368473903191,0.9045004782911992,0.07644997608263394,0.03479635714035006
0.804,-0.0008,-0.2829999999995559,0.012551111132766414,0.8956217459339048,0.07603496381203138,0.033241220298291616
0.805,-0.0033,0.717,0.01242533752228397,0.8933762450552444,0.07480890860442949,0.03284791402384238
0.806,-0.0117,0.717,0.012416012567308884,0.8933762450552444,0.07471800790146008,0.03284791402384238
0.807,-0.0041,0.717,0.012449113552359404,0.9000481776591919,0.0750406800020881,0.03401652321067132
0.808,-0.0088,-0.283,0.012491224465498049,0.9022770742229462,0.07545118188839367,0.03440692118911518
0.809,-0.0004,-0.283,0.012474342645618582,0.9022770742229462,0.07528661602201182,0.03440692118911518
0.81,-0.0058,0.717,0.012389241850188493,0.9022770742229462,0.07445704395989243,0.03440692118911518
0.811,0.0007,-0.283,0.012383001983265727,0.9110909516111069,0.07439621703995226,0.035950698487059465
0.812,0.005,0.7170000000004441,0.012390362934412258,0.8978137476932196,0.07446797241416384,0.03362515604008328
0.8130000000000001,-0.00039999999999976686,1.717,0.012367235661278803,0.8978137476932196,0.07424252517166091,0.03362515604008328
0.8140000000000001,0.0017000000000000775,1.717,0.012396061107424031,0.8888682253898113,0.07452351884133646,0.03205832073683678
0.8150000000000001,0.0024000000000003216,0.717,0.012348215868624862,0.8888682253898113,0.07405711810779891,0.03205832073683678
0.8160000000000001,0.005300000000000566,0.7169999999991118,0.012184294297154945,0.8888682253898113,0.07245919231423964,0.03205832073683678
0.8170000000000001,0.010399999999999588,-1.283,0.0120859585365182,0.9176340931908842,0.0715006043325501,0.03709674953624516
0.8180000000000001,0.006699999999999112,-0.283,0.012038869003017354,0.926301858157247,0.07104157029869516,0.038614934801332004
0.8190000000000001,-0.0012999999999998668,-0.283,0.012073637880889533,0.9327383016174433,0.07138050120490151,0.03974229735197292
0.8200000000000001,-0.00010000000000073275,-0.283,0.011800116252667648,0.9197736366864974,0.06871418181256764,0.037471497054395196
0.8210000000000001,-0.006700000000000278,-0.283,0.011798708566636366,0.9132458244442625,0.06870045953185469,0.03632813098507119
0.8220000000000001,-0.009200000000000244,0.717,0.011876599387980634,0.8843372258286183,0.0694597479610189,0.03126470245154487
0.8230000000000001,-0.011399999999999912,-0.283,0.011999125441585896,0.9220014761960158,0.0706541456213342,0.03786170988659068
0.8240000000000001,-0.01059999999999879,-0.283,0.011985766288664284,0.9220014761960158,0.07052391910604323,0.03786170988659068
0.8250000000000001,0.00030000000000084375,-0.283,0.011991174070709994,0.9349352483826461,0.07057663476963344,0.04012709922651091
0.8260000000000001,0.007900000000000722,-1.283,0.01198451399473706,0.9370811678979618,0.07051171160492252,0.04050296352380758
0.8270000000000001,0.014399999999998478,-0.283,0.011964426818839498,0.9370811678979618,0.07031589956994354,0.04050296352380758
0.8280000000000001,0.0006999999999981459,-0.283,0.011920148689350787,0.9392221844641958,0.06988427141651557,0.04087796905473481
0.8290000000000001,-0.016000000000001256,-1.283,0.011855304986120082,0.9392221844641958,0.06925216775246998,0.04087796905473481
0.8300000000000001,-0.027299999999999356,-0.283,0.011829911572096629,0.9370811678979618,0.06900462991537663,0.04050296352380758
0.8310000000000001,-0.021499999999999797,-1.283,0.01182088909436977,0.930628564759848,0.06891667779441855,0.039372770556675436
0.8320000000000001,-0.01970000000000052,0.717,0.01182976111320881,0.930628564759848,0.06900316322532749,0.039372770556675436
0.833,-0.0244,0.717,0.01182891697366384,0.930628564759848,0.06899493445872786,0.039372770556675436
0.834,-0.0139,-1.283,0.0118377672860351,0.9327843920797895,0.0690812082925636,0.039750370235936264
0.835,0.001,-0.283,0.011807344827132521,0.9476925214588556,0.06878464676409603,0.042361574213102264
0.836,0.0148,-0.283,0.011818328998006675,0.9349352483826651,0.06889172168903289,0.04012709922651423
0.837,0.0423,-1.283,0.011837121287589777,0.9434440747111975,0.06907491102754156,0.041617445908189624
0.838,0.0702,-0.283,0.011869763660971226,0.9581863676910893,0.06939311253037903,0.04419960313817009
0.839,0.0159,-1.283,0.011860528015237199,0.9581863676910908,0.06930308242386993,0.04419960313817035
0.84,-0.0073,-0.283,0.011860528015237199,0.9560878195377025,0.06930308242386993,0.043832036078275065
0.841,-0.0004,1.717,0.011884018053174138,0.9828883586384481,0.06953206593820872,0.04852623160815338
0.842,0.0058,1.717,0.01181360866861737,0.9767824315928079,0.06884570739074602,0.04745676000776269
0.843,0.0116,0.717,0.011802604468960922,0.98900005825533,0.06873843722300156,0.04959671429186654
0.844,0.0066,0.717,0.011704530052096854,0.9869670301830544,0.06778239684960788,0.04924062327246135
0.845,0.0019,-0.283,0.011672821597727603,0.98900005825533,0.06747329929364758,0.04959671429186654
0.846,0.0062,0.717,0.011684420390811547,0.98900005825533,0.06758636562455689,0.04959671429186654
0.847,0.0023,1.717,0.011762560952324756,1.0247793444986646,0.06834808854879126,0.05586356455612205
0.848,-0.0013,0.717,0.011751313604482705,1.0306009469187076,0.06823844814536673,0.05688323583788871
0.849,0.002,1.717,0.011882103569155625,1.0286501422879641,0.06951340333409198,0.05654154650310039
0.85,-0.0009,-0.283,0.011933560285722273,1.0363898487868168,0.0700150091564154,0.05789717951902258
0.851,0.0017,0.717,0.011932615760235061,1.03638984878682,0.07000580181643472,0.05789717951902313
0.852,-0.0102,-0.283,0.012306356543791095,1.061164231185254,0.07364906873239911,0.06223648757074026
0.853,-0.0037,-0.283,0.014354547186177711,1.061164231185254,0.0936150599576416,0.06223648757074026
0.854,-0.0056,-0.283,0.014703272025761263,1.0611642311852543,0.09701446865674405,0.062236487570740295
0.855,-0.0111,-0.283,0.014717063840031819,1.0686684841363605,0.09714891280320556,0.06355088018522241
0.856,-0.0097,-1.283,0.014733445073859593,1.0686684841363603,0.0973085989008253,0.06355088018522237
0.857,-0.0111,0.717,0.014690951454356506,1.0686684841363603,0.09689436635011957,0.06355088018522237
0.858,-0.0021,0.717,0.014868692897477253,1.0667872948369879,0.09862700979661808,0.06322138418640035
0.859,0.0041,-0.283,0.014851777953615848,1.074252268261478,0.09846212103395936,0.06452889687292412
0.86,0.0031,-1.283,0.014853051522743702,1.074252268261478,0.0984745359281129,0.06452889687292412
0.861,0.0096,0.717,0.014856987704392055,1.072380874178686,0.09851290626660854,0.0642011165359294
0.862,-0.0005,0.717,0.014862800139932802,1.072380874178686,0.09856956653768009,0.0642011165359294
0.863,0.0085,-0.283,0.01486775673015768,1.0705062086431578,0.09861788393298941,0.06387276319408754
0.864,-0.0002,0.717,0.014875721505430418,1.0592291282734159,0.09869552545224819,0.061897548439536265
0.865,0.0122,0.717,0.014878133223477445,1.0478306874787418,0.09871903514923058,0.059901077039285475
0.866,0.001,-2.283,0.014877974077899649,1.0459120197518932,0.09871748378035698,0.059565016580470156
0.867,-0.0034,-1.283,0.014868692369627862,1.0573311447329001,0.09862700465108325,0.06156511087855363
0.868,-0.0099,-1.283,0.014847649567714389,1.0497458483761057,0.09842187706692956,0.060236523266303854
0.869,-0.0037,0.717,0.014868736265787967,1.0516575216027118,0.09862743255575644,0.060571358617234256
0.87,-0.0048,0.717,0.01491245424961422,1.0535657261434836,0.09905360034668198,0.06090558641734353
0.871,-0.0139,-0.283,0.014984555416327226,1.0535657261434836,0.0997564505756256,0.06090558641734353
0.872,-0.0175,2.717,0.015034806472450977,1.0535657261434823,0.10024630348524387,0.060905586417343296
0.873,-0.0062,0.717,0.01502690598242052,1.0535657261434823,0.1001692886257094,0.060905586417343296
0.874,0.004,1.717,0.014983762871029142,1.0535657261434823,0.09974872475550922,0.060905586417343296
0.875,0.0004,0.717,0.014946670627688839,1.0535657261434823,0.09938714542313119,0.060905586417343296
0.876,0.0065,-0.283,0.014946663491738876,1.053565726143481,0.09938707586109366,0.06090558641734307
0.877,0.0098,0.717,0.014930306638308669,1.0478717156339399,0.09922762742631341,0.0599082632448318
0.878,-0.0032,-1.283,0.014878535951456225,1.0611642311852545,0.09872296098656431,0.06223648757074034
0.879,-0.005,-0.283,0.014880015636823663,1.0611642311852545,0.09873738512485057,0.06223648757074034
0.88,0.003,-1.283,0.014795009762160154,1.0555112120050494,0.09790873836096925,0.06124634415361419
0.881,-0.0046,-0.283,0.014542780792907144,1.0574124622062366,0.0954499821872815,0.06157935388009932
0.882,0.0019,0.717,0.014395001880144417,1.0517392777444567,0.09400941683441064,0.06058567845287923
0.883,0.0055,0.717,0.014259871151596529,1.0574124622062366,0.09269214739444095,0.06157935388009932
0.884,0.0001,1.717,0.014051418204383357,1.0798469917293614,0.09066012477466935,0.06550882961961702
0.885,0.0092,0.717,0.013988445857981601,1.0724209631052721,0.09004626330607807,0.06420813823274195
0.886,-0.0096,-1.283,0.013988758495747093,1.0724209631052721,0.09004931093394693,0.06420813823274195
0.887,-0.0121,1.717,0.013918977145617809,1.0724209631052721,0.0893690745362533,0.06420813823274195
0.888,-0.0001,-0.283,0.013272846265047744,1.0724209631052721,0.08307051852059458,0.06420813823274195
0.889,-0.0022,-0.283,0.011342991401495446,1.0798469917293614,0.06425807768902304,0.06550882961961702
0.89,-0.008,-2.283,0.011231598429632785,1.0742922873540177,0.06317220655342795,0.06453590633809211
0.891,0.0046,0.717,0.011212482372472025,1.0742922873540177,0.06298586109239791,0.06453590633809211
0.892,-0.0034,1.717,0.011214610351150006,1.0611642311852354,0.06300660486630881,0.06223648757073699
0.893,0.001,-0.283,0.011202260237929612,1.0478717156339203,0.06288621458276478,0.059908263244828376
0.894,-0.0027,0.717,0.011154064687519782,1.0478717156339203,0.062416398972506386,0.059908263244828376
0.895,-0.0063,0.717,0.011152324977093673,1.0459531231679973,0.06239944008089575,0.05957221596819192
0.896,-0.0139,2.717,0.011150682151451444,1.0459531231679962,0.062383425632983255,0.059572215968191726
0.897,-0.0009,-1.283,0.011145856802436236,1.0459531231679962,0.06233638759164932,0.059572215968191726
0.898,-0.0176,-0.283,0.011157598178181771,1.0324647900744652,0.062450843834274496,0.05720969360716202
0.899,-0.0111,-1.283,0.011234885503409963,1.030517513768117,0.0632042493158709,0.0568686222690693
0.9,0.0026,0.717,0.01129824513438094,1.0187978943942384,0.06382188607771407,0.05481589546868916
0.901,0.0301,-2.283,0.011299008551476395,1.0207675279821657,0.06382932795285674,0.055160882752310236
0.902,0.0739,-1.283,0.01130276431006929,1.0187978943942384,0.06386593950724921,0.05481589546868916
0.903,0.0329,-2.283,0.011266960588597308,1.0187978943942384,0.06351692083000945,0.05481589546868916
0.904,0.0064,-1.283,0.011297507736176866,1.018797894394237,0.06381469783763163,0.054815895468688924
0.905,-0.0077,0.717,0.01131190646087696,1.0207675279821644,0.06395505821477006,0.05516088275231001
0.906,-0.0034,0.717,0.011266015703132196,1.0207675279821644,0.06350770998092399,0.05516088275231001
0.907,-0.0233,-0.283,0.011224854893124967,1.0148895207381907,0.06310646980609798,0.05413133199493416
0.908,-0.0052,-1.283,0.011170913636891534,1.0148895207381907,0.06258064441350643,0.05413133199493416
0.909,-0.002,-0.283,0.011172953571320539,1.0148895207381907,0.06260052992224116,0.05413133199493416
0.91,0.0067,-0.283,0.011182110827776336,1.0168667247308678,0.0626897958813077,0.05447764525785744
0.911,0.0042,-0.283,0.011177766542212772,1.0168667247308678,0.06264744730024935,0.05447764525785744
0.912,0.0063,-0.283,0.011182179690769524,1.0168667247308678,0.06269046716545931,0.05447764525785744
0.913,-0.0049,0.717,0.011218378677917477,1.014889520738191,0.06304333893667126,0.054131331994934195
0.914,-0.0032,0.717,0.011229562699833854,1.0497868016822551,0.06315236203189696,0.060243696361812774
0.915,0.0023,-0.283,0.011297607754608507,1.0723808741786636,0.06381567282847828,0.06420111653592547
0.916,0.0008,1.717,0.01127831732027745,1.0705062086431385,0.0636276275193091,0.06387276319408416
0.917,-0.0068,-0.2829999999995559,0.011284198466802065,1.0459531231679948,0.06368495759272844,0.05957221596819149
0.918,-0.0104,0.717,0.011360612159714678,1.040217443127281,0.06442984680890211,0.058567594251190964
0.919,-0.0115,0.717,0.01132642169881935,1.040217443127281,0.06409655437601233,0.058567594251190964
0.92,-0.0147,-0.283,0.01132462987548919,1.0459531231679948,0.06407908748199047,0.05957221596819149
0.921,-0.014,-0.2829999999995559,0.011323402689805329,1.0516575216026873,0.06406712473883137,0.060571358617229974
0.922,-0.0078,0.717,0.011348757979781266,1.0535657261434592,0.06431429093844995,0.06090558641733925
0.923,-0.0003,-0.283,0.01178985032521819,1.018797894394237,0.06861410840478369,0.054815895468688924
0.924,-0.001,-0.283,0.011836853991779283,1.018797894394237,0.06907230539811603,0.054815895468688924
0.925,-0.0003,-0.2829999999995559,0.011846702092780534,1.0069418816701603,0.06916830578699934,0.05273927896025484
0.926,0.0037,0.717,0.011851850176856893,1.0069418816701603,0.0692184898857684,0.05273927896025484
0.927,0.0073,1.717,0.01183407600931255,1.0089346607298864,0.0690452253146478,0.05308832024330653
0.928,0.0022,-0.283,0.011797401110015527,1.00694188167016,0.06868771429863331,0.0527392789602548
0.929,-0.0018,0.717,0.01179346558985364,1.0009826902513443,0.06864935040838165,0.051695508548967976
0.93,-0.0021,0.717,0.01182771517732493,1.0148895207381907,0.0689832192137401,0.05413133199493416
0.931,0.0058,0.717,0.011854970357649552,1.006984575783007,0.0692489057567514,0.05274675696332498
0.932,0.0004,-1.283,0.011865510524928215,1.0089772705197926,0.06935165248503111,0.05309578347695847
0.933,-0.0021,-2.2829999999991117,0.011872182985425125,1.0089772705197924,0.06941669637546549,0.05309578347695843
0.934,0.004,-0.283,0.011952810163765822,1.006984575783007,0.07020265911836261,0.05274675696332498
0.935,-0.0014,-0.283,0.01195281016376582,0.9929670401093416,0.07020265911836258,0.05029154316886071
0.936,-0.005,-0.283,0.011918546891009284,0.9989740485228488,0.06986865690731453,0.05134368887147617
0.937,0.0058,-1.283,0.011885364662750251,0.9929670401093416,0.06954519283881265,0.05029154316886071
0.9380000000000001,0.013399999999998358,-1.283,0.0118527652544185,0.9787487673668513,0.06922741016408007,0.04780116966930184
0.9390000000000001,-0.0014000000000002,0.717,0.011892242475621068,0.9807988306389944,0.06961223852713176,0.04816024445551739
0.9400000000000001,-0.003199999999999401,-0.283,0.011890382666053967,0.9807988306389944,0.06959410889567613,0.04816024445551739
0.9410000000000001,0.0021999999999994784,-0.283,0.011922915473260272,0.9539395889175555,0.06991124233519655,0.043455766983973104
0.9420000000000001,-0.0024999999999991453,-0.283,0.011921308012472459,0.9601907863455152,0.0698955726278362,0.044550683131458324
0.9430000000000001,0.005200000000000122,0.717,0.01192665232234352,0.9454797475681027,0.06994766955757621,0.041974000169626595
0.9440000000000001,0.006299999999999311,-0.283,0.011941390759142469,0.9454797475681027,0.07009134148621013,0.041974000169626595
0.9450000000000001,9.999999999940048e-05,-0.2829999999995559,0.011954895790366135,0.9454797475681027,0.07022299003948843,0.041974000169626595
0.9460000000000001,-0.00529999999999879,0.717,0.011948502637658379,0.9433529331595653,0.07016066887258963,0.04160148218959986
0.9470000000000001,0.005600000000000844,-0.283,0.011870845026907524,0.9043578754114387,0.06940365380634651,0.03477137981440139
0.9480000000000001,0.013199999999999878,-0.283,0.011886790395561118,0.8977179734972823,0.06955909104154935,0.03360838089982373
0.9490000000000001,0.012099999999998478,0.717,0.011767018739646072,0.8999526412543913,0.06839154355766569,0.033999789720249
0.9500000000000001,-0.0016000000000002,0.717,0.011714977249947706,0.9197268942137482,0.06788423730151788,0.037463309968836594
0.9510000000000001,-0.003400000000000155,-0.283,0.011715204971304674,0.9262090297652531,0.06788645715474878,0.038598675627548026
0.9520000000000001,-0.004800000000000477,-0.283,0.011322605483995121,0.926209029765253,0.06405935348752209,0.038598675627548006
0.9530000000000001,-0.009099999999999879,-0.2829999999995559,0.008598427334964152,0.9326922088774812,0.03750376051978367,0.03973422406907824
0.9540000000000001,-0.007999999999999601,0.717,0.007951444889453721,0.9044054122030291,0.031196903353941353,0.03477970602730887
0.9550000000000001,-0.004399999999999634,-0.283,0.007948806936820263,0.8955257373089948,0.031171188296933352,0.033224404097088045
0.9560000000000001,-0.0010999999999997225,0.717,0.007925650779407958,0.9219082147918821,0.030945459487252972,0.03784537486941999
0.9570000000000001,0.0013999999999995114,0.717,0.007970345899798384,0.9197268942137482,0.03138115251458102,0.037463309968836594
0.9580000000000001,-0.0029999999999989896,0.717,0.007622715893017938,0.9348432772724222,0.02799241636796834,0.04011099020822333
0.9590000000000001,0.006099999999999312,0.717,0.0076065243733637565,0.9284214270377535,0.027834579625309448,0.03898618370519701
0.96,-0.0001,-1.283,0.007628511835647888,0.9305823675223525,0.0280489158643027,0.039364678970721545
0.961,0.0101,0.717,0.007598971546957584,0.9327383016174444,0.027760953829628777,0.03974229735197311
0.962,0.009,-0.283,0.007632714211860491,0.9412669880238586,0.028089881097152426,0.04123612258639198
0.963,-0.0099,2.717,0.007623054771702393,0.9412669880238586,0.027995719795247145,0.04123612258639198
0.964,-0.0124,-2.283,0.0076692212625683225,0.9412669880238586,0.028445755906365847,0.04123612258639198
0.965,-0.0103,-0.283,0.007681046593390183,0.939130633183062,0.028561030552455305,0.04086193357078288
0.966,-0.0038,-0.283,0.0077010968197224515,0.9476017885283518,0.028756482398943448,0.04234568206573974
0.967,-0.0136,0.717,0.007718080010817064,0.9476017885283518,0.02892203644325669,0.04234568206573974
0.968,-0.0045,-1.283,0.0076975207463219324,0.9476017885283531,0.0287216224358824,0.04234568206573998
0.969,-0.0031,-1.283,0.007630902297317816,0.945479747568104,0.028072218351746184,0.041974000169626824
0.97,-0.0045,-1.283,0.0075677027742987145,0.9433529331595666,0.02745614234010668,0.04160148218960009
0.971,0.0158,0.717,0.0074277317052736476,0.9433529331595666,0.026091688720356776,0.04160148218960009
0.972,0.0364,-0.283,0.007303247999275158,0.9454797475681054,0.02487820764578483,0.04197400016962706
0.973,0.0122,0.717,0.007267934441846197,0.9454797475681054,0.024533967142402215,0.04197400016962706
0.974,-0.0063,0.717,0.007271574480544029,0.9454797475681054,0.024569450646328286,0.04197400016962706
0.975,0.0035,0.717,0.007277592534249597,0.9454797475681055,0.02462811530624412,0.04197400016962708
0.976,0.0006,0.717,0.0073226729776275645,0.9828446178025878,0.025067564505106655,0.04851857026837969
0.977,0.0031,-0.283,0.007350752001950927,0.9828446178025878,0.025341281971465335,0.04851857026837969
0.978,0.0009,0.717,0.0074984282259692525,0.9684777486458525,0.026780846302982417,0.04600216965716895
0.979,-0.0103,1.717,0.007652079380234899,0.9705495073322261,0.028278654922126185,0.046365044460843746
0.98,-0.0086,-0.283,0.007679442742609452,0.9684777486458523,0.02854539603584734,0.04600216965716893
0.981,-0.0068,0.717,0.007677247678615081,0.9746357045074593,0.02852399830677687,0.04708075426213081
0.982,0.0044,0.717,0.007657020664207063,0.9725726502118305,0.028326823110373885,0.046719404058837045
0.983,0.0149,-0.283,0.0076963530399249075,0.9787487673668495,0.02871023950345698,0.047801169669301515
0.984,0.0001,-0.283,0.007783232071889378,0.9664460336019388,0.029557146013994957,0.04564630861865497
0.985,-0.0018,-1.283,0.007872441505538976,0.9664460336019388,0.0304267695405341,0.04564630861865497
0.986,-0.0036,0.717,0.007938102484282639,0.9664460336019388,0.03106684009759377,0.04564630861865497
0.987,-0.0083,-0.283,0.008098251404471363,0.9664460336019388,0.03262798966494765,0.04564630861865497
0.988,-0.0097,0.717,0.00817320436739827,0.972661053783374,0.03335863952201406,0.046734888211928324
0.989,-0.0006,-0.283,0.008258246882775391,0.9726610537833681,0.034187643463665526,0.0467348882119273
0.99,-0.0119,-0.283,0.008570960398505776,0.9705938022603916,0.03723600975432113,0.04637280285156153
0.991,-0.0042,-1.283,0.008649849590923287,0.9705938022603916,0.03800503041625479,0.04637280285156153
0.992,0.0049,-0.283,0.008648276272685046,0.9849298056753384,0.0379896935342824,0.04888379723468911
0.993,0.006,-0.283,0.008647306975099278,0.9930103350655264,0.03798024471311722,0.050299126411459866
0.994,-0.0063,0.717,0.008883756822320683,0.9930103350655264,0.040285184242247925,0.050299126411459866
0.995,0.0049,-0.283,0.010215011322261089,0.9930103350655264,0.053262401848028544,0.050299126411459866
0.996,-0.0028,-0.283,0.010927694875047005,0.9930103350655277,0.06020972074834227,0.0502991264114601
0.997,0.0062,0.717,0.011268782294210244,0.9990170831500151,0.06353467901986257,0.0513512265166599
0.998,-0.0051,0.717,0.011315605291833085,0.9990170831500151,0.06399111483219878,0.0513512265166599
0.999,-0.0008,-2.283,0.011242465578276383,1.006984575783004,0.06327814073258653,0.052746756963324475
1.0,0.0027,-1.283,0.011187626570793644,1.004987929929603,0.06274356396051146,0.05239703839965854
1.0010000000000001,0.0015999999999982903,-2.283,0.011189722838647269,1.0049879299296058,0.0627639986137635,0.05239703839965905
1.002,-0.0061,1.717,0.011270433183882284,1.0188400916854274,0.06355077207683864,0.05482328645194244
1.0030000000000001,-0.003600000000000555,-0.283,0.011324918047890108,1.0188400916854274,0.06408189661875197,0.05482328645194244
1.004,-0.0061,-0.283,0.011373480656893687,1.0325064288162804,0.06455529035719348,0.05721698675880214
1.0050000000000001,0.004699999999996936,-2.283,0.011412804121932537,1.0305592311877376,0.06493861988798215,0.05687592920136513
1.006,-0.0091,-0.283,0.01145618989838192,1.0305592311877376,0.0653615492842806,0.05687592920136513
1.0070000000000001,-3.330669073875097e-16,1.717,0.011478171381432374,1.0286083474411303,0.06557582723703591,0.05653422600919383
1.008,-0.0015,0.717,0.011535945763406408,1.0344084006349703,0.06613901836761996,0.057550122878776686
1.0090000000000001,0.006099999999998557,0.717,0.011554434275848324,1.0344084006349674,0.06631924645261547,0.05755012287877618
1.01,-0.0004,0.717,0.011548551451028923,1.0324647900744621,0.06626190001899104,0.05720969360716147
1.0110000000000001,0.008299999999999268,-1.283,0.011549681598043404,1.02665375656298,0.06627291681835894,0.056191873501713924
1.012,0.005,-0.283,0.011510655868606296,1.0246954373394033,0.06589248964748189,0.05584886796324947
1.0130000000000001,0.009699999999999024,0.717,0.011476563212240533,1.0246954373394033,0.06556015062407396,0.05584886796324947
1.014,0.0053,-0.283,0.011451182605677544,0.9889131153049429,0.06531273763553617,0.04958148597099107
1.0150000000000001,0.005999999999997513,-1.283,0.01138559687157249,0.9643654594105863,0.06467340057162073,0.04528188975260478
1.016,-0.0052,1.717,0.011348471857588808,0.9726168530019944,0.0643115017873496,0.046727146311305014
1.0170000000000001,-0.003799999999999689,-0.283,0.011347621286569841,0.9807988306389809,0.06430321032602286,0.04816024445551502
1.018,-0.0024,-0.283,0.011275503513781005,0.9807988306389809,0.06360019821919664,0.04816024445551502
1.0190000000000001,-0.0059999999999992,-0.283,0.011273400814838406,0.9989740485228354,0.06357970087497075,0.05134368887147383
1.02,-0.0024,-0.283,0.011278643690820486,0.9909421507751056,0.06363080901582782,0.0499368776740534
1.0210000000000001,-0.0034999999999985568,0.717,0.011269962389233367,0.9970044813664709,0.06354618271799936,0.05099871322354202
1.022,0.003,0.717,0.011167008129802335,0.9949878086208583,0.06254257309404067,0.05064548688909793
1.0230000000000001,0.0023000000000001778,-0.283,0.01066510784193623,1.0029873093631096,0.057649993010868046,0.05204662365296585
1.024,0.0031,-0.283,0.010621990670680523,1.000982690251316,0.05722968200800865,0.051695508548962994
1.025,0.0081,2.717,0.010628618019337484,1.0069418816701263,0.05729428614318687,0.052739278960248895
1.026,0.0074,0.717,0.010622832484379457,1.0049451509911806,0.05723788810200126,0.05238954553913212
1.027,0.0165,-0.283,0.010623884671817633,1.0029444450915508,0.057248144942708946,0.052039115846082305
1.028,0.0154,0.717,0.010619324473559073,1.0029444450915508,0.05720369162057597,0.052039115846082305
1.029,0.0067,-0.283,0.010619745500071479,1.000939740133893,0.057207795834059966,0.05168798570591659
1.03,-0.001,-1.2829999999995558,0.010589101994455237,1.000939740133893,0.05690907951753015,0.05168798570591659
1.031,-0.0017,-0.283,0.010567476250000605,1.000939740133893,0.0566982693443534,0.05168798570591659
1.032,-0.0078,1.717,0.010562280507129292,1.0068991857469793,0.056647620662326245,0.05273180064009916
1.033,-0.0118,1.717,0.010554378275627071,1.0049023702316782,0.056570588826730446,0.052382052359637984
1.034,-0.0125,-0.283,0.01044864366960032,1.0128235666376235,0.05553987607351004,0.05376947388202976
1.035,-0.0103,-0.283,0.010452994095859428,1.0128235666376235,0.05558228451475465,0.05376947388202976
1.036,-0.0168,-0.283,0.010453055317565829,1.0049023702316782,0.05558288131078891,0.052382052359637984
1.037,-0.0125,1.717,0.010457402851105413,1.0049023702316782,0.0556252615534804,0.052382052359637984
1.038,-0.0179,-1.2829999999995558,0.010449958369256876,1.0128235666376235,0.055552691912652837,0.05376947388202976
1.039,-0.023,-0.283,0.010410182769967339,1.0108384542427482,0.05516495492667175,0.05342177543852829
1.04,-0.0121,-0.283,0.010413222087631494,1.0108384542427482,0.055194582534843294,0.05342177543852829
1.041,-0.0015,1.717,0.010355798088721835,1.0128235666376235,0.05463480697751889,0.05376947388202976
1.042,0.0021,-1.2829999999991117,0.010348884351644912,1.0049023702316782,0.05456741109602486,0.052382052359637984
1.043,0.021,0.717,0.01035772060686866,1.0049023702316782,0.05465354789921608,0.052382052359637984
1.044,0.0508,-0.283,0.010418140823272786,1.0049023702316782,0.05524253091944234,0.052382052359637984
1.045,0.0388,-0.283,0.010406804309200768,1.0029015789879667,0.055132021313645585,0.05203160771831401
1.046,0.028,-1.2829999999995558,0.010399272324168226,1.0382018911650182,0.05505859868200366,0.058214564225342394
1.047,0.0117,-0.283,0.010408139773776848,1.0382018911650182,0.055145039571543965,0.058214564225342394
1.048,0.0031,-1.283,0.01041255599844253,1.0382018911650182,0.055188089423007486,0.058214564225342394
1.049,-0.0049,-0.283,0.010401112121235592,1.0362653956675059,0.05507653322937589,0.057875381178543205
1.05,-0.0027,0.7170000000004441,0.010400821228573246,1.010880983785583,0.05507369757520207,0.053429224616662815
1.051,-0.0139,1.717,0.010424413113812796,1.0049451509911793,0.05530367390842607,0.05238954553913188
1.052,-0.0121,-0.283,0.010430147215212234,1.0049451509911793,0.05535957056953591,0.05238954553913188
1.053,-0.0139,1.717,0.010412404871601166,0.9929237432653105,0.05518661622167254,0.05028395959559958
1.054,-0.0124,-0.283,0.010433105417250234,0.9949445997143178,0.05538840745352068,0.05063791871835439
1.055,-0.0109,-0.283,0.010447451461326744,0.9969613598637471,0.05552825429405442,0.05099116036184149
1.056,-0.0072,-0.283,0.010444011896215376,0.9705495073321854,0.05549472502904801,0.04636504446083661
1.057,0.0116,-1.283,0.010409312278376714,0.9705495073321854,0.05515646927738678,0.04636504446083661
1.058,-0.0072,0.7169999999995559,0.010457065880055553,0.9580966285412238,0.05562197672203677,0.04418388505449385
1.059,-0.0049,-0.283,0.010456038026850427,0.9559978833979561,0.05561195709415171,0.04381628349122504
1.06,0.0016,0.717,0.010459720098371605,0.9538945206366813,0.05564785033873605,0.04344787313818801
1.061,0.0035,-0.283,0.010537895307777668,0.9538945206366813,0.05640991101450118,0.04344787313818801
1.062,0.0017,-0.283,0.010570167752496792,0.9454797475680651,0.05672450641140639,0.04197400016962
1.063,-0.0063,-0.283,0.010561495776952095,0.9725726502117957,0.05663997102488144,0.04671940405883096
1.064,-0.0019,0.717,0.010517250274407258,0.9705052103823596,0.056208660922547754,0.046357285716018916
1.065,0.0046,-1.283,0.010512668443626734,1.006941881670125,0.05616399672417367,0.05273927896024866
1.066,0.0035,-1.2829999999991117,0.010496677258946808,1.0009826902513088,0.05600811286922715,0.05169550854896175
1.067,0.0046,0.717,0.010505791956452418,0.9889131153049088,0.05609696395889217,0.0495814859709851
1.068,0.0039,-2.283,0.010514346823619684,0.9909421507750832,0.05618035775986946,0.049936877674049474
1.069,0.0046,-0.283,0.010523926510544766,0.9929670401093057,0.05627374161834851,0.05029154316885443
1.07,0.0007,1.716999999999112,0.010591789191894341,0.9949878086208511,0.056935274618405696,0.05064548688909666
1.071,-0.0044,-0.283,0.010619909216694496,0.9949878086208511,0.057209391761993106,0.05064548688909666
1.072,-0.0152,-1.283,0.01071389870215819,1.0286083474410945,0.058125611767688726,0.056534226009187574
1.073,-0.0076,-0.283,0.01072805755863524,1.0286083474410945,0.05826363388258855,0.056534226009187574
1.074,0.0073,-1.2829999999995558,0.010726363011407756,1.0286083474410945,0.058247115246884175,0.056534226009187574
1.075,-0.0003,-0.283,0.010807517111712708,1.0305592311877019,0.05903821448396157,0.05687592920135887
1.076,0.0016,-0.283,0.010779619337739792,0.9970044813664637,0.05876626386627005,0.050998713223540756
1.077,-0.0002,-0.283,0.01081345826409211,1.0089772705197573,0.05909612950115781,0.053095783476952284
1.078,0.0013,-0.2829999999991118,0.01104773588621422,1.016866724730833,0.061379893937319,0.054477645257851336
1.079,-0.0064,1.717,0.011066626875390123,1.0148895207381559,0.06156404541048594,0.054131331994928054
1.08,-0.0053,-0.283,0.01105007146534849,1.016866724730833,0.06140266142367289,0.054477645257851336
1.081,0.0059,-1.283,0.011059701890376876,1.0109660375038316,0.0614965398828519,0.05344412203281185
1.082,-0.0017,-0.28300000000044406,0.011058422595611277,1.0247373917778029,0.06148406917454191,0.05585621641010174
1.083,-0.0007,-1.283,0.011039706477138166,1.0109660375038316,0.06130162236052399,0.05344412203281185
1.084,0.003,-0.283,0.010976931716978236,0.9990170831499884,0.06068968698469423,0.05135122651665522
1.085,0.0018,-0.283,0.010907355248889689,0.9990170831499884,0.060011447800025076,0.05135122651665522
1.086,-0.0047,0.717,0.010889833598821633,0.9990170831499884,0.059840644797476965,0.05135122651665522
1.087,-0.0073,-1.283,0.010767483040477996,0.9990170831499884,0.05864795788457998,0.05135122651665522
1.088,-0.0033,-0.283,0.010762919364119522,0.9869234701155014,0.05860347065754044,0.04923299359480375
1.089,-0.0026,-0.283,0.010614505563591494,0.9787926912403476,0.057156716347797745,0.04780886306867139
1.09,-0.0047,0.717,0.010393414323162918,0.9869234701155073,0.05500149423369256,0.049232993594804784
1.091,-0.0018,-0.283,0.010323197763424576,0.9889565877355398,0.054317015364104104,0.0495891002987706
1.092,0.0065,-0.283,0.010329950022710293,0.9767384173179812,0.05438283714204763,0.04744905077432653
1.093,0.0127,-0.283,0.010348325072147037,0.9685221383249561,0.05456195917699157,0.0460099446438003
1.094,-0.004,-0.283,0.01015902854868398,0.9685221383249561,0.052716675516273195,0.0460099446438003
1.095,0.0029,2.717,0.008798278001178949,0.9705938022603654,0.039451927143254795,0.04637280285155694
1.096,0.0051,-0.283,0.007988110112195107,0.972661053783342,0.031554320041810344,0.046734888211922725
1.097,0.0069,0.717,0.007494658959726046,0.9726610537833479,0.02674410307450552,0.04673488821192376
1.098,0.0014,-0.283,0.007432908937833881,0.9808426627070445,0.02614215696180339,0.0481679217748852
1.099,-0.0001,-0.283,0.007426934301214969,0.972661053783348,0.026083915536499247,0.04673488821192377
1.1,0.0075,0.717,0.007424412119900213,0.972661053783348,0.026059329031241016,0.04673488821192377
1.101,0.0038,-2.283,0.007476167760845706,0.9705938022603682,0.026563848801808083,0.046372802851557426
1.102,0.0001,0.717,0.00738620935713664,0.9581414991667727,0.02568692423144722,0.04419174428035057
1.103,-0.0075,0.717,0.007423452165722827,0.9581414991667727,0.02604997129066468,0.04419174428035057
1.104,-0.0082,0.717,0.007408908588981936,0.9433985050360082,0.025908198879648337,0.041609464241672854
1.105,-0.0039,-0.283,0.007808106200654428,0.9455252169375828,0.02979962180036992,0.04198196426729484
1.106,-0.0032,-0.283,0.008421758904206303,0.9476471560794897,0.03578157691768578,0.04235362832961722
1.107,-0.01,0.717,0.008555299265138717,0.9476471560794897,0.03708334327644888,0.04235362832961722
1.108,0.0002,-0.283,0.008645198978167701,0.9476471560794897,0.037959695723502836,0.04235362832961722
1.109,0.0067,-0.283,0.009541918143896086,0.9455252169375828,0.04670101434098149,0.04198196426729484
1.11,0.0128,0.717,0.009932763903638966,0.9455252169375814,0.050511022475945216,0.041981964267294586
1.111,0.0117,-0.283,0.010061384295135504,0.9455252169375814,0.05176482842294182,0.041981964267294586
1.112,0.0026,-2.283,0.010246736724561912,0.9455252169375813,0.05357166461431939,0.04198196426729457
1.113,-0.0011,-0.283,0.010859968146525916,0.9476471560794915,0.059549513031647114,0.04235362832961753
1.114,0.0043,2.717,0.011336318449214006,0.9497643544512658,0.06419302900461814,0.042724462031704234
1.115,0.0016,0.717,0.011424827156245132,0.9476471560794882,0.0650558217697886,0.04235362832961697
1.116,-0.0068,0.717,0.011417843834700995,0.9413126608874002,0.06498774757113351,0.04124412232666092
1.117,-0.0057,0.717,0.011420084074170996,0.9349352483826442,0.06500958567578786,0.040127099226510574
1.118,-0.0051,0.717,0.011413230548747995,0.9327843920797685,0.06494277674422368,0.039750370235932586
1.119,-0.0134,0.717,0.011414168904253662,0.9198671145064242,0.06495192393853488,0.037487869977447005
1.12,-0.0081,-0.283,0.011439359778185111,0.9198671145064242,0.06519748739218169,0.037487869977447005
1.121,-0.0146,2.717,0.011602176778690519,0.9067184302691311,0.0667846457045658,0.035184838141465564
1.122,-0.0063,0.717,0.011665246847297516,0.9067184302691311,0.06739945978013222,0.035184838141465564
1.123,0.0013,-0.283,0.011585314238465243,0.8978616309601414,0.0666202677784071,0.03363354293919359
1.124,-0.0136,0.717,0.011573945613392776,0.9263482688649174,0.06650944515099022,0.03862306377723305
1.125,-0.0024,0.717,0.01156785986554179,0.9198671145064469,0.06645012060098143,0.03748786997745097
1.1260000000000001,0.011300000000003708,1.717,0.01158887828157761,0.9285140342448696,0.0666550104688751,0.03900240413778027
1.127,0.028,-1.283,0.01158801305469903,0.9665349975410856,0.06664657614059136,0.045661890921827805
1.1280000000000001,0.016699999999996936,-0.283,0.011588866010188653,0.9686109115803074,0.06665489084600448,0.046025493548129286
1.129,0.0029,0.717,0.011590171312408462,0.9768264438843534,0.0666676150778839,0.04746446889382113
1.1300000000000001,0.004699999999998957,0.717,0.011595072498433872,0.9644546152676431,0.06671539238686652,0.045297505670780364
1.131,-0.0,1.717,0.011618586628077422,0.9644546152676431,0.06694461074985313,0.045297505670780364
1.1320000000000001,-0.0043999999999992006,-0.283,0.01160637898909641,0.9561327844351669,0.06682560932111316,0.04383991181614307
1.133,-0.0008,0.717,0.011613430729570147,0.9561327844351656,0.06689435047513839,0.04383991181614284
1.1340000000000001,-0.0018999999999977574,-0.283,0.01162967402387556,0.9498548808071222,0.06705269192288225,0.04274031799689209
1.135,0.0082,-0.283,0.01163558957578992,0.9498548808071222,0.0671103573838849,0.04274031799689209
1.1360000000000001,-0.004100000000001777,-0.283,0.011639084844865642,0.9498548808071222,0.06714442965735962,0.04274031799689209
1.137,-0.0121,0.717,0.011734921610651886,0.9477378846666543,0.0680786571580351,0.04236951971623073
1.1380000000000001,-0.0016000000000014212,-0.283,0.011949332807076695,0.9477378846666543,0.07016876145683378,0.04236951971623073
1.139,-0.008,-1.283,0.01195081071600719,0.9561327844351624,0.07018316827821423,0.04383991181614228
1.1400000000000001,0.0007000000000007327,0.717,0.012070935591244643,0.9582312341144096,0.07135415898351773,0.044207461627993744
