time_sec,bts_raw,diy_raw,bts_rms,diy_rms,bts_norm_rms,diy_norm_rms
0.0,0.0004,0.628,0.02499289979295112,1.0320724249765134,0.250313359161841,0.06061033197509367
0.0010000000000000009,-0.0086,-1.372,0.02495803195399639,1.0590135568793013,0.24992327930991715,0.06583465997802589
0.0020000000000000018,0.0027,0.628,0.024935046986016875,1.0852861083195515,0.24966613768099186,0.07092933924736916
0.0030000000000000027,0.0042,0.628,0.0253506883805595,1.0939431677513347,0.2543160769515933,0.0726080852694631
0.0040000000000000036,0.0005,0.628,0.02624281592876294,1.0957355337081172,0.26429664908719935,0.07295565446935079
0.0050000000000000044,-0.0083,-2.372,0.027813071755137312,1.1267741803900901,0.2818637016662227,0.07897455789252027
0.006000000000000005,0.006,-0.372,0.02852565232874355,1.1569804438091882,0.2898356131172597,0.08483204852853957
0.007000000000000006,-0.0122,-1.372,0.028591388973672117,1.2460523381152224,0.2905710341094525,0.10210455190279753
0.008000000000000007,-0.0243,-0.372,0.028591119074120312,1.247626199982671,0.2905680146399253,0.10240974957068051
0.009000000000000008,-0.004,-2.371999999999998,0.028587101687508127,1.2491980789466446,0.2905230705991766,0.10271456272100912
0.010000000000000009,0.0093,-1.372,0.028599356818404552,1.259742053003691,0.29066017343630945,0.10475921248283734
0.01100000000000001,0.0071,-1.372,0.028532268262479024,1.2602957000504134,0.2899096280986649,0.10486657373923776
0.01200000000000001,0.0136,0.628,0.028524083777703303,1.2608491039871381,0.2898180651367752,0.10497388785261638
0.013000000000000012,0.0153,2.6279999999999966,0.028550389429589082,1.261402265133838,0.2901123565267775,0.10508115488502116
0.014000000000000012,0.0062,0.628,0.028692706098447002,1.2629569984942342,0.2917045075398205,0.10538264322118757
0.015000000000000013,0.0109,1.628,0.028790695998070236,1.2635092368103893,0.29280075802969713,0.10548973130159159
0.016000000000000014,0.0066,-0.372,0.028984540162555993,1.2640612338667696,0.294969366846466,0.10559677259776243
0.017000000000000015,0.003,-4.372,0.02906189797081008,1.2656127008392288,0.2958347982380726,0.10589762752765512
0.018000000000000016,-0.0107,3.627999999999993,0.0292114535103146,1.2760210453544778,0.29750793326602937,0.10791597649351851
0.019000000000000017,-0.031,1.628,0.02923407330667569,1.2775579884092627,0.297760989580375,0.10821401499720863
0.020000000000000018,-0.0284,-0.372,0.029191510759267434,1.278103918000383,0.29728482608162565,0.10831987971220318
0.02100000000000002,-0.0307,1.628,0.028921675782058336,1.2999560948221205,0.2942660789751515,0.11255737573526432
0.02200000000000002,-0.0105,0.628,0.028228147077890498,1.3004926220185893,0.2865073080751837,0.11266141717149501
0.02300000000000002,0.0029,-0.372,0.02748946584170118,1.3020006779896747,0.2782433985278855,0.1129538539951652
0.02400000000000002,0.0348,0.628,0.0272815020454838,1.3025363630030373,0.2759168279899374,0.11305773211825815
0.025000000000000022,0.0478,-1.372,0.027248419180916437,1.3030718277995224,0.2755467173292679,0.11316156753768133
0.026000000000000023,0.0439,-0.372,0.02631601729280616,1.304576902281186,0.26511558074750885,0.11345342620157957
0.027000000000000024,0.0186,-0.372,0.024798998039593286,1.3051115298797964,0.24814410607633147,0.1135570992745833
0.028000000000000025,0.0023,0.628,0.02361572001405314,1.305645938562515,0.23490632218078497,0.11366072989619976
0.029000000000000026,-0.0006,0.628,0.02252050283716836,1.3061801285980423,0.22265370868390788,0.1137643181185344
0.030000000000000027,0.0128,-0.372,0.02262596119161675,1.3067141002545304,0.22383351163472368,0.1138678639935863
0.031000000000000028,0.0009,-0.372,0.02279608484524617,1.3072478537995824,0.22573675002304666,0.1139713675732481
0.03200000000000003,0.003,1.628,0.022795958111631785,1.3173272755566785,0.2257353322056248,0.11592593301351872
0.03300000000000003,0.0088,1.628,0.02308063932966639,1.3178567305990394,0.22892016988715178,0.1160286030429028
0.03400000000000003,-0.0116,0.628,0.023272630000218935,1.3193449389549257,0.23106804295829705,0.11631719108797486
0.03500000000000003,-0.0143,-0.372,0.023141367444709786,1.3208314705164939,0.22959955853967184,0.11660545397508615
0.03600000000000003,-0.0165,-0.37200000000000694,0.023044638211923672,1.3223163309388384,0.2285174116119284,0.11689339280085231
0.03700000000000003,-0.0187,-1.372,0.02297790792343831,1.3434495533233834,0.22777087434918034,0.12099147174921111
0.038000000000000034,-0.013,-1.372,0.023102354111549275,1.3439687175616872,0.2291631014583464,0.12109214622265485
0.039000000000000035,-0.0147,-1.372,0.023093129579200924,1.345428043168862,0.22905990308642596,0.12137513342833238
0.040000000000000036,-0.0068,2.628,0.023095223470213255,1.3459464442557887,0.2290833282461296,0.12147565991418878
0.041000000000000036,0.0161,0.628,0.02313117704567178,1.3474036278582555,0.22948555464763395,0.1217582317499695
0.04200000000000004,-0.0068,-0.372,0.022973147369233247,1.368149392289759,0.22771761620829592,0.12578117623696497
0.04300000000000004,-0.0216,-0.37200000000000694,0.02297098858180103,1.3686591873371705,0.22769346502751903,0.12588003387039917
0.04400000000000004,-0.0295,-1.372,0.022967563673413422,1.369168792567977,0.22765514926730157,0.12597885469527578
0.04500000000000004,-0.0273,-2.372,0.02298909031027238,1.3696782081940486,0.2278959759881449,0.1260776387526799
0.04600000000000004,-0.007,-1.372,0.022983289795556965,1.3793014875884195,0.22783108341122868,0.12794375069635996
0.04700000000000004,-0.0204,1.628,0.022897374128491726,1.380723469498659,0.2268699119795762,0.12821949634580532
0.04800000000000004,-0.0323,0.628,0.02292817416879014,1.3821439884415812,0.22721448381193016,0.1284949583018576
0.049000000000000044,-0.0076,-1.372,0.023087085377030102,1.382648623564501,0.22899228428473156,0.12859281534117747
0.050000000000000044,0.0153,-2.372,0.023065321591005383,1.3840671666525426,0.22874880448545734,0.1288678941465136
0.051000000000000045,0.0183,-2.371999999999993,0.023096074966815126,1.407373763435981,0.22909285426432655,0.13338742609001622
0.052000000000000046,0.0481,-1.3719999999999863,0.023274583995347535,1.4020555974034397,0.23108990304923682,0.13235614634170043
0.05300000000000005,0.068,0.628,0.023508920350397,1.4020555974034399,0.23371151349078864,0.13235614634170048
0.05400000000000005,0.0934,2.628,0.023632699206695775,1.4100671587947489,0.23509627490370605,0.13390971969098855
0.05500000000000005,0.0637,2.628,0.023691026530754233,1.4100671587947489,0.23574880498913456,0.13390971969098855
0.05600000000000005,0.0198,4.628,0.023682896452749156,1.390448985225224,0.2356578506965996,0.13010543359360124
0.05700000000000005,0.0024,0.628,0.023724124418250586,1.3904489852252238,0.23611908371705723,0.13010543359360122
0.05800000000000005,-0.0132,0.628,0.02369570346826498,1.385065835516931,0.23580112767807487,0.12906155244315481
0.05900000000000005,-0.0084,1.6279999999999861,0.02357153297677394,1.385065835516931,0.23441198489245452,0.12906155244315481
0.06000000000000005,-0.004,-0.372,0.023568234339350524,1.3650884062648005,0.23437508177381425,0.12518760076788382
0.061000000000000054,-0.016,-0.372,0.023550935312587836,1.3650884062648005,0.23418155094425017,0.12518760076788382
0.062000000000000055,-0.0123,-0.372,0.02355282618210144,1.3787446691891119,0.2342027048247884,0.12783577446260158
0.06300000000000006,-0.0286,0.628,0.023516275656327197,1.3778270460098445,0.23379380011175852,0.12765783225553753
0.06400000000000006,-0.0315,-0.372,0.02346638825241314,1.3530775611223012,0.23323569064139743,0.12285850060820015
0.06500000000000006,-0.034,-0.372,0.023468645757729095,1.3530775611223014,0.2332609462169009,0.1228585006082002
0.06600000000000006,-0.0362,0.628,0.02358390810159007,1.3437856593260384,0.23455043014746682,0.12105664822390268
0.06700000000000006,-0.0384,1.628,0.02357813518191766,1.3502704929417424,0.23448584628685232,0.12231416397992674
0.06800000000000006,-0.0163,0.628,0.02379477234079717,1.2780251877462567,0.23690944905060937,0.10830461262272846
0.06900000000000006,0.0044,-0.372,0.02429876992451569,1.2533231372685474,0.24254786280725615,0.10351447928660135
0.07000000000000006,0.0288,-2.372,0.024842867750984304,1.2443027735689953,0.2486348933185683,0.10176528259945969
0.07100000000000006,0.0321,-0.3719999999999861,0.024997166806237123,1.245318789070764,0.25036109587167615,0.10196230469401965
0.07200000000000006,0.0174,0.6279999999999861,0.024808377896302327,1.2352165389964282,0.24824904212128912,0.10000331246806515
0.07300000000000006,-0.0014,-0.372,0.024853869578838273,1.2412497371632976,0.24875797497515562,0.10117324869213126
0.07400000000000007,0.0055,-0.372,0.025253114326590942,1.2482673655538608,0.25322447868612347,0.10253408210652828
0.07500000000000007,0.0167,0.628,0.0254993641260786,1.2472537519709435,0.25597936938769905,0.1023375257834868
0.07600000000000007,-0.0054,-0.372,0.025067359058155304,1.2621855757789406,0.25114636344360664,0.10523305168553315
0.07700000000000007,-0.0275,-0.372,0.02468467288285272,1.2621855757789409,0.24686510681657148,0.1052330516855332
0.07800000000000007,-0.0188,-0.372,0.024631433195172817,1.2837653366180506,0.24626949406541673,0.1094177217749393
0.07900000000000007,-0.0268,-0.372,0.024825628583010798,1.2827797727594854,0.2484420321521758,0.1092266047541861
0.08000000000000007,-0.0289,-0.372,0.025073556462970516,1.2827797727594854,0.25121569618188644,0.1092266047541861
0.08100000000000007,0.0005,1.628,0.02560333898840227,1.3040187717968317,0.25714257594465484,0.11334519553297873
0.08200000000000007,0.0365,-0.372,0.025713348150598513,1.3107003712127872,0.2583732905225067,0.11464086740968779
0.08300000000000007,0.0318,0.628,0.025739663539228488,1.3078023477551182,0.2586676908411908,0.1140788930591785
0.08400000000000007,0.0101,0.628,0.02612247634077742,1.2981864244365826,0.2629503640844805,0.11221420757943161
0.08500000000000008,0.006,0.628,0.02694868540243711,1.297211817125584,0.2721934808961872,0.11202521521322054
0.08600000000000008,0.0023,-2.3719999999999724,0.02747158677856968,1.3039282972575907,0.27804337860958983,0.11332765103371216
0.08700000000000008,-0.0276,-0.3719999999999861,0.027422247912095032,1.3106103579202706,0.27749140583738824,0.1146234123537374
0.08800000000000008,-0.0077,0.628,0.027371526136843356,1.324828296869719,0.27692396193571206,0.11738050425565176
0.08900000000000008,0.0031,-0.372,0.0273836436527459,1.3388952618056202,0.2770595252212683,0.12010831981648534
0.09000000000000008,-0.0133,0.628,0.02742884709057177,1.3388952618056205,0.27756523337130473,0.12010831981648538
0.09100000000000008,-0.0046,-2.372,0.027431500279915238,1.320046418002345,0.27759491561537986,0.1164532193975547
0.09200000000000008,0.0033,-0.372,0.027483688357339636,1.3256936137277204,0.2781787636003476,0.11754830340785438
0.09300000000000008,0.0011,-0.372,0.02749098966836083,1.3322665136440537,0.2782604461596164,0.1188228966661212
0.09400000000000008,-0.0101,-0.372,0.0276919077789383,1.3332154955139326,0.28050819391721715,0.11900691983838332
0.09500000000000008,-0.0004,1.628,0.02767432769058511,1.3276002959026563,0.2803115187441293,0.11791804040016605
0.09600000000000009,-0.0058,0.628,0.027590624980075258,1.3067446322381353,0.2793751045039552,0.11387378464671652
0.09700000000000009,-0.0137,0.628,0.027590373888409896,1.3067446322381353,0.279372295445448,0.11387378464671652
0.09800000000000009,-0.0275,-0.372,0.027549714228966,1.3181288091375822,0.2789174202822427,0.11608136354060702
0.09900000000000009,1.3211653993039351e-15,0.628,0.02744686383909081,1.323784185309713,0.27776679362869783,0.11717803387390215
0.10000000000000009,0.01190000000000201,2.628,0.0275413652549849,1.317168957794436,0.2788240171166926,0.11589523259893966
0.10100000000000009,0.030000000000000353,0.628,0.027667583302401964,1.2971208677994583,0.28023606669368206,0.11200757864497832
0.10200000000000009,0.033199999999999036,0.6280000000000139,0.027606881357894252,1.2757670374653751,0.2795569708209554,0.10786672019156382
0.10300000000000009,0.024499999999999123,1.6279999999999861,0.027350120486578935,1.2698978392317783,0.27668448873818124,0.10672858624837316
0.10400000000000009,0.016599999999997547,0.6279999999999861,0.02655234201676372,1.2757670374653751,0.26775943583262024,0.10786672019156382
0.1050000000000001,-0.005499999999997701,-0.372,0.024896701369874097,1.2489968180822724,0.2492371506053568,0.10267553493355654
0.1060000000000001,0.015199999999997901,-0.372,0.024188553364055107,1.2287697405026385,0.2413148279856878,0.0987531723469338
0.1070000000000001,-0.003699999999999767,0.628,0.024521358346663375,1.1389590004337395,0.245038044629653,0.08133739464319666
0.1080000000000001,-0.001599999999999767,-0.372,0.024523720709407535,1.148806815252331,0.24506447328531558,0.08324704769378485
0.1090000000000001,0.0005000000000001998,-0.372,0.024508608728121495,1.148806815252331,0.2448954097700806,0.08324704769378485
0.1100000000000001,0.0023000000000005993,-1.372,0.024499142019192743,1.13895900043374,0.24478950207611858,0.08133739464319674
0.1110000000000001,0.007699999999998735,-2.372,0.024661405592207312,1.1400689008872245,0.24660480673598967,0.08155262257202055
0.1120000000000001,-0.0036999999999995227,-0.372,0.024828829849796962,1.1477053649212519,0.24847784594825123,0.08303345838249464
0.1130000000000001,0.0006000000000007105,-0.372,0.02496654421986455,1.155291353108749,0.2500185092842697,0.08450450609722532
0.1140000000000001,0.007000000000002077,0.628,0.024826048168304547,1.2019068741641863,0.24844672621335542,0.09354402132249305
0.1150000000000001,0.02569999999999669,-0.372,0.02485550419707335,1.2245493644442293,0.2487762620746205,0.09793477210657234
0.1160000000000001,-0.00410000000000312,-1.372,0.02489303343760587,1.2245493644442293,0.24919611604402614,0.09793477210657234
0.1170000000000001,-0.03220000000000202,-0.372,0.024795654890085495,1.2245493644442293,0.24810670498397666,0.09793477210657234
0.1180000000000001,-0.0504000000000011,2.6279999999999726,0.024505806075749106,1.2153154536413935,0.24486405542592882,0.09614416512844304
0.1190000000000001,-0.06029999999999771,0.628,0.024465692148599515,1.214274333813577,0.24441528557865172,0.09594227489270628
0.1200000000000001,-0.03969999999999549,0.628,0.024461710902724042,1.214274333813577,0.24437074585814902,0.09594227489270628
0.121,0.0009,-0.372,0.02456815216918657,1.1924976478223954,0.2455615450216474,0.09171941778167973
0.122,0.0183,-1.372,0.024909855040784117,1.1924976478223954,0.24938430575332848,0.09171941778167973
0.123,0.0448,-1.372,0.02529461166874497,1.1914365891480614,0.2536887253262348,0.09151366107609366
0.124,0.0496,-0.372,0.025421225320765753,1.1914365891480614,0.25510520068325154,0.09151366107609366
0.125,0.0101,-2.372,0.02543783425109588,1.2142743338135757,0.25529101114005104,0.09594227489270601
0.126,0.005,-0.372,0.02543022762880925,1.2142743338135757,0.25520591294686906,0.09594227489270601
0.127,-0.0092,-2.372,0.02621335688027598,1.2142743338135757,0.26396707944319214,0.09594227489270601
0.128,-0.0311,-0.372,0.02645316436586567,1.221446954909309,0.26664989751489726,0.09733316393849936
0.129,-0.0352,0.628,0.026649078327277236,1.222481966230342,0.26884166194160747,0.09753386963443435
0.13,-0.0534,-2.372,0.026588942483220742,1.2235161020025778,0.2681688992511715,0.09773440554707599
0.131,-0.0238,-1.372,0.026440093491508845,1.2245493644442278,0.2665036686436373,0.09793477210657203
0.132,0.012,-1.372,0.02652155657151181,1.2153154536413922,0.2674150272806344,0.09614416512844279
0.133,0.0454,-0.372,0.0263198882331437,1.2153154536413922,0.265158886437765,0.09614416512844279
0.134,0.0672,-0.372,0.026279388604672865,1.2153154536413922,0.26470580160226986,0.09614416512844279
0.135,0.0552,-1.372,0.026279217533892806,1.2214469549093088,0.26470388776801584,0.09733316393849932
0.136,0.0008,-1.372,0.026404402144301207,1.2214469549093088,0.26610437588988234,0.09733316393849932
0.137,0.0084,-2.372,0.026461827126816467,1.2091528605027337,0.26674681113530624,0.09494913709394363
0.138,0.0153,-2.372,0.026441731885628737,1.2163556823399821,0.26652199798536996,0.09634588255958512
0.139,0.0215,-1.372,0.026496495785116935,1.2428113831805385,0.2671346626770609,0.10147607750600508
0.14,-0.0078,-1.372,0.02649644370859337,1.2438286169180637,0.26713408007707157,0.10167333583648859
0.14100000000000001,-0.0234,-1.372,0.026506326987238857,1.2438286169180637,0.2672446480957997,0.10167333583648859
0.14200000000000002,-0.0093,-1.3719999999999446,0.026514817051298788,1.2225784680615974,0.267339629690031,0.097552582924625
0.14300000000000002,-0.0397,0.628,0.026514639919155782,1.2236125222753411,0.26733764804499116,0.0977531030217354
0.14400000000000002,-0.0278,0.6279999999999722,0.026722417896306704,1.2246457033649372,0.2696621397539639,0.0979534538057319
0.14500000000000002,-0.0168,-0.372,0.027103154072844707,1.2246457033649372,0.27392158099891223,0.0979534538057319
0.14600000000000002,-0.0069,-1.372,0.02723215458423806,1.2215435385063695,0.27536475906474395,0.09735189308442271
0.14700000000000002,0.0138,-2.372,0.02725909003306258,1.2428113831805385,0.27566609623400795,0.10147607750600508
0.14800000000000002,0.0218,-1.372,0.02737900830324875,1.2862589777173197,0.27700766779334424,0.10990127974389108
0.14900000000000002,0.024,-0.372,0.02794682828419477,1.2959634045607784,0.2833600871209198,0.11178312751085302
0.15000000000000002,0.0305,0.628,0.028544827413983065,1.2949871242060997,0.29005013213062814,0.11159381071399146
0.15100000000000002,0.0004,-0.372,0.028890455082769457,1.2686225481032745,0.29391680106976203,0.10648128635100527
0.15200000000000002,-0.0301,0.628,0.028740994167901452,1.2676252109574284,0.2922447246438095,0.10628788629646381
0.15300000000000002,-0.0181,-1.372,0.02856340890970105,1.2666270885125128,0.29025801043096117,0.10609433395953367
0.15400000000000003,-0.0145,-0.372,0.028492256698446055,1.2666270885125133,0.28946200342672906,0.10609433395953376
0.15500000000000003,-0.0242,-1.372,0.02846018772516142,1.2656281789105783,0.2891032355556699,0.10590062897992797
0.15600000000000003,-0.0449,-0.372,0.02853661190584275,1.2871502239638337,0.2899582220984918,0.11007410703043466
0.15700000000000003,-0.0042,1.628,0.028498105121032204,1.3083182758212106,0.2895274319673207,0.11417893998567406
0.15800000000000003,-0.01,0.628,0.028526649337488188,1.3073512216487986,0.2898467670354587,0.11399141229710053
0.15900000000000003,-0.0049,0.628,0.02861075046481773,1.3281973605395554,0.29078763851699585,0.1180338210404661
0.16000000000000003,0.0285,0.628,0.028623260404106093,1.3375975541045972,0.2909275919930778,0.1198566729774981
0.16100000000000003,0.0329,-1.372,0.02868154288820618,1.3404311616230578,0.29157962043673996,0.1204061560193179
0.16200000000000014,0.02889999999999598,-1.372,0.028671176347298214,1.3207362270164618,0.2914636459782256,0.11658698469598865
0.16300000000000003,0.0108,-3.372,0.028683825764991615,1.33018914803724,0.29160515985257757,0.11842006135277337
0.16400000000000015,0.033700000000000646,-2.372,0.028683816454286963,1.3367399430909734,0.2916050556901631,0.1196903681150942
0.16500000000000004,0.0366,-0.372,0.028688045988738402,1.3357934650812149,0.29165237310993974,0.11950683048243708
0.16600000000000015,0.028699999999995094,0.628,0.02857442934103966,1.3772275407680967,0.2903813002118473,0.1275415783418687
0.16700000000000004,0.0066,0.628,0.028571702473462354,1.3772275407680967,0.29035079370118705,0.1275415783418687
0.16800000000000015,-0.008299999999998224,-0.372,0.028419121606304533,1.378145563121443,0.28864381317553395,0.12771959795534335
0.16900000000000004,-0.0003,-0.372,0.028211114509570943,1.3543360753332097,0.2863167582181478,0.12310254718567365
0.17000000000000015,-0.03680000000000342,0.628,0.02820047347878429,1.362628232149232,0.28619771293636354,0.12471053259679026
0.17100000000000004,-0.0522,-0.372,0.028279912399783655,1.3862953102613096,0.2870864265323123,0.12929996779107458
0.17200000000000015,-0.04729999999999514,-0.372,0.02835598854618225,1.387207331783422,0.28793751948248425,0.12947682374480513
0.17300000000000004,-0.0254,-0.3720000000000555,0.028300274519886287,1.3808959683679507,0.2873142253587553,0.12825294670997586
0.17400000000000015,0.010700000000001065,-2.371999999999917,0.027989542032978352,1.3745556262138103,0.2838379421672921,0.12702345022172254
0.17500000000000004,0.0155,0.6279999999999722,0.028018350690099992,1.3754754318624596,0.28416023563430975,0.12720181564544836
0.17600000000000016,0.0637999999999958,-0.372,0.02855304469712836,1.3553566511658763,0.29014206202042414,0.12330045360330137
0.17700000000000005,0.0449,-1.372,0.02900981832305535,1.3754754318624596,0.29525216329729564,0.12720181564544836
0.17800000000000016,0.037299999999996135,0.628,0.02938215269392492,1.3754754318624594,0.29941761032839864,0.1272018156454483
0.17900000000000005,0.0199,0.628,0.029795708321193392,1.376394622831112,0.3040442153226629,0.1273800618726262
0.18000000000000016,-0.006700000000003131,0.628,0.02960137923776441,1.3845546763705574,0.30187018153218653,0.1289624302885256
0.18100000000000005,-0.0208,0.628,0.029140770071712774,1.3645697637211291,0.29671717060078173,0.12508702745959852
0.18200000000000016,-0.016400000000002645,-0.372,0.029049546431208415,1.3673474768198015,0.2956966168398763,0.12562567165531635
0.18300000000000005,-0.0283,0.628,0.0290475201231266,1.360944016654123,0.295673947756268,0.12438393554786817
0.18400000000000016,-0.010100000000003618,-1.372,0.028697370366904878,1.3609440166541227,0.29175668849522024,0.12438393554786813
0.18500000000000005,-0.0264,0.628,0.027899409791161643,1.3609440166541227,0.28282959830098386,0.12438393554786813
0.18599999999999994,-0.0176,1.628,0.02737150850415349,1.3637291148795623,0.27692376467206575,0.12492401184097203
0.18700000000000006,-0.0256,-1.372,0.02741511120685102,1.357308584247287,0.2774115647859132,0.12367896548965637
0.18799999999999994,-0.0187,2.628,0.027527879997069855,1.3434344371693594,0.27867315237805806,0.12098854047865241
0.18900000000000006,-0.0031,0.628,0.027581919528407207,1.3228284375439292,0.2792777132861624,0.11699269868328949
0.18999999999999995,0.0151,0.628,0.02750047829415379,1.3162084064752408,0.2783665990459219,0.11570896592041878
0.19100000000000006,0.0081,0.628,0.027577548308621677,1.309554910409362,0.2792288107783563,0.1144187437449068
0.19199999999999995,-0.0032,0.628,0.027542671518892746,1.3038378164402318,0.27883863079069765,0.1133101053170154
0.19300000000000006,-0.0333,0.628,0.027529835267624335,1.3067446322381326,0.27869502673767504,0.113873784646716
0.19399999999999995,-0.0464,-0.372,0.027318512413826716,1.3067446322381326,0.2763308771376805,0.113873784646716
0.19500000000000006,-0.0265,-1.372,0.0272790063963208,1.3067446322381329,0.27588890820812295,0.11387378464671605
0.19599999999999995,0.0134,-2.372,0.02726798004402543,1.3067446322381329,0.27576555218722865,0.11387378464671605
0.19700000000000006,0.029,-3.372,0.02726798004402543,1.3000427023695615,0.27576555218722865,0.11257417036130284
0.19799999999999995,0.0624,1.628,0.027236771938674697,1.2787376651161535,0.2754164151750427,0.10844277368769181
0.19900000000000007,0.0581,-0.372,0.027157531634219127,1.2718881673668845,0.27452992357834344,0.1071145435663054
0.19999999999999996,0.0461,-0.372,0.02707457685811721,1.2718881673668843,0.27360187676648845,0.10711454356630536
0.20100000000000007,0.0063,-0.372,0.027046040700350063,1.277748223276218,0.2732826318539851,0.10825090466265234
0.20199999999999996,-0.0093,-0.372,0.027073409633193078,1.2787376651161535,0.27358881857477896,0.10844277368769181
0.20300000000000007,-0.014,1.628,0.02692581991050476,1.277748223276218,0.2719376758915032,0.10825090466265234
0.20399999999999996,-0.0097,-0.3720000000000555,0.02686598432229469,1.270893392927476,0.2712682722780741,0.10692164046263641
0.20500000000000007,-0.0216,-2.372,0.026828090780700697,1.2923277556349055,0.27084434273334246,0.11107811546604347
0.20599999999999996,-0.0035,-2.3719999999999444,0.026738299992542663,1.2865341099973648,0.2698398188397256,0.10995463241223245
0.20700000000000007,-0.0133,-0.3720000000000555,0.02637842238639351,1.3077121349839773,0.2658137304004728,0.11406139932104627
0.20799999999999996,-0.022,-2.371999999999889,0.026395917551693977,1.3190879620327196,0.2660094555068853,0.11626735904173299
0.20900000000000007,-0.0085,1.628,0.026682801137309375,1.3276002959026536,0.2692189319169814,0.11791804040016554
0.20999999999999996,0.0184,1.628,0.026827788968461747,1.3748130883812362,0.27084096624437703,0.12707337636498303
0.21100000000000008,0.0004,0.628,0.02669514815732396,1.4204575003455373,0.2693570627528282,0.13592457758633172
0.21199999999999997,-0.0093,1.628,0.026619840502655683,1.4379907811570318,0.26851456721360445,0.13932456873211155
0.21300000000000008,-0.0006,-1.372,0.02712342030022672,1.4327862628092753,0.27414830703680904,0.13831532713661848
0.21399999999999997,-0.0086,-0.372,0.027845453204709606,1.3992624711244597,0.2822259653290393,0.13181451327714866
0.21500000000000008,0.0033,-3.372,0.02828257636926471,1.3858084128762205,0.2871162293779102,0.12920555039047485
0.21599999999999997,0.001,-1.372,0.02825737489331475,1.4054913621207885,0.28683429082646783,0.1330223975552389
0.21700000000000008,-0.0129,0.628,0.028135870583399634,1.4045912127359226,0.2854749756339968,0.13284784380392858
0.21799999999999997,-0.0369,0.628,0.028129652333799396,1.4036904861093096,0.28540540969713346,0.13267317811596194
0.21900000000000008,-0.0598,1.628,0.028201681358072002,1.4045912127359226,0.28621122594398934,0.13284784380392858
0.21999999999999997,-0.045,2.628,0.028269540866104535,1.4045912127359226,0.2869703962177572,0.13284784380392858
0.22100000000000009,-0.0208,0.628,0.028083104812917696,1.4036904861093096,0.28488466477581703,0.13267317811596194
0.22199999999999998,-0.0045,-0.372,0.027596441950491414,1.4045912127359226,0.2794401811770902,0.13284784380392858
0.2230000000000001,0.0161,-0.372,0.02720374813488015,1.4134834498844793,0.27504696524983036,0.1345721946482638
0.22399999999999998,0.0512,0.628,0.02712087582375287,1.4143779400140928,0.2741198410051909,0.13474565097702343
0.2250000000000001,0.0559,-0.372,0.02709968139632191,1.3957268498893514,0.2738827308382943,0.1311288982446033
0.22599999999999998,0.0515,-2.372,0.02707124622351349,1.3957268498893516,0.27356461568315266,0.13112889824460336
0.2270000000000001,0.0475,-2.372,0.026308549887234068,1.3957268498893514,0.2650320400249651,0.1311288982446033
0.22799999999999998,0.0584,0.628,0.025922185704260747,1.3894541854999147,0.2607096361192174,0.12991252558658078
0.2290000000000001,0.0091,1.628,0.025660026506932002,1.3894541854999147,0.25777676089838014,0.12991252558658078
0.22999999999999998,-0.012,-0.372,0.025756451498794592,1.3885436397542759,0.25885550416653486,0.1297359558101491
0.2310000000000001,-0.0059,1.628,0.025933474075275707,1.3885436397542759,0.2608359234437543,0.1297359558101491
0.23199999999999998,0.0115,-0.372,0.02588950503262573,1.3885436397542759,0.2603440249447276,0.1297359558101491
0.2330000000000001,0.0064,-0.372,0.025849488244837942,1.3894541854999152,0.2598963418326484,0.12991252558658087
0.23399999999999999,0.0016,-0.372,0.02572610428611707,1.397537987928918,0.25851599828999006,0.13148010765968748
0.2350000000000001,-0.0115,1.6279999999999444,0.025726895512633755,1.3912734892197107,0.2585248500436897,0.13026531846118847
0.236,-0.0155,-0.37200000000002775,0.025621714223692492,1.3903641349317122,0.2573481467306844,0.13008897972796377
0.2370000000000001,-0.0263,-1.3719999999999724,0.025582001271806397,1.3813230757147472,0.25690386274705984,0.12833576984005735
0.238,-0.0231,-0.372,0.025482926707068126,1.3749847030433573,0.25579547769363853,0.1271066552668595
0.2390000000000001,0.0038,-0.372,0.02541442022115559,1.3566373712965862,0.25502906943084713,0.12354880627337216
0.24,0.022,-0.372,0.02541632696778216,1.375818474543416,0.25505040093472137,0.1272683372560024
0.2410000000000001,0.0188,0.628,0.02537868535867078,1.3748988983899117,0.25462928985504113,0.1270900163351548
0.242,0.0039,1.628,0.02545182445238306,1.3739787067828282,0.255447524873339,0.12691157606774894
0.2430000000000001,-0.0204,0.628,0.025450113126995723,1.3730578984847774,0.25542837962162,0.12673301621383498
0.244,-0.0236,0.628,0.025242821132052055,1.3721364722542193,0.2531093247814962,0.12655433653265785
0.2450000000000001,-0.0149,-0.372,0.024820083515157135,1.3721364722542193,0.24837999735701477,0.12655433653265785
0.246,-0.0069,-0.372,0.02469166530919626,1.3748988983899117,0.24694333376479785,0.1270900163351548
0.2470000000000001,-0.0046,-0.372,0.024657262532758836,1.379490649225174,0.24655845674514937,0.12798043224483918
0.248,0.0067,-0.372,0.024557762913275567,1.3474575769966157,0.24544531644170517,0.12176869337404995
0.2490000000000001,-0.0113,-0.372,0.023772124290224038,1.3390714796844905,0.2366560766455859,0.1201424913577005
0.25,-0.0279,-1.372,0.02306244216254672,1.345579032834278,0.22871659121786025,0.12140441280456765
0.2510000000000001,-0.0122,0.628,0.02267985568820281,1.3465186325129002,0.22443644998358706,0.12158661661583602
0.252,-0.0104,-0.372,0.022871597936962657,1.3529903671509382,0.22658154386511192,0.12284159226493077
0.2530000000000001,0.0022,-0.372,0.023009640603372607,1.3594312926742753,0.2281258799778913,0.1240905935206237
0.254,-0.0025,-2.372,0.02309139515928891,1.3501831176917047,0.22904049946742536,0.12229722048374468
0.2550000000000001,-0.0102,0.628,0.02312598376812245,1.356637371296586,0.2294274554651732,0.12354880627337211
0.256,0.0101,-2.372,0.023033654409177522,1.336234988840238,0.22839453160911719,0.11959244919164899
0.2570000000000001,-0.0105,-2.372,0.023032302568266858,1.325006385571629,0.2283794080477476,0.11741503858018393
0.258,-0.0403,1.628,0.022999266566914436,1.3250063855716288,0.2280098216637896,0.11741503858018387
0.2590000000000001,-0.0283,3.628,0.022894960587964475,1.3250063855716308,0.22684291077847782,0.11741503858018426
0.26,-0.0102,3.628,0.022883257849147118,1.3155162232383293,0.22671198776283283,0.11557474022118663
0.2610000000000001,0.0261,2.628,0.02281734734934145,1.3069251851204253,0.2259746217896275,0.11390879681630024
0.262,0.0595,0.628,0.022831250537985986,1.3059570993722873,0.2261301620791984,0.11372106908824908
0.2630000000000001,0.0639,-1.372,0.022812393476995815,1.2963274884065827,0.22591920092475704,0.11185372934888693
0.264,0.0599,-1.372,0.022812763672366326,1.290551798805797,0.2259233424419729,0.11073372826554319
0.2650000000000001,0.0346,-2.372,0.022822569150207164,1.2915314318676328,0.22603304007333924,0.11092369520739305
0.266,0.0118,-0.372,0.02289727769110071,1.2472537519709441,0.22686883309759395,0.10233752578348694
0.2670000000000001,-0.003,-0.372,0.022962899111858386,1.2402303882371117,0.2276029650329118,0.10097558019182298
0.268,-0.0218,0.628,0.022968122148349583,1.2402303882371117,0.2276613971400385,0.10097558019182298
0.26900000000000013,-0.0196,-0.372,0.02267581949016619,1.2392102008156636,0.22439129549223746,0.10077774909351048
0.27,-0.0174,-0.372,0.021885297975467823,1.2290577421761917,0.21554742891947654,0.09880902060206519
0.27100000000000013,-0.0036,0.628,0.021566128866017144,1.2012470400794746,0.21197676200447704,0.09341606865522996
0.272,0.0091,1.628,0.021506488510189273,1.2280282730874148,0.2113095425303873,0.09860938963599974
0.27300000000000013,0.0139,0.628,0.02151202195914547,1.2280282730874148,0.21137144734049795,0.09860938963599974
0.274,0.0002,0.628,0.021486884309946875,1.2381891728263568,0.2110902228433379,0.10057975499528325
0.27500000000000013,0.0093,0.628,0.020893425684199007,1.2591758993090991,0.20445097418914937,0.1046494259819846
0.276,0.0014,-0.372,0.020161035660320917,1.3030485267622764,0.19625744684047186,0.11315704908382347
0.27700000000000014,-0.0,-0.372,0.01985621227664823,1.2827797727594858,0.19284727104723315,0.10922660475418618
0.278,-0.0064,0.628,0.019380327912770456,1.2621855757789413,0.1875233706347262,0.10523305168553329
0.27900000000000014,-0.0299,-0.372,0.018505703564458926,1.31175489707794,0.17773861349158054,0.11484535729626767
0.28,-0.031,0.628,0.018496752515449497,1.3021681618767975,0.17763847468238467,0.11298633187191859
0.28100000000000014,-0.0143,0.628,0.018572281110929217,1.3021681618767975,0.17848344197097962,0.11298633187191859
0.28200000000000003,0.0078,0.6280000000000555,0.018654715684380124,1.292510322435855,0.1794056690767915,0.11111351816753529
0.28300000000000014,-0.0128,1.6279999999998889,0.018621478543764447,1.292510322435855,0.1790338324709563,0.11111351816753529
0.28400000000000003,-0.0103,-0.372,0.018670931715109685,1.2934884721961837,0.17958708401546872,0.11130319747285868
0.28500000000000014,-0.0125,-0.372,0.01874857568804747,1.3002241859015076,0.18045571684085468,0.11260936299914143
0.28600000000000003,-0.0103,-0.372,0.018995626331462883,1.2905517988057977,0.18321956688978638,0.11073372826554333
0.28700000000000014,-0.012199999999997203,-0.3720000000000555,0.01949329300282772,1.3116649561524927,0.1887871543082516,0.11482791627348066
0.28800000000000003,0.0004,-1.3720000000000556,0.019542707036356275,1.311664956152493,0.18933996800303793,0.1148279162734807
0.28900000000000015,-0.004399999999997669,-2.372,0.019493213445053847,1.3324436081861633,0.1887862642650031,0.11885723820673827
0.29000000000000004,0.0061,-0.372,0.019489492361937127,1.3324436081861633,0.18874463508479922,0.11885723820673827
0.29100000000000015,0.020899999999995093,-0.372,0.019376182230794143,1.3324436081861633,0.18747699130466383,0.11885723820673827
0.29200000000000004,-0.0012,-0.372,0.0193295161421504,1.3380384825533989,0.18695491992043925,0.11994217624627966
0.29300000000000015,0.007499999999997025,-0.372,0.019575414960974185,1.3286414085792462,0.18970588406707203,0.11811992924916254
0.29400000000000004,-0.0059,-0.372,0.019939941496281675,1.3286414085792462,0.19378398185511309,0.11811992924916254
0.29500000000000015,-0.008099999999997491,1.628,0.02021761772452976,1.337092923731414,0.19689045203637134,0.11975881685923015
0.29600000000000004,0.0032,2.628,0.02060745585658585,1.3380384825533989,0.20125172033935224,0.11994217624627966
0.29700000000000015,-0.018799999999998047,1.628,0.02081155927192014,1.3630610635981557,0.20353510331970034,0.12479446572429659
0.29800000000000004,-0.01,0.628,0.020812965484573755,1.3639886206264755,0.20355083515855643,0.12497433426786236
0.29900000000000015,-0.007399999999994049,-1.372,0.021088258601846172,1.36491554731408,0.2066306445657497,0.1251540805780096
0.30000000000000004,0.0194,0.628,0.021924414071578618,1.3649155473140795,0.21598503564923538,0.12515408057800953
0.30100000000000016,0.030199999999999245,-1.372,0.022461470704637037,1.3831530745743241,0.22199329363649228,0.1286906366779437
0.30200000000000005,0.0268,-1.372,0.02269256602718016,1.3831530745743241,0.22457864540764602,0.1286906366779437
0.30300000000000016,0.023899999999998225,-0.372,0.022715293001880445,1.3840671666525384,0.22483290076706974,0.12886789414651276
0.30400000000000005,0.0159,-1.372,0.022740450932793428,1.3930904170253793,0.22511435216352674,0.13061765060702077
0.30500000000000016,-0.006299999999998068,-0.372,0.022745459278830794,1.3732297324957339,0.2251703824464237,0.12676633765105352
0.30600000000000005,0.0024,1.628,0.022742203982466493,1.3786590985475506,0.22513396420079043,0.12781918090964509
0.30700000000000016,0.0048999999999984455,-0.372,0.022786368541087298,1.3585874643210516,0.22562805001177094,0.12392696134246126
0.30800000000000005,-0.0021,-2.372,0.022768723472228303,1.3382148132540843,0.2254306478769085,0.11997636966549796
0.30900000000000016,-0.0043000000000004215,-0.372,0.022411952857400323,1.3297704284242013,0.2214393185380423,0.11833886474204193
0.31000000000000005,-0.0062,0.628,0.022242571564244834,1.2808984776351109,0.2195443852203066,0.10886179072797836
0.31100000000000017,-0.007999999999998246,-0.372,0.022227706699061222,1.2290577421761868,0.21937808628743552,0.09880902060206424
0.31200000000000006,-0.0001,-0.372,0.02207951669844663,1.2239017375170802,0.2177202280653821,0.09780918660767174
0.31300000000000017,0.0013999999999972689,0.628,0.021373319117874233,1.2228679278630818,0.20981972559901732,0.09760871393471303
0.31400000000000006,-0.0109,0.628,0.02082459095278562,1.2259667415145024,0.20368089371838052,0.09820962480191046
0.31499999999999995,-0.0188,-0.372,0.020232887780021098,1.2259667415145024,0.19706128398820708,0.09820962480191046
0.31600000000000006,-0.0174,-0.372,0.020056345881702516,1.2033509211788747,0.1950862422414594,0.09382404575812585
0.31699999999999995,-0.0138,0.628,0.020118920065937608,1.210588264192606,0.19578628357617964,0.09522748544692192
0.31800000000000006,-0.0051,-0.372,0.02014144554997834,1.2116325513545954,0.19603828478252142,0.09542998988078051
0.31899999999999995,0.0071,-0.372,0.020034983379496663,1.2116325513545954,0.19484725175776463,0.09542998988078051
0.32000000000000006,0.0252,-0.372,0.019939125274825015,1.2126759392365407,0.19377485047345896,0.09563231992946726
0.32099999999999995,0.0132,2.628,0.019949425961898477,1.2229643992388273,0.19389008819993656,0.09762742131908005
0.32200000000000006,0.0066,-0.372,0.02001288969433768,1.2229643992388273,0.1946000812506834,0.09762742131908005
0.32299999999999995,0.0123,1.628,0.02004190558486434,1.2229643992388273,0.1949246931170733,0.09762742131908005
0.32400000000000007,0.0104,-2.372,0.01999351709838262,1.2492801567334466,0.19438335260938902,0.10273047895205524
0.32499999999999996,-0.011,-3.372,0.020012327812516356,1.2492801567334468,0.19459379526381895,0.10273047895205528
0.32600000000000007,-0.0379,0.628,0.02008918781919926,1.2492801567334468,0.1954536575588312,0.10273047895205528
0.32699999999999996,-0.0198,0.628,0.02012616876642616,1.2492801567334468,0.1958673775612954,0.10273047895205528
0.32800000000000007,-0.01,3.628,0.02018949101485778,1.2492801567334466,0.19657578777632942,0.10273047895205524
0.32899999999999996,-0.0071,-0.372,0.020180590102995746,1.2552457615166783,0.19647620987057973,0.1038873077087653
0.33000000000000007,-0.0206,-0.372,0.020119451571606082,1.2621855757789366,0.19579222973340277,0.10523305168553237
0.33099999999999996,-0.0185,-0.372,0.020903504111791413,1.2680904697623299,0.20456372541379436,0.1063781076209363
0.3320000000000001,-0.003,-0.372,0.02132882429247733,1.2739679946135567,0.20932194496728,0.10751785623205597
0.33299999999999996,0.015,0.628,0.0213489194030184,1.2729748454696608,0.2095467566556221,0.10732526829988351
0.3340000000000001,0.0171,-1.372,0.021374599444860372,1.264094720777415,0.20983404910675793,0.10560326625978254
0.33499999999999996,0.0326,-0.372,0.0213801709957182,1.264094720777415,0.20989638017741677,0.10560326625978254
0.3360000000000001,0.0464,-2.372,0.021396216932642678,1.264094720777415,0.21007589221163275,0.10560326625978254
0.33699999999999997,0.0297,-1.372,0.021377549289050647,1.2709862190425791,0.20986705014207976,0.10693964097108895
0.3380000000000001,0.0184,-2.372,0.021434277005823153,1.2924190422590465,0.21050168480892353,0.11109581744191122
0.33899999999999997,0.0003,-0.372,0.0214576537353865,1.286625807683084,0.21076320922454253,0.10997241409969219
0.3400000000000001,-0.0067,-0.372,0.02152589798014804,1.2719809208857373,0.2115266836952661,0.10713252999715255
0.34099999999999997,-0.0132,-1.372,0.022094513438944318,1.2719809208857373,0.21788800233783626,0.10713252999715255
0.3420000000000001,-0.0312,-0.372,0.02230555329210599,1.298277299116359,0.22024898590146394,0.11223182967252057
0.34299999999999997,-0.0431,0.628,0.02237052369531016,1.3240515200340233,0.22097583465438547,0.1172298744681062
0.3440000000000001,-0.0409,1.6279999999999444,0.022757813490173952,1.3334809394613658,0.2253085937344141,0.11905839377989358
0.345,-0.0426,0.628000000000111,0.022901480183376715,1.3344290576901967,0.22691584798620992,0.11924224947797059
0.3460000000000001,-0.0299,2.627999999999889,0.022959655942725123,1.3259605634809681,0.22756668245925102,0.11760006934984599
0.347,-0.0052,0.628,0.02349604716121574,1.3011965369245366,0.23356749619920564,0.11279791783405409
0.3480000000000001,0.0346,0.6279999999999445,0.024076948259300207,1.292510322435851,0.2400662589879573,0.11111351816753451
0.349,0.061,-0.37199999999983346,0.02439020668325927,1.2915314318676288,0.24357080080342505,0.11092369520739227
0.3500000000000001,0.0562,2.627999999999889,0.02463648061946052,1.2847501444262333,0.2463259615316483,0.10960869218510468
0.351,0.0345,0.628,0.024598668351997796,1.2934884721961797,0.24590294123171189,0.1113031974728579
0.3520000000000001,0.0145,0.628,0.024413061832775227,1.2867174988339851,0.24382649010354074,0.10999019451994335
0.353,0.0109,1.628,0.02428187087268815,1.2808984776351116,0.24235880665028875,0.10886179072797848
0.3540000000000001,-0.0054,-0.372,0.024195425095447438,1.2808984776351116,0.24139170467332713,0.10886179072797848
0.355,0.0094,-1.372,0.024191902851487364,1.2740605967178822,0.24135229998282798,0.10753581330113918
0.3560000000000001,0.0174,-0.372,0.024195314204255115,1.275052900161521,0.24139046409114084,0.10772823723814055
0.357,0.0054,-0.372,0.024236785091637097,1.275052900161521,0.24185441477159791,0.10772823723814055
0.3580000000000001,0.0032,0.628,0.024232094516726872,1.275052900161521,0.2418019395158531,0.10772823723814055
0.359,-0.0066,0.628,0.02423552747290927,1.2533231372685436,0.24184034530982929,0.10351447928660062
0.3600000000000001,0.0061,-0.372,0.02424014350529069,1.2543318462487683,0.24189198662979058,0.10371008452661845
0.361,-0.0051,-2.372,0.024237178792123424,1.2533231372685432,0.24185881924953553,0.10351447928660054
0.3620000000000001,-0.0218,-0.372,0.024232439992269088,1.2543318462487678,0.2418058044828941,0.10371008452661837
0.363,-0.0421,1.628,0.024304313792303134,1.254331846248768,0.24260988417681734,0.10371008452661841
0.3640000000000001,-0.0341,-1.372,0.024536123278126386,1.2602735386857424,0.24520322556576538,0.10486227628661211
0.365,-0.0221,-0.372,0.024829459737061303,1.26618734952973,0.2484848927380199,0.10600906134775097
0.3660000000000001,-0.0198,-1.372,0.024809213241378376,1.2661873495297298,0.24825838744618847,0.10600906134775093
0.367,-0.01,0.628,0.024755986082140517,1.2671858183432687,0.2476629148555072,0.10620268085124647
0.3680000000000001,0.0068,0.628,0.024732650836192988,1.2877000488882342,0.2474018545329665,0.11018072711453582
0.369,0.0003,0.628,0.02487902698040696,1.2877000488882342,0.24903942044963548,0.11018072711453582
0.3700000000000001,0.0185,1.628,0.025104559157858433,1.2886818498015484,0.25156253518865196,0.11037111443839584
0.371,0.0163,0.628,0.025241693202979937,1.2886818498015482,0.2530967062075145,0.1103711144383958
0.3720000000000001,0.0141,1.628,0.025347233384345247,1.2621855757789349,0.25427742458735003,0.10523305168553204
0.373,0.0003,2.628,0.02539909431357982,1.2621855757789349,0.2548576126403785,0.10523305168553204
0.3740000000000001,-0.0087,0.628,0.025372149714840527,1.253229002857507,0.254556173107518,0.10349622507807693
0.375,-0.0199,0.628,0.025360062711522736,1.2311140978014916,0.25442095117791896,0.09920778173489382
0.3760000000000001,-0.0123,-0.372,0.025336497825549992,1.1856474594964135,0.254157321784575,0.09039105374612548
0.377,-0.016,-0.372,0.0250537097375656,1.1856474594964135,0.250993663273074,0.09039105374612548
0.3780000000000001,-0.0022,-1.372,0.024977807578613166,1.1919315878052483,0.25014451678701544,0.09160964944642222
0.379,0.0254,-1.372,0.024992635856969866,1.1371510135880816,0.2503104064090587,0.08098679629637194
0.3800000000000001,0.0646,-1.372,0.02498610489654063,1.1371510135880816,0.2502373420565342,0.08098679629637194
0.381,0.0447,-1.372,0.024901302661781793,1.1382626769799582,0.2492886270180001,0.08120236608790748
0.3820000000000001,0.0121,-0.372,0.024837529866122792,1.1382626769799582,0.24857517635879145,0.08120236608790748
0.383,0.0165,0.628,0.0248360967913186,1.149217520753987,0.24855914400278165,0.0833266902366818
0.3840000000000001,-0.0114,-0.372,0.024810294648883128,1.1481164644350157,0.24827048556560077,0.0831131773308112
0.385,-0.015,-0.372,0.024967234719259677,1.15141647469988,0.2500262341651307,0.08375310352615085
0.3860000000000001,-0.0051,-1.372,0.024929282453046788,1.1525143783534675,0.24960164764562429,0.08396600507841877
0.387,-0.0198,-2.372,0.024893805716199962,1.1579882826770649,0.24920475582006785,0.08502748503948092
0.3880000000000001,0.01,0.628,0.025807736659657278,1.1794298788915334,0.2594292508785459,0.08918536273871824
0.389,-0.0177,-1.372,0.026486889332784976,1.156997546032677,0.267027191620193,0.08483536493059005
0.3900000000000001,-0.0502,-0.372,0.02653089449671731,1.156997546032677,0.26751949422182236,0.08483536493059005
0.391,-0.0371,2.628,0.02668298788142082,1.156997546032677,0.2692210210947889,0.08483536493059005
0.3920000000000001,-0.0171,2.628,0.027053438143892636,1.1730787814228234,0.27336538988454295,0.0879537806183063
0.393,-0.0425,1.628,0.02814120945578884,1.1730787814228234,0.2855347036416237,0.0879537806183063
0.39400000000000013,-0.0263,0.628,0.028905020821005715,1.2503864830197733,0.29407975355505195,0.10294501379115895
0.395,0.0182,0.628,0.029177143537836275,1.2403255091774095,0.2971240944797704,0.10099402570457486
0.39600000000000013,0.05,0.628,0.029011344668674176,1.2493745886712193,0.2952692391095864,0.10274879085590015
0.397,0.0558,0.628,0.0288781270951494,1.2230608630052002,0.293778883156593,0.09764612722786477
0.39800000000000013,0.0402,-0.372,0.02889709036048865,1.2443027735689918,0.2939910324597124,0.10176528259945901
0.399,0.0355,-0.372,0.028702053201764274,1.2651880927387624,0.2918090771600557,0.10581528904248892
0.40000000000000013,0.0138,1.628,0.028045949701330786,1.275052900161522,0.2844689963300366,0.10772823723814078
0.401,0.0019,-0.372,0.027560804583659136,1.2492801567334504,0.2790414923224428,0.10273047895205596
0.40200000000000014,-0.009,0.628,0.027452587376744123,1.2492801567334504,0.2778308250337752,0.10273047895205596
0.403,-0.0124,-0.372,0.027463293673349317,1.2492801567334504,0.2779506004692368,0.10273047895205596
0.40400000000000014,-0.0154,-0.372,0.027447439052603745,1.2492801567334504,0.2777732287622959,0.10273047895205596
0.405,-0.0075,0.628,0.027455262349909644,1.2562529267256553,0.27786075098180035,0.10408261358618066
0.40600000000000014,-0.0144,1.628,0.027782977518987097,1.2492801567334504,0.2815270259348567,0.10273047895205596
0.40700000000000003,0.0012,-0.372,0.028143728262978916,1.3003149181689309,0.28556288250114537,0.11262695747613591
0.40800000000000014,-0.0046,-0.3719999999999445,0.028623671473358956,1.3099152165751158,0.2909321907820505,0.11448861302872787
0.40900000000000003,-0.0064,0.6279999999999445,0.028805533811281394,1.3577431115342002,0.2929667543218045,0.12376322746800422
0.41000000000000014,-0.0049,-0.3719999999999445,0.028879497173204222,1.3577431115342002,0.2937942107438703,0.12376322746800422
0.41100000000000003,-0.0064,0.6279999999999445,0.028897427999382753,1.3577431115342002,0.29399480975517334,0.12376322746800422
0.41200000000000014,-0.018700000000003332,-0.3720000000000555,0.02901812517256758,1.3577431115342002,0.29534509520029917,0.12376322746800422
0.41300000000000003,-0.0337,-1.372,0.0298854988537946,1.3577431115342002,0.3050487363572678,0.12376322746800422
0.41400000000000015,-0.039599999999994744,-1.3719999999999446,0.03011163666451864,1.3484833587094103,0.30757862654736945,0.1219676092973447
0.41500000000000004,-0.0159,-0.3719999999999445,0.030165168285175733,1.362306086977164,0.30817750526440935,0.12464806335646592
0.41600000000000015,-0.006199999999996713,0.6279999999998335,0.03008470420002739,1.3687031747292224,0.3072773227649833,0.12588856374824178
0.41700000000000004,0.0086,-2.372,0.030045545029393023,1.3714725162457293,0.3068392341440525,0.12642558455666864
0.41800000000000015,0.027400000000001534,-0.372,0.030039835582508462,1.3705500241568025,0.30677536037779507,0.12624669818804635
0.41900000000000004,0.0343,0.628,0.03005596369670683,1.3759899638129098,0.3069557917606083,0.1273015918421887
0.42000000000000015,0.03639999999999782,-0.372,0.030067343177995455,1.3814084813376146,0.3070830983706279,0.1283523313931786
0.42100000000000004,0.0266,-0.372,0.030010676490339647,1.3921822495301281,0.3064491464598573,0.13044154201240368
0.42200000000000015,0.01749999999999525,-0.372,0.02996648818206286,1.3921822495301286,0.3059547949523907,0.13044154201240377
0.42300000000000004,-0.0039,0.628,0.029935452075930107,1.3921822495301273,0.30560758216124884,0.13044154201240352
0.42400000000000015,-0.006899999999998246,-0.372,0.029937278204994547,1.367692558144273,0.30562801176561794,0.12569258859233406
0.42500000000000004,0.001,0.628,0.029935066100010933,1.375904221849909,0.30560326410099875,0.12728496506719097
0.42600000000000016,0.0030999999999985566,0.628,0.029920087745164962,1.375904221849909,0.3054356955158632,0.12728496506719097
0.42700000000000005,-0.0034,-1.372,0.029934926529444527,1.376823126550968,0.30560170267168424,0.12746315578238035
0.42800000000000016,-0.013199999999998002,0.628,0.029939303102017246,1.3777414183752923,0.3056506650631682,0.1276412276507039
0.42900000000000005,-0.0042,-0.372,0.029944679565853533,1.3713864918424497,0.30571081362069297,0.12640890301186158
0.43000000000000016,0.0006000000000009547,0.628,0.029840557089957594,1.3659282185423582,0.30454595565423953,0.12535045416300777
0.43100000000000005,0.0049,-0.372,0.02916405389791608,1.3604480462011992,0.2969776556709749,0.12428775873038382
0.43200000000000016,0.001299999999997513,1.628,0.028835357215116333,1.3540119573009095,0.29330040014846165,0.12303969537534472
0.43300000000000005,-0.0099,-0.372,0.028811058591608055,1.3540119573009095,0.29302856215264067,0.12303969537534472
0.43400000000000016,-0.032799999999999295,1.628,0.028776731579045454,1.3530775611222958,0.2926445327324408,0.12285850060819913
0.43500000000000005,-0.0296,0.628,0.028776121001283864,1.3540119573009095,0.29263770196546557,0.12303969537534472
0.43600000000000017,-0.04450000000000662,2.628,0.028842405695004902,1.3540119573009095,0.29337925418913763,0.12303969537534472
0.43700000000000006,-0.0743,2.628,0.028848542566425515,1.3475451289715752,0.293447909717177,0.12178567114009718
0.43800000000000017,-0.06239999999998954,0.628,0.02878615837560999,1.3270029626256978,0.2927499939115172,0.11780220766614591
0.43900000000000006,-0.0153,-0.372,0.028771114156850807,1.3270029626256978,0.29258168848159044,0.11780220766614591
0.44000000000000017,0.02920000000000384,-0.372,0.028722063581874232,1.3213613627693745,0.29203294093665416,0.1167082087867715
0.44100000000000006,0.0465,-2.372,0.028283366241084545,1.322318170910813,0.287125065976098,0.116893749601641
0.44199999999999995,0.0835,-0.372,0.02805563306145863,1.2974846268524953,0.28457732778383554,0.11207811750035969
0.44300000000000006,0.0788,-4.372,0.028026307786129835,1.2711718509371657,0.28424925471131923,0.10697563804458331
0.44399999999999995,0.057,-0.372,0.02771943231314368,1.262279042254065,0.2808161214099719,0.10525117637031217
0.44500000000000006,0.0291,1.628,0.027603785872043214,1.262279042254065,0.2795223404366642,0.10525117637031217
0.44599999999999995,0.011,0.628,0.027556618261435947,1.2828717387994408,0.278994658334393,0.10924443847994013
0.44700000000000006,-0.0117,-2.372,0.027136386814950737,1.281885487907996,0.2742933683969375,0.10905318823222655
0.44799999999999995,-0.0087,-2.372,0.026557036279173166,1.2808984776351096,0.26781195234182936,0.1088617907279781
0.44900000000000007,-0.0007,1.628,0.02626602132933748,1.281885487907996,0.26455625677988437,0.10905318823222655
0.44999999999999996,0.0215,0.628,0.02602481098127677,1.2828717387994408,0.2618577443490973,0.10924443847994013
0.45100000000000007,0.0244,0.628,0.026001903019517224,1.2828717387994408,0.261601464218211,0.10924443847994013
0.45199999999999996,0.0164,0.628,0.02605335238686928,1.2838572320594999,0.26217704797103036,0.10943554181048337
0.45300000000000007,-0.0057,1.628,0.026177264154162234,1.2838572320594999,0.26356329631008035,0.10943554181048337
0.45399999999999996,-0.0085,-1.372,0.026299371206234906,1.309915216575111,0.26492935460962697,0.11448861302872693
0.45500000000000007,-0.0436,-0.372,0.026281228733294797,1.310880379255178,0.2647263878250437,0.11467577392586568
0.45599999999999996,-0.0482,3.628,0.026273225324933203,1.310880379255178,0.2646368506342637,0.11467577392586568
0.4570000000000001,-0.0525,1.628,0.026449708482566378,1.3222289485227134,0.2666112352264944,0.11687644791504824
0.45799999999999996,-0.0325,3.628,0.027023848797455566,1.3921822495301257,0.2730343625475267,0.1304415420124032
0.4590000000000001,-0.0217,0.628,0.02736665432884837,1.398442677339898,0.2768694591561233,0.1316555417966344
0.45999999999999996,-0.0119,-0.372,0.027476156557507667,1.397537987928916,0.2780945024745867,0.1314801076596871
0.4610000000000001,0.0269,-2.372,0.02748631153327353,1.4037745308998961,0.2782081100729291,0.1326894757813513
0.46199999999999997,0.0747,-0.372,0.027485196820464183,1.409086209357279,0.2781956393543345,0.13371949748228082
0.4630000000000001,0.0559,-0.372,0.02742374070869278,1.409983489088452,0.2775081063239472,0.133893494760604
0.46399999999999997,0.0385,-2.372,0.027229819732270993,1.4046752036340655,0.27533863818266807,0.1328641310186879
0.4650000000000001,0.0016,-1.372,0.026941417914962375,1.4224030385615478,0.27211217673387067,0.13630184940324552
0.46599999999999997,-0.0125,1.628,0.026894592784504106,1.422403038561548,0.2715883260880308,0.13630184940324555
0.4670000000000001,-0.0081,-0.372,0.02689316695450242,1.4224030385615487,0.2715723747823979,0.1363018494032457
0.46799999999999997,-0.012,-1.372,0.026880577441710393,1.403858570658977,0.2714315310870922,0.13270577247104903
0.4690000000000001,-0.0083,-1.3720000000000556,0.02674344634866621,1.404759189510375,0.2698973930942479,0.13288041725963123
0.47,0.0016,-2.3719999999998334,0.02655500479820221,1.4127554192481533,0.26778922538713146,0.13443101754946654
0.4710000000000001,-0.0012,0.6280000000000555,0.02635813072692043,1.413650370040699,0.26558671984404497,0.13460456320833544
0.472,-0.0037,1.6279999999998889,0.026362770206446798,1.4224859777581516,0.2656386234761857,0.13631793267580145
0.4730000000000001,0.0033,-0.371999999999889,0.026638894953500667,1.423374810448655,0.2687277366438565,0.1364902919341902
0.474,-0.0079,1.6279999999999444,0.027596677757727634,1.4312670418621831,0.27944281924284203,0.13802072524070802
0.4750000000000001,-0.0175,0.628,0.02821566309622583,1.432150424788578,0.2863676449969672,0.13819202770031994
0.476,-0.0155,0.628,0.02860882809727606,1.432150424788578,0.29076613225596915,0.13819202770031994
0.4770000000000001,-0.0168,0.6279999999999445,0.028756554444227343,1.432150424788578,0.2924188034071358,0.13819202770031994
0.478,-0.0061,-0.3719999999999445,0.02882419537646614,1.4269246046741446,0.29317552838989014,0.13717865534237178
0.4790000000000001,-0.0049,0.628,0.029616776677355718,1.4260379845303153,0.30204243857867513,0.13700672513312576
0.48,-0.0136,0.628,0.03055918996947064,1.434797310258715,0.3125855765665652,0.13870530226992928
0.4810000000000001,-0.0097,-0.372,0.031342188887307526,1.4529469498994463,0.32134528497071646,0.14222481551682403
0.482,0.0026,-0.372,0.03180054337895303,1.4717322620027544,0.3264730719970888,0.14586759609557834
0.4830000000000001,-0.0087,-0.372,0.0320498820665602,1.4818494777186464,0.3292625192716092,0.14782949040525176
0.484,0.0112,0.628,0.032232106555884724,1.5193055625223935,0.3313011343376274,0.15509284049115404
0.4850000000000001,0.0246,-0.372,0.032220561108970126,1.5168061543941425,0.3311719710066654,0.15460816420055518
0.486,0.0078,-0.372,0.03215201069560284,1.5217233394430105,0.33040507131063473,0.15556168714974286
0.4870000000000001,0.0056,-0.372,0.03184349555225855,1.5076844589317782,0.3269535943897894,0.15283931762015895
0.488,0.0037,0.628,0.030983487828921054,1.485100651606102,0.31733235902133416,0.14845994642484012
0.4890000000000001,0.0055,0.628,0.0304058878164368,1.485100651606102,0.31087052673991306,0.14845994642484012
0.49,0.0041,0.628,0.030389926230665002,1.485100651606102,0.3106919583743078,0.14845994642484012
0.4910000000000001,-0.0096,0.628,0.030371844980755,1.4935136201599328,0.31048967651518117,0.15009135921633526
0.492,-0.0113,-0.372,0.030195150880583114,1.4834759553184362,0.30851293202808083,0.148144891127886
0.4930000000000001,-0.0097,0.628,0.029185106440801738,1.4834759553184362,0.29721317852118995,0.148144891127886
0.494,0.0071,0.628,0.028148237305306332,1.4180334574376818,0.285613326882447,0.13545451584989415
0.4950000000000001,-0.0085,-2.372,0.02756591355769774,1.4189250792462038,0.2790986483692815,0.13562741596407993
0.496,-0.0143,-0.372,0.027468235682224278,1.4100671587947455,0.27800588861292286,0.13390971969098792
0.4970000000000001,0.0023,-0.372,0.02748774083931286,1.409169932339711,0.2782241002663248,0.13373573274378311
0.498,-0.009,0.628,0.027464814374082294,1.3895390913582337,0.2779676131300303,0.1299289902271471
0.4990000000000001,0.0007,0.628,0.027452941130472256,1.3696269107370171,0.27783478261204864,0.1260676913331648
0.5,-0.0085,1.628,0.027457369916581067,1.3696269107370171,0.2778843291363334,0.1260676913331648
0.5010000000000001,-0.0165,0.628,0.027408046369768065,1.3778270460098412,0.27733252775104666,0.12765783225553687
0.502,-0.027,0.628,0.02732706763857721,1.3859786660758473,0.27642658770948225,0.12923856528241068
0.5030000000000001,-0.0282,2.628,0.027350737168928035,1.3859786660758473,0.276691387799512,0.12923856528241068
0.504,-0.0119,0.628,0.027497955425776655,1.3769088112925363,0.27833837475234713,0.1274797714612024
0.5050000000000001,0.0037,0.628,0.027741934960587158,1.3705500241568,0.28106786713456483,0.12624669818804587
0.506,0.0337,-2.372,0.027478491049445327,1.3705500241568,0.2781206193288759,0.12624669818804587
0.5070000000000001,0.0554,-4.372,0.02705622868631866,1.3231851293045376,0.2733966087500925,0.11706186707458371
0.508,0.0434,-1.372,0.026590740885284726,1.314644207499309,0.26818901866298045,0.11540564204592066
0.5090000000000001,0.0253,-0.372,0.026457273971430207,1.2740605967178826,0.2666958732443413,0.10753581330113926
0.51,0.0089,-1.372,0.02639435948656413,1.2740605967178824,0.2659920248362915,0.10753581330113922
0.5110000000000001,-0.0059,-1.372,0.026467936207402024,1.2740605967178824,0.26681515575664333,0.10753581330113922
0.512,-0.0034,0.628,0.02648685047865945,1.2523136157973713,0.2670267569442284,0.10331871649124232
0.5130000000000001,0.0086,0.628,0.025517804952123198,1.2592695891707646,0.2561856739625874,0.1046675939850832
0.514,0.002,2.628,0.024992948831425603,1.2592695891707646,0.2503139077740131,0.1046675939850832
0.5150000000000001,0.0001,-0.372,0.024699809090247996,1.2372626586188833,0.2470344413585574,0.10040008867180865
0.516,0.0055,0.628,0.024699606844499813,1.252313615797372,0.24703217875801006,0.10331871649124244
0.5170000000000001,-0.0026,0.628,0.024678220800376637,1.2641880461018324,0.24679292490188104,0.10562136357312099
0.518,-0.0041,0.628,0.024665567712550227,1.2857341979213315,0.2466513699683472,0.10979951632157287
0.5190000000000001,-0.0132,1.628,0.024636474644151873,1.3002241859015002,0.2463258946835848,0.11260936299914001
0.52,-0.0169,0.628,0.024677935927548477,1.2934884721961746,0.24678973792058373,0.11130319747285691
0.5210000000000001,-0.0271,1.628,0.024748321822739984,1.3222289485227041,0.24757717185388478,0.11687644791504642
0.522,-0.0421,0.628,0.02475903619597996,1.3222289485227035,0.2476970376457491,0.1168764479150463
0.5230000000000001,-0.0722,1.628,0.024759186756489963,1.312718707152868,0.24769872202376644,0.11503225590105248
0.524,-0.0592,0.628,0.024767072893028333,1.3136818101086256,0.2477869472498016,0.11521901738381521
0.5250000000000001,-0.0473,0.628,0.024758237055333705,1.3107903783239871,0.24768809735365466,0.11465832126697939
0.526,-0.0293,0.628,0.024697108946806923,1.3306325313936966,0.24700423382103165,0.11850604066847281
0.5270000000000001,0.02,0.628,0.024686481959368182,1.3362349888402232,0.2468853456475523,0.1195924491916461
0.528,0.0693,-0.372,0.024630648725057835,1.3362349888402234,0.24626071789816736,0.11959244919164615
0.5290000000000001,0.0754,1.628,0.024626692882481215,1.3371811543325056,0.24621646237408612,0.1197759262220313
0.53,0.0696,-2.372,0.0246789587606004,1.3455790328342634,0.2468011807451865,0.1214044128045648
0.5310000000000001,0.054,-2.372,0.024657208723618915,1.3539248235054897,0.24655785476171815,0.12302279870117913
0.532,0.0399,-2.372,0.024691921843138398,1.3539248235054897,0.2469462037081371,0.12302279870117913
0.5330000000000001,0.0356,-3.372,0.024799079024117564,1.374064568898424,0.2481450120811825,0.12692822614230845
0.534,0.0316,-1.372,0.02488203279391226,1.3804071665276272,0.24907304763509372,0.12815816000422417
0.5350000000000001,0.0208,-1.372,0.024858743861250206,1.380407166527627,0.24881250543699324,0.12815816000422414
0.536,-0.002,1.628,0.024741010259299968,1.380407166527627,0.2474953745968848,0.12815816000422414
0.5370000000000001,-0.010700000000001753,-0.372,0.024729927811512186,1.380407166527627,0.24737139101425945,0.12815816000422414
0.538,-0.0186,0.628,0.024739113160429246,1.3813230757147337,0.2474741510261457,0.12833576984005474
0.5390000000000001,-0.011700000000003465,-0.372,0.024741209632871568,1.3894541854999005,0.24749760506529406,0.12991252558657804
0.54,-0.0273,1.628,0.024901248576575073,1.3894541854999003,0.249288021946104,0.12991252558657798
0.5410000000000001,-0.033099999999999595,1.628,0.025101644463213266,1.3975379879289047,0.25152992738473656,0.1314801076596849
0.542,-0.0313,-0.372,0.025108457002888558,1.3975379879289047,0.25160614187199554,0.1314801076596849
0.5430000000000001,-0.01639999999999696,-0.372,0.025155900787680586,1.3975379879289047,0.2521369136405129,0.1314801076596849
0.544,-0.0027,0.628,0.025166974239467937,1.4028732799159058,0.2522607965814403,0.13251470841187624
0.5450000000000002,0.017599999999999446,-0.372,0.025169859488745266,1.4019714495669418,0.25229307496876235,0.13233982869401628
0.546,0.0151,-0.372,0.02536308909677231,1.382238377995341,0.2544548085073494,0.12851326198674623
0.5470000000000002,0.003199999999998579,-0.372,0.02578648825864379,1.3912734892196972,0.25919153688853575,0.13026531846118583
0.548,-0.0032,-0.372,0.0260057379861998,1.3921822495301148,0.2616443674574285,0.1304415420124011
0.5490000000000002,-0.005000000000001976,1.628,0.026116773821694476,1.3912734892196972,0.2628865678221898,0.13026531846118583
0.55,-0.0139,1.628,0.026119124427827618,1.3903641349316989,0.2629128649521478,0.13008897972796118
0.5510000000000002,-0.012400000000001687,1.628,0.026161453623936362,1.382238377995341,0.2633864178606487,0.12851326198674623
0.552,-0.02,0.628,0.02628730826717201,1.3876324965209024,0.26479440189605247,0.1295592701710315
0.5530000000000002,-0.029000000000001934,-0.372,0.026490395743272496,1.3876324965209024,0.2670664191755781,0.1295592701710315
0.554,-0.0377,-0.372,0.02647632050982479,1.37222244964133,0.2669089541549841,0.12657100896025747
0.5550000000000002,-0.02109999999999627,-0.372,0.026504382872389758,1.3776557854185831,0.267222898539326,0.12762462201381666
0.556,-0.0043,0.628,0.026503795872844002,1.3776557854185831,0.26721633155087043,0.12762462201381666
0.5570000000000002,0.016000000000000576,0.628,0.026334173513698635,1.3667675147961382,0.2653187013356941,0.12551320749264516
0.558,0.0186,1.628,0.025943993978641836,1.2964184933916634,0.2609536136267519,0.11187137671031475
0.5590000000000002,0.011700000000002509,0.628,0.025631989672859942,1.2993419073944508,0.2574631021110535,0.11243827470458001
0.56,0.023,-0.372,0.02551572378037725,1.300314918168914,0.2561623910981821,0.11262695747613265
0.5610000000000002,0.0286999999999988,-0.372,0.025500516106623718,1.314644207499295,0.25599225703470935,0.11540564204591795
0.562,0.0233,-1.372,0.025528816724866864,1.4135669124264088,0.2563088668764599,0.1345883794060747
0.5630000000000002,0.021799999999996315,-0.372,0.025718709537308898,1.4135669124264088,0.2584332704064567,0.1345883794060747
0.5640000000000001,0.0052,-0.37200000000022204,0.025869325369431314,1.4363949331952859,0.2601182673335097,0.13901510759940727
0.5650000000000002,-0.0013000000000012878,-2.372,0.025903621288332384,1.4126719087620985,0.26050194889702416,0.1344148234945022
0.5660000000000001,-0.0071,-2.372,0.025907922405315417,1.4215135982493838,0.2605500671379632,0.13612937231703615
0.5670000000000002,-0.0016999999999996668,-2.372,0.025960936150442555,1.429416106005907,0.2611431521833534,0.13766179837525683
0.5680000000000001,-0.0002,-2.371999999999778,0.025974492220624694,1.429416106005907,0.26129480912590675,0.13766179837525683
0.569,0.0165,-0.3719999999995559,0.025971439514867512,1.4372751644032085,0.26126065733888965,0.13918579888903826
0.5700000000000001,0.0187,3.627999999999667,0.025961395227531294,1.4372751644032085,0.2611482880543498,0.13918579888903826
0.571,-0.0074,0.627999999999889,0.02592149265594507,1.436394933195286,0.2607018827226072,0.13901510759940733
0.5720000000000001,-0.0038,-0.371999999999889,0.02578133306952044,1.4337509971419553,0.25913386381586595,0.13850240497016297
0.573,-0.0071,0.627999999999778,0.025510447931735365,1.456262651449906,0.2561033681613242,0.14286778451018098
0.5740000000000001,-0.0043,-1.3720000000001111,0.02450270346580332,1.470792440866178,0.2448293453416646,0.14568534933997507
0.575,-0.0018,-2.371999999999889,0.023777513055471048,1.469932280755787,0.23671636282369793,0.1455185501658373
0.5760000000000001,-0.0137,-1.371999999999778,0.02330714019033108,1.469932280755787,0.23145412165581217,0.1455185501658373
0.577,-0.0025,0.628,0.023124494825537908,1.4690716170108014,0.22941079809493425,0.1453516533286791
0.5780000000000001,-0.0042,0.628,0.02304978352142249,1.46821044874553,0.22857497415745945,0.14518465865675043
0.579,-0.0168,1.628,0.022006401666916187,1.46821044874553,0.21690226223991665,0.14518465865675043
0.5800000000000001,-0.0088,1.628,0.020739931632377515,1.4656239079320492,0.2027337775173552,0.14468308590727003
0.581,-0.0163,-0.372,0.019544680791946045,1.4467592846442603,0.18936204916181554,0.14102492558710308
0.5820000000000001,-0.0232,-2.372,0.018784884840978365,1.4285310322173301,0.18086192122355682,0.13749016802969422
0.583,-0.0221,-1.372,0.018389764906541164,1.4485066157621547,0.17644156337695985,0.14136376179200158
0.5840000000000001,-0.0032,0.628,0.01806183211672155,1.4100671587947327,0.1727728538174173,0.13390971969098542
0.585,0.0047,-0.372,0.01785009004698798,1.403858570658964,0.1704040142883901,0.13270577247104648
0.5860000000000001,0.0025,-0.372,0.01782265698228339,1.4434217529601416,0.1700971100999293,0.1403777233722544
0.587,-0.0088,0.628,0.017872786607809395,1.458079507784026,0.17065792939611713,0.14322010279650604
0.5880000000000001,0.0049,1.628,0.017840938494688048,1.4666474829426692,0.17030163237218748,0.1448815739147665
0.589,0.0287,0.628,0.017747357762410907,1.4886617572250678,0.16925470892399255,0.14915050329801427
0.5900000000000001,0.0319,1.628,0.017723034589412275,1.4886617572250678,0.16898259628363238,0.14915050329801427
0.591,0.0112,0.628,0.017593003842768663,1.4886617572250678,0.16752789258197365,0.14915050329801427
0.5920000000000001,0.0191,-0.372,0.01729811874124231,1.4802212129347652,0.16422890015266672,0.14751374311826643
0.593,0.0122,-1.372,0.01708785598558458,1.502878345550832,0.16187661027606862,0.15190733329181139
0.5940000000000001,-0.0081,-0.372,0.01700934253819942,1.5251989390991412,0.16099825030745119,0.1562356630122279
0.595,-0.0324,-0.372,0.017022989886961055,1.5243694794005702,0.161150928418389,0.15607481715221788
0.5960000000000001,-0.0487,1.628,0.017035339229143236,1.5243694794005702,0.161289085233213,0.15607481715221788
0.597,-0.0338,0.628,0.01711501069208894,1.5251989390991412,0.16218040036486675,0.1562356630122279
0.5980000000000001,-0.0257,-0.372,0.017158139707930738,1.5309155135826293,0.16266290116266588,0.15734420070332042
0.599,-0.0036,-0.372,0.017156768528695823,1.5309155135826293,0.16264756125606566,0.15734420070332042
0.6000000000000001,0.0171,0.628,0.017149568460134587,1.52270920451858,0.1625670113349233,0.1557528625814209
0.601,0.0305,-1.372,0.01713347288817637,1.5144584290508758,0.1623869440145986,0.15415290169346085
0.6020000000000001,0.0424,0.628,0.017243087024616233,1.506162456417264,0.1636132392882098,0.1525441763326362
0.603,0.0268,1.628,0.01736945353387099,1.5053225073118741,0.16502694976456672,0.1523812964043481
0.6040000000000001,0.017,-1.372,0.017286809549238315,1.5111142765914587,0.16410237989576112,0.15350441560153094
0.605,-0.0033,0.628,0.01701433094532406,1.5111142765914587,0.16105405752610452,0.15350441560153094
0.6060000000000001,0.0155,1.628,0.016976028034347498,1.511951008141371,0.16062554820949937,0.15366667159296132
0.607,0.0321,0.628,0.016972820731976077,1.5333149836945008,0.16058966689102297,0.15780949737099131
0.6080000000000001,0.0166,1.628,0.0169677671661299,1.5406441293573434,0.1605331307168275,0.15923073910137292
0.609,0.0068,0.628,0.016887066518060486,1.53248991680888,0.15963030169751413,0.15764950334956732
0.6100000000000001,0.0014,-2.372,0.016880773103990183,1.53248991680888,0.1595598948669725,0.15764950334956732
0.611,-0.0134,-5.372,0.016972252496871253,1.5381793949405602,0.16058330982754576,0.15875278661296768
0.6120000000000001,-0.0314,0.628,0.01722206232082558,1.543847906018766,0.16337802788459949,0.15985200402030078
0.613,-0.0292,2.628,0.01732129600201662,1.5381793949405604,0.16448819303464263,0.15875278661296774
0.6140000000000001,-0.0135,-0.372,0.017258334956867065,1.5463036051248369,0.16378382373889147,0.16032820441354761
0.615,0.0047,1.628,0.01728754871751299,1.568006161188662,0.16411064925399424,0.16453668651402367
0.6160000000000001,-0.0175,1.628,0.017443689127889173,1.5512033405808356,0.1658574517512166,0.16127834360005613
0.617,-0.0088,0.628,0.01791478099985775,1.533391923818403,0.17112773672352627,0.15782441732481142
0.6180000000000001,-0.0009,1.628,0.018631919510442022,1.521124678036841,0.1791506395590244,0.15544559686965326
0.619,0.011,1.628,0.01911097932818564,1.5029568438032588,0.1845100649885933,0.15192255539234575
0.6200000000000001,0.0088,-0.372,0.01918540568167067,1.50295684380326,0.1853427010743675,0.15192255539234595
0.621,0.0029,-1.372,0.019094442522929623,1.459027517879756,0.18432506142258695,0.14340393752579864
0.6220000000000001,0.0195,2.628,0.01908068148487705,1.4590275178797565,0.18417111142606335,0.14340393752579872
0.623,0.013,2.628,0.019156331649876446,1.4598941030196484,0.18501743875937735,0.1435719826186923
0.6240000000000001,-0.0009,-0.372,0.01914338826189567,1.4650023221241621,0.18487263612697188,0.144562550209138
0.625,0.0045,0.628,0.019147327397817656,1.4777355344336838,0.18491670474731717,0.14703172922789448
0.6260000000000001,0.003,-0.372,0.01929605827664063,1.4590275178797585,0.1865806139807828,0.1434039375257991
0.627,-0.0075,-0.372,0.01928475360755678,1.4538983066682258,0.18645414432351495,0.14240929922099235
0.6280000000000001,0.0102,-0.372,0.01942195685060941,1.4538983066682258,0.18798908948610238,0.14240929922099235
0.629,-0.0166,-1.372,0.01953478825065974,1.453898306668226,0.18925137751838153,0.1424092992209924
0.6300000000000001,-0.0057,-0.372,0.019468469208693516,1.451286258402937,0.18850944102775177,0.1419027801576286
0.631,-0.0025,0.628,0.019449524711576172,1.4426270535473942,0.18829750169190995,0.1402236181026276
0.6320000000000001,-0.0112,-3.372,0.01939770104747797,1.4426270535473942,0.1877177305382166,0.1402236181026276
0.633,-0.0086,0.628,0.019465226324431453,1.4243459193364425,0.18847316164105407,0.1366786058986766
0.6340000000000001,-0.0155,-0.372,0.019379186088115875,1.418199842064423,0.1875105966055482,0.13548678056200342
0.635,0.0183,3.628,0.01957959359668701,1.4173077640125926,0.18975263206319018,0.13531379197474602
0.6360000000000001,0.0135,2.628,0.019603243509105677,1.418199842064423,0.1900172126799087,0.13548678056200342
0.637,0.0005,1.628,0.01960939803793648,1.4190913593327015,0.19008606574815012,0.13565966040411884
0.6380000000000001,-0.0035,2.628,0.01958991486647183,1.4374393217903827,0.18986810005633295,0.1392176317028115
0.639,-0.0071,-0.372,0.019695764420333862,1.4374393217903803,0.19105227950462952,0.13921763170281104
0.6400000000000001,-0.0169,1.628,0.01964465152762403,1.4365591911675648,0.19048046002233993,0.13904695991828453
0.641,-0.0081,-0.372,0.019712791662204684,1.4278106742581975,0.19124276977264598,0.13735047878903384
0.6420000000000001,-0.016,2.628,0.020066980877157508,1.4269246046741464,0.19520522000367976,0.13717865534237214
0.643,0.0007,2.628,0.02001335916430576,1.4269246046741464,0.1946053333907965,0.13717865534237214
0.6440000000000001,0.0073,-0.372,0.01997654992783052,1.4207896823688042,0.1941935343821934,0.13598899313696583
0.645,-0.0188,-0.372,0.01996104340002761,1.421679575581934,0.19402005692415344,0.1361615580481117
0.6460000000000001,-0.0224,0.628,0.019697054121880594,1.4225689121192004,0.19106670788916544,0.13633401501066383
0.647,-0.0126,-1.372,0.019125181001466162,1.4137338227281855,0.18466894453996238,0.13462074605520796
0.6480000000000001,0.0023,-0.372,0.01897846200998535,1.4321504247885741,0.1830275430597744,0.13819202770031921
0.649,-0.0003,-0.372,0.018886344102811325,1.433033263160095,0.1819969847955633,0.13836322456179637
0.6500000000000001,0.0117,-0.372,0.01889914992360617,1.4391159922751493,0.182140248411238,0.1395427656502961
0.651,0.023,-0.372,0.018841885241679453,1.4382368876930205,0.18149960650981584,0.13937229283191216
0.6520000000000001,0.0289,-0.372,0.018660224980670628,1.440872592363546,0.17946730368179223,0.13988339926082433
0.653,0.0235,-1.372,0.018215398212010233,1.44866950044709,0.1744908564670368,0.1413953478079057
0.6540000000000001,0.022,-0.372,0.018225837253739267,1.4408725923635448,0.17460764201996928,0.1398833992608241
0.655,0.0177,0.628,0.018490588907681644,1.4356785209881777,0.1775695200446016,0.13887618350487618
0.6560000000000001,0.0027,2.628,0.018707933536151754,1.4356785209881777,0.18000103754128782,0.13887618350487618
0.657,-0.0155,1.628,0.018647552491030263,1.426924604674137,0.17932553169274418,0.1371786553423703
0.6580000000000001,-0.0086,-0.372,0.01836894219657261,1.4347973102587075,0.1762086117555034,0.1387053022699278
0.659,-0.0108,0.628,0.018317316618732336,1.4260379845303077,0.17563105666854884,0.13700672513312429
0.6600000000000001,-0.029,-1.372,0.018305085085858246,1.4251508127991515,0.17549421783151847,0.13683468796203535
0.661,-0.041,-1.372,0.01833507018445188,1.4119434596765061,0.17582967259929208,0.13427356525151887
0.6620000000000001,-0.029799999999996957,-0.372,0.018286307178390762,1.306228082621546,0.175284142197813,0.11377361719137022
0.663,-0.0161,1.628,0.01801547314321762,1.3119347604308687,0.17225421824773854,0.1148802357547822
0.6640000000000001,0.011300000000002664,2.628,0.017780116267381768,1.3289077661823345,0.16962119084978297,0.11817158036351176
0.665,0.0233,0.628,0.017785559392493936,1.338302969892125,0.16968208517250008,0.11999346468564863
0.6660000000000001,0.04140000000000218,-0.372,0.017910956757641823,1.338302969892125,0.17108495346301947,0.11999346468564863
0.667,0.0512,-1.372,0.017969152940442983,1.3289077661823347,0.1717360164210388,0.1181715803635118
0.6680000000000001,0.042499999999995805,-0.372,0.017969152940442983,1.3289077661823347,0.1717360164210388,0.1181715803635118
0.669,0.0236,-0.372,0.017982096283002263,1.3289077661823347,0.17188081854529663,0.1181715803635118
0.6700000000000002,0.001499999999999356,-0.372,0.017953730782172,1.3204038612934086,0.1715634828372253,0.1165225335229486
0.671,-0.0014,0.628,0.018054846422848343,1.3270029626256918,0.17269470218791186,0.11780220766614476
0.6720000000000002,0.01739999999999629,0.628,0.01811079906133305,1.3213613627693686,0.1733206657574695,0.11670820878677034
0.673,0.0007,-1.372,0.018009028737422154,1.2965094919889184,0.1721821222150106,0.11188902283303827
0.6740000000000002,-0.005800000000004041,-2.372,0.01799300451414996,1.2701765154945293,0.17200285309972851,0.10678262615317358
0.675,-0.024,-0.372,0.018073654877981387,1.2711718509371595,0.17290511957003696,0.1069756380445821
0.6760000000000002,-0.012000000000002488,0.628,0.018212259733695557,1.2711718509371595,0.17445574510960957,0.1069756380445821
0.677,-0.0232,0.628,0.018220569833995174,1.280990578738721,0.17454871338041508,0.10887965064479356
0.6780000000000002,-0.021399999999996314,0.628,0.018211872074326126,1.281977518101836,0.17445140821595748,0.10907103439847261
0.679,-0.0048,-1.372,0.01820482031858441,1.2829636982470403,0.17437251752705923,0.10926227092732807
0.6800000000000002,0.001799999999997824,-0.372,0.018218102526788422,1.2829636982470403,0.17452111067090648,0.10926227092732807
0.681,-0.008,-0.372,0.018209266482517732,1.2829636982470403,0.17442225846371412,0.10926227092732807
0.6820000000000002,-0.028299999999996467,0.628,0.018286049901067022,1.2887733946731532,0.17528126393797938,0.11038886649268871
0.683,-0.0124,-0.372,0.01871820446337852,1.266280520626667,0.18011594233297676,0.10602712875384764
0.6840000000000002,0.028099999999996135,-0.372,0.019228253879618355,1.2721664076354882,0.1858220602549676,0.10716849892467915
0.685,0.0107,0.628,0.019398029675651355,1.2721664076354882,0.1877214070272981,0.10716849892467915
0.6860000000000002,0.005499999999998956,0.628,0.019382711332751885,1.220990944443342,0.18755003486575686,0.09724473601885672
0.687,0.0008,-2.372,0.01933548667863031,1.1940518825454298,0.18702171459587102,0.0920208094238712
0.6880000000000002,-0.02100000000000089,1.6279999999997778,0.019441455367105415,1.1845802649500392,0.18820722684865504,0.0901841071941648
0.6890000000000001,-0.025,-0.372,0.01957251010060239,1.156793592611381,0.18967338628293462,0.08479581501212283
0.6900000000000002,-0.03590000000000074,-0.372,0.01978507891364061,1.1643203690589485,0.1920514749055542,0.08625538059788682
0.6910000000000001,-0.0392,-0.372,0.01979936957181773,1.153508965549556,0.19221134996499975,0.0841588718725324
0.6920000000000002,-0.012299999999997603,-0.372,0.019786200828857018,1.1535089655495558,0.1920640262002317,0.08415887187253236
0.6930000000000001,-0.0015,-0.371999999999889,0.01980837195653889,1.134924420171681,0.19231206308643958,0.08055502325957381
0.6940000000000002,0.0017999999999993338,0.628,0.019873742835149463,1.1293387308492207,0.19304339211092114,0.07947186635108514
0.6950000000000001,-0.0012,0.627999999999889,0.019882116197719252,1.1293387308492207,0.19313706812094197,0.07947186635108514
0.6960000000000002,0.012200000000002643,-0.37200000000022204,0.019806416066139605,1.1370472615045288,0.19229018179238164,0.08096667706317034
0.6970000000000001,0.0241,-2.371999999999667,0.019681155329235412,1.1359344086670535,0.19088884201428707,0.08075087661859574
0.698,0.0176,0.627999999999778,0.019699480140474495,1.1293387308492204,0.19109384868716847,0.0794718663510851
0.6990000000000001,0.0078,-1.371999999999889,0.019710822757098644,1.1304580766650782,0.19122074287808524,0.07968892589081979
0.7,-0.0088,-0.37199999999977795,0.019718693533638972,1.1315763152339693,0.19130879626594688,0.07990577071718033
0.7010000000000001,0.0158,1.628,0.01973772702858308,1.1315763152339693,0.19152173125451988,0.07990577071718033
0.702,0.0126,1.6279999999998889,0.01960591026514824,1.1326934498352443,0.19004704669983608,0.08012240146608668
0.7030000000000001,0.0275,0.628,0.019391733889465947,1.1326934498352443,0.18765097365899738,0.08012240146608668
0.704,0.0355,0.628,0.01926465589506231,1.126078789207055,0.18622930352612485,0.07883971011984198
0.7050000000000001,0.0286,0.628,0.019150015458743005,1.1272013722504097,0.18494677711311774,0.07905739741116208
0.706,0.0039,-0.372,0.019068108419997162,1.126078789207055,0.18403045173984237,0.07883971011984198
0.7070000000000001,0.0007,1.628,0.019074032316391536,1.1036011340594518,0.18409672463479665,0.07448092357547542
0.708,0.0093,-0.372,0.01901330894939303,1.1001577072373618,0.18341738910047095,0.07381318655397222
0.7090000000000001,0.0013,-0.372,0.0189951984963392,1.1001577072373618,0.1832147805346036,0.07381318655397222
0.71,-0.0106,-1.372,0.01901172292631009,1.1237252771430521,0.18339964565356148,0.07838332547254599
0.7110000000000001,0.0006,-0.372,0.018790201822003076,1.11592472532488,0.1809214043241153,0.07687067034546935
0.712,-0.0012,-1.372,0.0183431615479283,1.1092100706330468,0.17592019377758597,0.0755685885078115
0.7130000000000001,-0.003,-3.372,0.01812677945145953,1.1092100706330468,0.17349944449458352,0.0755685885078115
0.714,-0.0142,1.628,0.018224559276326782,1.0990075007444622,0.17459334479780786,0.07359014262205085
0.7150000000000001,-0.0217,1.628,0.01822245139495625,1.075964455866396,0.1745697631226155,0.06912171772202477
0.716,-0.0227,-0.372,0.018081193852571915,1.075964455866396,0.17298946096256632,0.06912171772202477
0.7170000000000001,-0.0088,0.628,0.017600599376976448,1.075964455866396,0.16761286672857625,0.06912171772202477
0.718,-0.0069,1.628,0.016842038998084133,1.0689988299760806,0.15912656160775182,0.06777096844660331
0.7190000000000001,0.0044,0.628,0.016431439612126734,1.0689988299760806,0.15453302921584675,0.06777096844660331
0.72,0.021,-1.372,0.01649874606460055,1.070181289591352,0.15528601224552613,0.06800026678873272
0.7210000000000001,0.0145,0.628,0.016697358874679404,1.0713624441301781,0.15750796972463246,0.06822931205510258
0.722,-0.0037,0.628,0.016739301459912828,1.0783128017835222,0.157977197469386,0.06957710056858378
0.7230000000000001,-0.0106,-0.372,0.016650781205263768,1.0771392687990955,0.15698688752013454,0.06934953324680135
0.724,-0.0171,0.628,0.016710406315606684,1.0806560445824513,0.15765393643715245,0.07003149383670212
0.7250000000000001,-0.0229,0.628,0.01677239577688574,1.0561278184936367,0.1583474362524971,0.06527506790476915
0.726,-0.0063,1.628,0.016624618755290664,1.0643667013275775,0.15669419818470645,0.06687272261569763
0.7270000000000001,0.0049,0.628,0.016590277082971682,1.0945023814945805,0.15631000476020437,0.07271652599975628
0.728,-0.0089,0.628,0.016429077865437597,1.1047465579029825,0.15450660745222738,0.07470304007312578
0.7290000000000001,-0.018,-1.372,0.016296535258030515,1.1036011340594518,0.15302380260337853,0.07448092357547542
0.73,0.0002,-0.372,0.0162984046565805,1.0956573174120126,0.15304471628003374,0.07294048704477861
0.7310000000000001,0.0169,-1.372,0.016310254440950002,1.096811037189026,0.153177284350518,0.07316421226019781
0.732,0.0415,-2.372,0.016297575060049495,1.096811037189026,0.1530354352663067,0.07316421226019781
0.7330000000000001,0.0448,-1.372,0.0160620504499141,1.1036011340594516,0.15040053136058093,0.07448092357547538
0.734,0.0299,-0.372,0.01602619806266128,1.128218274490778,0.14999943699024001,0.0792545914589018
0.7350000000000001,0.0166,0.628,0.015777528853568108,1.1359344086670535,0.1472174794279425,0.08075087661859574
0.736,-0.0001,0.628,0.015761256077796885,1.1458082190728727,0.14703542966077826,0.08266557064054314
0.7370000000000001,-0.0203,0.628,0.015762335698848145,1.1555976674414534,0.147047507794452,0.0845639054777644
0.738,-0.0229,0.628,0.015767000555819536,1.1425952675382685,0.14709969533377754,0.08204252656300162
0.7390000000000001,-0.0298,-1.372,0.015665336180146,1.1610570354216172,0.14596233707477702,0.08562256660306514
0.74,-0.0185,-0.372,0.015556749758092516,1.171798800009794,0.14474753923512432,0.08770557119772773
0.7410000000000001,0.0036,-0.372,0.015253405338927814,1.1728776243946226,0.14135390918356538,0.08791477296639294
0.742,0.0185,1.628,0.014929049472919707,1.1728776243946226,0.13772521603893595,0.08791477296639294
0.7430000000000001,0.0161,-2.372,0.014935841525541926,1.1739554573776438,0.13780120132969553,0.08812378248596324
0.744,0.0093,-0.372,0.014952562808482337,1.173955457377644,0.13798826871812306,0.08812378248596328
0.7450000000000001,0.0072,-1.372,0.01495208715151434,1.173955457377644,0.13798294736167524,0.08812378248596328
0.746,-0.0025,-0.372,0.014966281503837456,1.1803018375417347,0.13814174501069343,0.08935444984352449
0.7470000000000001,-0.0152,0.628,0.014942951956888563,1.180301837541734,0.13788074844503043,0.08935444984352436
0.748,-0.0071,0.628,0.014748881915079797,1.1643203690589585,0.13570961265224718,0.08625538059788875
0.7490000000000001,-0.0056,0.628,0.014643340354071261,1.1643203690589596,0.13452887883781514,0.08625538059788897
0.75,-0.0146,-0.372,0.014624365852685662,1.1567935926113935,0.1343166038327472,0.08479581501212523
0.7510000000000001,-0.0034,0.628,0.01474232085811662,1.1567935926113944,0.13563621159828504,0.08479581501212541
0.752,0.0011,-0.372,0.014834638468423107,1.1459111779297806,0.13666900401782878,0.082685536054069
0.7530000000000001,-0.0079,0.628,0.014871300893683184,1.1459111779297821,0.1370791605932101,0.0826855360540693
0.754,-0.0067,0.628,0.014847006021786067,1.1524120094402268,0.13680736456809822,0.08394615406466023
0.7550000000000001,0.001,-0.372,0.01442818823364087,1.1588763744678299,0.13212188976724062,0.08519970062524061
0.756,-0.0055,-1.372,0.014142744827022284,1.15887637446783,0.12892852519047468,0.08519970062524065
0.7570000000000001,-0.0029,-1.372,0.014204715338258133,1.1599672173819748,0.1296218130044373,0.08541123298415304
0.758,-0.0022,-0.372,0.014252818460280115,1.1502149587358452,0.13015996103075375,0.08352010984498233
0.7590000000000001,-0.0134,-2.372,0.01425686855969039,1.161057035421629,0.13020527104208796,0.08562256660306743
0.76,0.0015,-0.372,0.01457308014235654,1.1717988000098059,0.13374285097364497,0.08770557119773001
0.7610000000000001,-0.0044,0.628,0.014794785164878152,1.1717988000098059,0.13622314986650969,0.08770557119773001
0.762,-0.0099,-0.372,0.015013182585256357,1.1824429863239836,0.13866644534898243,0.0897696537622726
0.7630000000000001,-0.0248,0.628,0.015080883613316585,1.1761081600384975,0.13942384264667881,0.08854122689155336
0.764,-0.011,-1.372,0.015129852933143713,1.1273060305048843,0.13997168115917674,0.0790776923657899
0.7650000000000001,-0.0056,0.628,0.015274636874969588,1.1161361468075117,0.1415914344986858,0.07691166844369772
0.766,-0.001,-0.372,0.015261369675348243,1.1048533432125558,0.1414430092615939,0.07472374749867564
0.7670000000000001,0.0033,0.628,0.015149748639886478,1.1294431910483997,0.14019426204095192,0.07949212289953797
0.768,0.021,-0.372,0.01517280088418672,1.1283228384218822,0.1404521563158115,0.07927486812267878
0.7690000000000001,0.0279,0.628,0.015172350878564438,1.1249550859482662,0.1404471219307803,0.07862180560034893
0.77,0.0257,0.628,0.015171936551303146,1.1238302591137552,0.14044248669322104,0.07840368320106779
0.7710000000000001,0.0119,-1.372,0.015113502442428633,1.1171631212594018,0.13978876196520834,0.07711081565869465
0.772,0.0028,-0.372,0.015481870394313767,1.116030441072674,0.1439098351499102,0.07689117036542188
0.7730000000000001,0.0141,1.628,0.0157391209298036,1.1260787892070623,0.14678779529310945,0.0788397101198434
0.774,0.0155,0.628,0.015853824220043257,1.127201372250417,0.14807102487696622,0.0790573974111635
0.7750000000000001,0.009,-1.372,0.01588393481198811,1.1272013722504168,0.14840788358686324,0.07905739741116345
0.776,0.0054,2.628,0.01586573237375941,1.1272013722504162,0.1482042459476587,0.07905739741116333
0.7770000000000001,0.0022,1.628,0.015860809781064973,1.116030441072672,0.14814917502021122,0.0768911703654215
0.778,0.0048,-0.372,0.01597537713337616,1.1227043053264294,0.14943088381446362,0.07818534226712488
0.7790000000000001,-0.0054,-0.372,0.016035006575032526,1.1215772211922466,0.1500979811875419,0.07796678214035965
0.78,-0.0065,0.628,0.01612918397295356,1.121577221192244,0.15115157976252974,0.07796678214035914
0.7810000000000001,0.0047,-0.372,0.016140783803401587,1.122704305326427,0.15128135150288288,0.07818534226712441
0.782,0.0061,-1.372,0.0160566221648714,1.1160304410726682,0.15033980305939756,0.07689117036542076
0.7830000000000001,-0.0062,-2.372,0.015527989226510457,1.0922968587817112,0.14442578416692678,0.07228883891847394
0.784,-0.0,-1.372,0.015017092664497004,1.0854360487411283,0.13871018890111889,0.07095841515798945
0.7850000000000001,-0.008,1.628,0.014716290910581903,1.0934541242345621,0.1353450046183196,0.07251325169867823
0.786,0.0058,1.628,0.014638966667749765,1.1002649379141434,0.1344799487359277,0.07383398034353922
0.7870000000000001,0.0038999999999966913,1.628,0.014646905002193462,1.1002649379141434,0.13456875791989634,0.07383398034353922
0.788,-0.011,2.628,0.014549979094492835,1.0991148436364755,0.13348441071465275,0.07361095817199449
0.7890000000000001,-0.01690000000000042,1.628,0.014369800011066159,1.0991148436364755,0.13146867838681608,0.07361095817199449
0.79,-0.0188,0.628,0.014354334707102654,1.1216824042066245,0.13129566211563642,0.0779871788545523
0.7910000000000001,-0.023599999999997668,-0.372,0.014337516201711567,1.1228093827573462,0.13110750706246396,0.07820571850695013
0.792,-0.0131,0.628,0.014643080792834802,1.1228093827573462,0.1345259750269763,0.07820571850695013
0.7930000000000001,0.00719999999999809,-0.372,0.015788528372931782,1.136038262385213,0.14734053525856586,0.08077101556041699
0.794,-0.0014,0.628,0.016323634842081495,1.1360382623852128,0.15332697601620543,0.08077101556041695
0.7950000000000002,0.006600000000000511,-1.372,0.016549126736156283,1.137151013588078,0.15584964008967786,0.08098679629637125
0.796,0.0089,-0.372,0.016598383891178944,1.1294431910483915,0.15640069872461007,0.07949212289953639
0.7970000000000002,-0.0023999999999996,-1.372,0.01667178434750889,1.1589781724040848,0.15722185770648736,0.08521944091718293
0.798,-0.0006,0.628,0.017168608282747768,1.1589781724040848,0.16278001711355067,0.08521944091718293
0.7990000000000002,-0.002400000000004041,-0.372,0.017794778009394437,1.1578863977126308,0.16978521736604263,0.08500772787134517
0.8,-0.0206,-0.372,0.01795428701575364,1.1643203690589516,0.1715697056350719,0.08625538059788741
0.8010000000000002,-0.022899999999998557,-0.372,0.018103897837347834,1.2431910333496032,0.17324345912491212,0.10154969790980696
0.802,-0.0164,1.628,0.018120797822550848,1.2431910333496032,0.17343252572390802,0.10154969790980696
0.8030000000000002,-0.026199999999995515,-1.372,0.018131827619243073,1.253229002857504,0.17355592027858746,0.10349622507807632
0.804,-0.006,-1.372,0.018248078847708384,1.2522194054965103,0.1748564672394871,0.10330044756643512
0.8050000000000002,0.0019000000000026424,0.628,0.018240291782744174,1.251208993494234,0.17476935036504862,0.10310451208246815
0.806,0.0138,0.628,0.018284010673242583,1.251208993494234,0.1752584503162683,0.10310451208246815
0.8070000000000002,0.011699999999999601,0.628,0.018429834529055188,1.2442079566945525,0.17688983757133156,0.10174689605007159
0.808,0.0099,1.628,0.018663451350306233,1.238189172826347,0.17950339831304662,0.10057975499528135
0.8090000000000002,0.030199999999999425,1.628,0.018738344995593226,1.2392102008156538,0.18034126217095642,0.10077774909350858
0.81,0.0276,-1.372,0.01875368451670013,1.216840544199581,0.18051287126120524,0.09643990523835737
0.8110000000000002,0.02549999999999751,1.628,0.01882796955120292,1.2178794702716327,0.1813439263574682,0.09664137006881737
0.812,0.0143,0.628,0.019184587102464574,1.2239981274114569,0.18533354331566854,0.09782787819146298
0.8130000000000002,0.012500000000002842,-0.372,0.019461599782527886,1.2311140978014885,0.18843259012956534,0.09920778173489322
0.8140000000000001,0.0253,-0.372,0.019883313935405683,1.240230388237102,0.193150467670595,0.10097558019182108
0.8150000000000002,0.020699999999998334,-0.37200000000022204,0.019883868550732275,1.2432859277777948,0.1931566723644033,0.10156809949814082
0.8160000000000001,0.0132,-2.371999999999778,0.020431619488271744,1.2422682496583064,0.1992845716266418,0.10137075499469535
0.8170000000000002,0.012099999999995803,-0.372000000000111,0.02081393982239601,1.2422682496583064,0.20356173544847467,0.10137075499469535
0.8180000000000001,-0.0068,-1.371999999999889,0.021070084627624674,1.2412497371632885,0.2064273253642817,0.10117324869212949
0.8190000000000002,-0.0043000000000026645,-0.371999999999889,0.021595938868995298,1.2422682496583064,0.21231025791062325,0.10137075499469535
0.8200000000000001,-0.0163,0.627999999999889,0.021532779013264912,1.2482673655538514,0.2116036644448559,0.10253408210652647
0.8210000000000002,-0.036599999999998224,-0.37199999999977795,0.021450280234162067,1.269087441275507,0.21068071904585606,0.10657143677329751
0.8220000000000001,-0.0286,1.6279999999998889,0.021456070638284672,1.2631872077430064,0.21074549851170302,0.10542728457587283
0.8230000000000002,-0.021799999999999535,0.628,0.021731781375767513,1.264188046101826,0.21382997999593706,0.10562136357311974
0.8240000000000001,-0.0197,0.628,0.021696262994878174,1.2552457615166734,0.21343262228254747,0.10388730770876435
0.8250000000000002,-0.021599999999996292,0.627999999999889,0.02164291820819908,1.2552457615166734,0.21283583374868661,0.10388730770876435
0.8260000000000001,-0.0049,-0.372000000000111,0.021624111855653157,1.2492801567334417,0.21262543988900792,0.10273047895205428
0.827,0.0197,-1.371999999999889,0.021635947031450206,1.2219297965531382,0.21275784452780414,0.09742679486425039
0.8280000000000001,0.0164,-0.372000000000111,0.02164450118349259,1.2126759392365356,0.2128535430988099,0.09563231992946626
0.829,0.025,-1.371999999999778,0.02164335650892241,1.2126759392365356,0.21284073718653596,0.09563231992946626
0.8300000000000001,0.0061,0.628,0.02164636901076572,1.2137184301576678,0.2128744391969899,0.09583447604271814
0.831,0.0039,0.628,0.02164906080830603,1.2137184301576678,0.21290455336573136,0.09583447604271814
0.8320000000000001,-0.0074,0.628,0.02164467701445084,1.2147600264272667,0.21285551018699816,0.09603645866834241
0.833,-0.0212,0.628,0.02163841612128903,1.2178794702716327,0.21278546718029964,0.09664137006881737
0.8340000000000001,-0.001,-1.372,0.021718017583355953,1.1951106192781786,0.2136759991853459,0.09222611586684437
0.835,0.007,-1.372,0.02191581167760416,1.2158977624439444,0.21588879737728214,0.09625708437008805
0.8360000000000001,0.0048,0.628,0.02195176143780868,1.20554899548456,0.21629098109608053,0.09425028847090991
0.837,0.0113,-0.372,0.021976160987719328,1.2023975624602257,0.21656394819417088,0.0936391738429944
0.8380000000000001,0.0015,0.628,0.022062390127021266,1.191931587805245,0.21752862655964375,0.09160964944642158
0.839,0.029,2.628,0.022037353062074227,1.1632336083970378,0.21724852733698102,0.08604463985473645
0.8400000000000001,0.0171,0.628,0.022052718296655727,1.163233608397038,0.217420424093706,0.0860446398547365
0.841,-0.03,-0.372,0.022157689910820393,1.163233608397038,0.21859478169478136,0.0860446398547365
0.8420000000000001,-0.0619,-2.372,0.022153469259428963,1.1739554573776438,0.218547563653195,0.08812378248596324
0.843,-0.0445,-2.372,0.022115292318611625,1.1728776243946226,0.21812046361294682,0.08791477296639294
0.8440000000000001,-0.0288,0.628,0.022188663427335407,1.1835121080951951,0.21894129427192802,0.08997697403478525
0.845,-0.0147,-0.372,0.022246731762973263,1.1835121080951951,0.2195909269548278,0.08997697403478525
0.8460000000000001,0.0158,2.628,0.022276148946039503,1.1771830351352726,0.21992002823435916,0.08874966282839518
0.847,0.0437,0.628,0.022283605376033723,1.1782569296683436,0.2200034461689149,0.08895790861782833
0.8480000000000001,0.0473,-0.372,0.02235191201607494,1.171899475430308,0.22076761867949946,0.08772509381542976
0.849,0.0245,-1.372,0.022405669752567046,1.171899475430308,0.22136902704087874,0.08772509381542976
0.8500000000000001,0.0274,-4.372,0.022429364394718803,1.171899475430308,0.22163410806623124,0.08772509381542976
0.851,0.0085,0.628,0.02243780039467326,1.1951106192781786,0.2217284848246342,0.09222611586684437
0.8520000000000001,0.0064,1.628,0.022456867220327952,1.1961684189162711,0.22194179269661607,0.09243124059177125
0.853,0.022,-0.372,0.022502694988648802,1.1856474594964104,0.22245448547071678,0.09039105374612487
0.8540000000000001,0.004,-0.372,0.022351334556066787,1.1888432951881551,0.22076115841350002,0.09101077878059621
0.855,-0.0127,-0.372,0.022350924113932368,1.1825427555552444,0.2207565666403412,0.08978900065499364
0.8560000000000001,-0.0238,-0.372,0.022445035805764454,1.1825427555552444,0.22180943013617832,0.08978900065499364
0.857,-0.0296,0.628,0.02247561448101593,1.1825427555552444,0.22215152547307632,0.08978900065499364
0.8580000000000001,-0.0169,0.628,0.022453372879765243,1.1825427555552444,0.22190270017209676,0.08978900065499364
0.859,-0.0154,-0.372,0.022498223207600483,1.1793298463163948,0.22240445794559746,0.0891659647792937
0.8600000000000001,-0.0168,0.628,0.022348279673559655,1.168657305718957,0.22072698227434856,0.08709638385348802
0.861,-0.0371,-1.372,0.022219332062981736,1.16224734304392,0.21928439603017458,0.08585338680266695
0.8620000000000001,-0.0342,-1.372,0.022106078289670573,1.1514164746998767,0.2180173827466616,0.0837531035261502
0.863,-0.0477,1.628,0.02206019764382218,1.1793298463163948,0.2175040984114337,0.0891659647792937
0.8640000000000001,-0.0111,1.628,0.022050496445881026,1.1899066663461513,0.21739556739919397,0.09121698391474854
0.865,0.0473,-0.372,0.02205344502251389,1.190969088060723,0.2174285542538662,0.09142300493622561
0.8660000000000001,0.0397,-0.372,0.02223906847498763,1.2190142948381404,0.21950519482079545,0.09686143119255242
0.867,0.0329,-0.372,0.022399881302186578,1.197323821413104,0.2213042694322924,0.09265529211420326
0.8680000000000001,0.0518,0.628,0.022945082410554856,1.204597376396818,0.22740364278024006,0.094065753898786
0.869,0.0225,-1.372,0.02343767980670372,1.2200513698696955,0.2329145182777808,0.0970625370758555
0.8700000000000001,0.0175,-2.372,0.023470238979289546,1.2423632145707477,0.23327877019593185,0.10138917025108299
0.871,0.0129,0.628,0.023611830698586703,1.2483618741039009,0.23486281092093308,0.10255240886675025
0.8720000000000001,0.0346,0.628,0.023363672034898957,1.2483618741039015,0.2320865650253783,0.10255240886675039
0.873,0.0067,0.628,0.023524317790809754,1.2382844505661248,0.23388377054646714,0.10059823091402795
0.8740000000000001,0.0031,0.628,0.024033709200057544,1.2372626586188842,0.2395825270925392,0.10040008867180882
0.875,-0.0002,0.628,0.024457568053293702,1.2362400221281828,0.24432439821686192,0.10020178265874044
0.8760000000000001,-0.009,-0.372,0.024539220357243673,1.2622790422540695,0.24523787377453551,0.10525117637031303
0.877,-0.0065,0.628,0.024754275609201737,1.2721664076354986,0.24764377914045627,0.10716849892468118
0.8780000000000001,-0.0043,-0.372,0.02469592969215444,1.2662805206266787,0.2469910410481495,0.10602712875384993
0.879,-0.0065,0.628,0.02465155783774612,1.2877916635528481,0.24649463613989994,0.11019849270283956
0.8800000000000001,0.0073,0.628,0.024610789205944613,1.2809905787387343,0.24603854186124627,0.10887965064479616
0.881,0.0018,0.628,0.02461118091362776,1.2897543785227392,0.24604292404493244,0.110579095374471
0.8820000000000001,0.0032,1.628,0.024667243028615532,1.3147339446142468,0.24667011237000647,0.11542304354650212
0.883,-0.0196,-0.372,0.02469523203801548,1.3137716129600903,0.2469832361244325,0.11523643163178901
0.8840000000000001,-0.0294,2.628,0.024707631660198785,1.3137716129600903,0.247121955440862,0.11523643163178901
0.885,-0.0149,-0.372,0.02478807384908071,1.3071057130626187,0.2480218929783799,0.11394380414958957
0.8860000000000001,-0.0119,-1.372,0.02484181890271381,1.3013778595486003,0.24862315945176414,0.11283307926921128
0.887,-0.0199,-0.372,0.024845583845850353,1.30040564410576,0.24866527931078694,0.11264455072552423
0.8880000000000001,-0.0032,-0.372,0.024819839641314043,1.3004056441057599,0.24837726904704624,0.11264455072552419
0.889,-0.0188,1.628,0.024833999991893962,1.3061377611185407,0.24853568630555703,0.11375610236834348
0.8900000000000001,-0.0286,0.628,0.02477479894925312,1.2800028784015354,0.24787338159613528,0.1086881193257427
0.891,-0.0232,1.628,0.024843924174228843,1.2858259526521638,0.2486467119295047,0.10981730907101704
0.8920000000000001,0.0014,-0.372,0.024694169060557374,1.3118448318369738,0.2469713441890018,0.11486279712328579
0.893,0.0194,1.628,0.023910624018630606,1.3004056441057494,0.2382055260857554,0.11264455072552217
0.8940000000000001,0.0161,0.628,0.0235009058917515,1.2791066520913916,0.23362185267625568,0.10851432632306027
0.895,0.0132,0.628,0.02337208420882603,1.278117495899054,0.23218067523289906,0.10832251268978199
0.8960000000000001,0.0106,0.628,0.023501576302681612,1.279106652091388,0.23362935281977432,0.10851432632305959
0.897,0.0176,0.628,0.023448502432676613,1.3623060869771135,0.23303559513437677,0.12464806335645615
0.8980000000000001,0.0155,0.628,0.023074362050373172,1.4083559056284125,0.22884994356253316,0.1335778795935028
0.899,-0.0106,-0.372,0.022603354756302436,1.432150424788523,0.22358060479551914,0.1381920277003093
0.9000000000000001,-0.0215,-2.372,0.02247815886240106,1.42603798453026,0.2221799904409006,0.13700672513311501
0.901,-0.0247,0.628,0.022328318875449334,1.3587611283183756,0.22050367319054603,0.12396063764409529
0.9020000000000001,-0.0218,-0.372,0.022342067430591403,1.358761128318375,0.2206574835359749,0.12396063764409516
0.903,0.0025,1.628,0.0225111490537947,1.3495083607101745,0.22254906433132662,0.12216637402166945
0.9040000000000001,0.0058,0.628,0.022467409116184882,1.3587611283183731,0.22205972891802075,0.12396063764409482
0.905,0.0206,0.628,0.022475272793696547,1.3596916186879286,0.2221477028863332,0.12414107501070838
0.9060000000000001,0.0181,0.628,0.02244039951254099,1.368875555385717,0.22175756215042697,0.12592199118900924
0.907,0.0061,0.628,0.022350624745255013,1.3697991751471217,0.22075321748843407,0.1261010962318478
0.9080000000000001,0.0173,-1.372,0.022156052591903987,1.3697991751471226,0.2185764643817614,0.12610109623184798
0.909,0.0155,-0.372,0.022134873646854954,1.3933444543385816,0.2183395274221937,0.13066691261479169
0.9100000000000001,0.0137,0.628,0.022345010827178696,1.3933444543385816,0.22069041243949583,0.13066691261479169
0.911,0.0122,-0.372,0.022435700315318413,1.3924364525302042,0.2217049904335757,0.13049083614958096
0.9120000000000001,-0.0016000000000020206,2.628,0.022211405918985114,1.3861488983641257,0.21919572322540043,0.12927157611929255
0.913,-0.0107,1.628,0.02196153311090076,1.3798326936760337,0.21640030054079162,0.12804676028218082
0.9140000000000001,-0.025600000000002177,0.628,0.021482267359529936,1.3770801647811648,0.2110385712529621,0.12751299971724867
0.915,-0.0354,2.628,0.021458882628407627,1.3688755553857115,0.21077695732084223,0.12592199118900818
0.9160000000000001,-0.02990000000000473,0.628,0.020933158410624465,1.3697991751471161,0.20489547939810987,0.12610109623184673
0.917,-0.0512,-1.372,0.02055377483375069,1.3761614317123336,0.20065117020299747,0.12733484228436745
0.9180000000000001,-0.04829999999999219,-2.372,0.02031861400375281,1.3959804074306275,0.1980203360448221,0.13117806721671715
0.919,-0.0131,-2.372,0.01977254642958373,1.395074121267039,0.1919112692125231,0.13100232344321167
0.9200000000000002,0.030499999999996134,-1.372,0.01987127887136884,1.3897088875125467,0.19301582680559956,0.12996191649048927
0.921,0.0131,-0.372,0.019817032105646174,1.3697991751471161,0.19240894748715603,0.12610109623184673
0.9220000000000002,0.039600000000003154,-0.372,0.01977500855766731,1.3697991751471161,0.19193881398119964,0.12610109623184673
0.923,0.0538,-0.372,0.019553723919619032,1.377998285316386,0.1894632180902423,0.12769103836980158
0.9240000000000002,0.04939999999999556,-0.372,0.019772954628015565,1.3770801647811648,0.19191583588452282,0.12751299971724867
0.925,0.0294,2.628,0.01996669160060854,1.3824944094032932,0.19408324550458442,0.12856291068224354
0.9260000000000002,0.03289999999999491,1.628,0.01996751521085604,1.3906186702804404,0.19409245954746804,0.13013833831300373
0.927,0.01,0.628,0.020013628216433654,1.3915278582312751,0.19460834337986824,0.13031464479072016
0.9280000000000002,0.007100000000002998,-2.372,0.020172411611169956,1.3915278582312751,0.1963847139541134,0.13031464479072016
0.929,0.0206,-0.372,0.020175313035422547,1.3915278582312753,0.1964171732970709,0.13031464479072022
0.9300000000000002,-0.006300000000002398,1.628,0.020181083813802632,1.4147115495520912,0.1964817332022291,0.13481034334621192
0.931,-0.0171,2.628,0.020171417550863997,1.4199823168736012,0.19637359302122576,0.13583243170590162
0.9320000000000002,-0.013900000000001932,-0.372,0.020262931067676657,1.419091359332633,0.19739738973927473,0.13565966040410557
0.933,-0.0226,0.628,0.02028901535067009,1.410234483314807,0.19768920459080105,0.1339421666638504
0.9340000000000002,-0.01999999999999951,-0.372,0.02045542366848008,1.410234483314807,0.1995508780961334,0.1339421666638504
0.935,-0.0178,0.628,0.020572953316110865,1.3869759585976325,0.20086572722125412,0.12943195668361374
0.9360000000000002,-0.00649999999999869,-0.372,0.02078558545280799,1.3869759585976325,0.20324452426986828,0.12943195668361374
0.937,-0.0006,-0.372,0.020752298734066952,1.3869759585976325,0.20287213301458018,0.12943195668361374
0.9380000000000002,0.008500000000003309,-1.371999999999889,0.020672450782242478,1.3932597803807591,0.20197884343432967,0.13065049294354078
0.9390000000000001,0.0234,-0.372000000000111,0.021065396203372617,1.3932597803807591,0.2063748741687725,0.13065049294354078
0.9400000000000002,0.02519999999999718,-1.371999999999556,0.02145704944241756,1.390533830341104,0.21075644876794675,0.1301218864552109
0.9410000000000001,0.0125,2.627999999999889,0.021656047792413764,1.389623992028751,0.212982719429584,0.12994545386171344
0.9420000000000002,0.004499999999997668,1.6279999999997778,0.02173995597721689,1.4048431703656825,0.21392143238927436,0.13289670252691976
0.9430000000000001,-0.006,-0.372,0.02178212836811999,1.4048431703656825,0.21439323105795913,0.13289670252691976
0.9440000000000002,-0.015000000000003042,-0.371999999999889,0.021706907214164475,1.3958958933676762,0.21355170323529699,0.13116167855170816
0.9450000000000001,-0.0287,0.6279999999993339,0.021699399377444487,1.4012374377379386,0.21346771019403613,0.13219749174371362
0.9460000000000002,-0.0011000000000026646,-5.371999999999001,0.02166126446061956,1.4012374377379386,0.21304108029226593,0.13219749174371362
0.9470000000000001,-0.0131,3.627999999999889,0.021637910556101755,1.4092536503481419,0.21277981122916234,0.13375196704074482
0.9480000000000002,-0.009399999999999268,2.627999999999667,0.021567234767707274,1.4145447546179668,0.2119891341497106,0.13477799906876145
0.9490000000000001,-0.0061,-0.371999999999889,0.021563384234404823,1.4145447546179668,0.21194605676076206,0.13477799906876145
0.9500000000000002,-0.009000000000000577,0.628,0.021558908388003555,1.4145447546179668,0.21189598375498422,0.13477799906876145
0.9510000000000001,-0.0116,0.627999999999889,0.021459830542740126,1.3958958933676762,0.21078756200107315,0.13116167855170816
0.9520000000000002,-0.02829999999999749,-0.37199999999977795,0.02132099400195639,1.3949895522976388,0.20923434451200384,0.13098592413094032
0.9530000000000001,-0.017,1.6279999999998889,0.021292442804065337,1.414544754617968,0.20891493133988126,0.13477799906876164
0.954,-0.0072,0.628000000000111,0.021459930901604654,1.4056592313270113,0.21078868475407958,0.1330549501516949
0.9550000000000001,0.002,1.6279999999998889,0.02154485438424727,1.4136503700406349,0.2117387562390689,0.13460456320832298
0.956,-0.0128,0.628,0.021608764094953797,1.436477064529181,0.21245373861928651,0.13903103421411428
0.9570000000000001,-0.003,0.628000000000222,0.021673588419122345,1.4442977016597207,0.21317895313015886,0.14054758421317437
0.958,0.0138,2.627999999999667,0.02174965456401034,1.444297701659721,0.21402993418960592,0.1405475842131744
0.9590000000000001,0.0342,-0.372,0.02168083217064751,1.4391159922750882,0.21325999174932816,0.13954276565028426
0.96,0.0262,-0.372,0.021916626801185397,1.439115992275089,0.215897916476584,0.1395427656502844
0.9610000000000001,0.0193,-0.372,0.022463089224169678,1.4442977016597216,0.22201140063361502,0.14054758421317454
0.962,0.008,-0.372,0.02259440316002339,1.4451731194292032,0.22348045986380868,0.1407173420980277
0.9630000000000001,0.0138,-1.372,0.022637944747702393,1.4224859777580847,0.22396757626056635,0.13631793267578848
0.964,0.0047,0.628,0.022635392656376974,1.419816141130548,0.22393902503869084,0.13580020749977054
0.9650000000000001,-0.0033,0.628,0.022531632188074916,1.4381548568604499,0.2227782169896642,0.13935638570606276
0.966,-0.002,-1.372,0.02225389313528242,1.4144613497751564,0.2196710439661962,0.13476182549975746
0.9670000000000001,-0.0111,-2.372,0.022052414119429275,1.4372751644031552,0.21741702114672076,0.1391857988890279
0.968,-0.0223,-0.372,0.021492646397748855,1.4311846115408369,0.21115468552367456,0.13800474064742316
0.9690000000000001,-0.03,0.628,0.02116114035623494,1.411859901163588,0.20744600063059876,0.13425736188335688
0.97,-0.0096,-0.372,0.021254114860158546,1.3922669890204291,0.20848614197031012,0.13045797439147858
0.9710000000000001,-0.0008,0.628,0.02105794213552492,1.3949895522976332,0.20629148266045347,0.13098592413093926
0.972,0.0181,1.628,0.02101865250956514,1.3949895522976339,0.2058519345858959,0.13098592413093937
0.9730000000000001,0.0301,-0.372,0.020688041701780742,1.4012374377379349,0.20215326501499428,0.1321974917437129
0.974,0.0279,-1.372,0.019985341682645198,1.4074575882836375,0.19429189110629988,0.1334036811048587
0.9750000000000001,0.0018,1.628,0.019389508910164766,1.4136503700406313,0.18762608196446293,0.1346045632083223
0.976,-0.0163,0.628,0.019165306132088968,1.389539091358165,0.18511783972477983,0.12992899022713375
0.9770000000000001,-0.0261,0.628,0.018881674601087937,1.389539091358165,0.1819447452936205,0.12992899022713375
0.978,-0.0055,-0.372,0.018860858745295656,1.389539091358165,0.18171187035245587,0.12992899022713375
0.9790000000000001,-0.0081,2.628,0.018868776492482295,1.3696269107369474,0.1818004492189048,0.1260676913331513
0.98,0.0038,-1.372,0.018789022640737816,1.3696269107369474,0.18090821237224408,0.1260676913331513
0.9810000000000001,0.0193,-0.372,0.01877853231733828,1.3668538298996329,0.1807908531116476,0.12552994540899887
0.982,-0.0108,-0.372,0.018717724928612886,1.3419019748132706,0.18011057759412347,0.1206913708560381
0.9830000000000001,-0.0326,-0.372,0.01870488318267561,1.366853829899633,0.17996691207013846,0.1255299454089989
0.984,-0.0367,0.628,0.01867469068268863,1.375070502342507,0.17962913702364294,0.12712329316027823
0.9850000000000001,-0.0332,-0.372,0.01861313409279494,1.3759899638128377,0.17894047990606698,0.1273015918421747
0.986,-0.0017,-1.372,0.018559619902636222,1.3759899638128377,0.17834179619067989,0.1273015918421747
0.9870000000000001,0.008,-1.372,0.018550702111207355,1.3769088112924668,0.17824202944675932,0.1274797714611889
0.988,0.0406,-0.372,0.018550925213133285,1.377827046009772,0.17824452537334495,0.12765783225552343
0.9890000000000001,0.0449,-1.372,0.01853299571150082,1.3913582840572865,0.17804394118024539,0.13028176157300905
0.99,0.0409,-0.372,0.01838539801463338,1.3976224026945392,0.17639270928677753,0.13149647706931314
0.9910000000000001,0.03,2.628,0.018211802325956806,1.3976224026945434,0.17445062791426996,0.13149647706931397
0.992,0.0136,-0.372,0.018233661874770137,1.3741504256489954,0.1746951790484913,0.12694487517650155
0.9930000000000001,-0.0071,-0.372,0.018489405721215976,1.3659282185423005,0.17755628328502138,0.12535045416299656
0.994,-0.0151,-1.372,0.01876818038461717,1.3750705023425172,0.18067504208050744,0.12712329316028023
0.9950000000000001,-0.0031,0.628,0.01896305548095778,1.3841524029581649,0.18285518432628542,0.12888442286623983
0.996,0.0034,1.628,0.01888526172194747,1.392266989020443,0.1819848757868104,0.1304579743914813
0.9970000000000001,-0.0023,-1.372,0.018887301675877273,1.2946481481176328,0.18200769753173995,0.11152807768251781
0.998,-0.015,0.628,0.018870774353575853,1.2652813374176297,0.18182280005517404,0.10583337071733052
0.9990000000000001,0.0096,-0.372,0.01921343830203849,1.2382844505661144,0.18565631272137303,0.10059823091402592
1.0,0.0059,0.628,0.019637084205993804,1.2453187890707522,0.19039580150063426,0.10196230469401736
1.0010000000000001,-0.0039,-0.3720000000004441,0.019771721633515968,1.2443027735689836,0.1919020419034146,0.10176528259945741
1.002,-0.0188,-2.372,0.0198035301380165,1.2432859277777926,0.19225789581055225,0.10156809949814039
1.0030000000000001,-0.0269,-0.3719999999995559,0.019617837609635248,1.253323137268537,0.19018048246502292,0.10351447928659933
1.004,-0.02,1.628,0.01968713971694386,1.2432859277777948,0.19095579164871088,0.10156809949814082
1.0050000000000001,-0.0265,2.627999999999778,0.019871985606026644,1.249280156733441,0.19302373331655434,0.10273047895205416
1.006,-0.0247,1.628,0.019935893644816377,1.2392102008156547,0.19373869699239926,0.10077774909350874
1.0070000000000001,-0.0192,0.628,0.01991673146804062,1.2601799234641202,0.19352432239095263,0.10484412275744391
1.008,-0.0011,0.628,0.019923609069865837,1.2601799234641191,0.1936012647533702,0.1048441227574437
1.0090000000000001,0.0356,-0.37200000000022204,0.02005443692304658,1.2330713512195925,0.19506488599076652,0.09958732532192334
1.01,0.0511,-1.372,0.01985067580971725,1.2330713512195925,0.19278533247388419,0.09958732532192334
1.0110000000000001,0.0272,0.628,0.019790833851750782,1.2431910333496101,0.1921158575995537,0.10154969790980829
1.012,0.0141,0.628,0.019836243949238788,1.2431910333496101,0.19262387773028125,0.10154969790980829
1.0130000000000001,0.0101,-1.3720000000002222,0.02009983780612542,1.2532290028575108,0.19557280303637403,0.10349622507807765
1.014,0.0136,-2.372,0.020300064108468997,1.246239313978022,0.19781281127063388,0.10214080959380399
1.0150000000000001,-0.0028,-0.37199999999933386,0.020339570294983025,1.246239313978022,0.19825478209094985,0.10214080959380399
1.016,-0.0,2.628,0.02035501070243819,1.246239313978022,0.1984275198353674,0.10214080959380399
1.0170000000000001,-0.0135,-0.372,0.020361690948859163,1.2402303882371088,0.1985022543073859,0.10097558019182243
1.018,-0.0303,-0.372,0.02037615739118901,1.2281243391088252,0.19866409593138842,0.09862801841550298
1.0190000000000001,-0.0238,-0.3719999999995559,0.020314593960081017,1.2281243391088252,0.19797536227853116,0.09862801841550298
1.02,-0.0101,1.628,0.02013801448959147,1.2270940869429323,0.19599990019753494,0.09842823559792215
1.0210000000000001,0.0026,-0.37200000000022204,0.020149676134837622,1.2372626586188837,0.1961303634836799,0.10040008867180873
1.022,0.0138,-1.372,0.02015130523385488,1.2372626586188837,0.19614858883754385,0.10040008867180873
1.0230000000000001,0.0062,-1.372,0.02009750800330539,1.2372626586188837,0.19554673864103744,0.10040008867180873
1.024,0.0098,-1.372,0.01988008979895288,1.2473483373200238,0.19311439802281083,0.10235586743630416
1.0250000000000001,0.0011,-0.372,0.01986031611977105,1.2413447799936113,0.19289318231003744,0.10119167905807422
1.026,-0.0022,1.628,0.020283921516661686,1.2533231372685452,0.19763221792127147,0.10351447928660092
1.0270000000000001,-0.0047,0.628,0.020343065462364036,1.2592695891707657,0.19829388386540178,0.10466759398508341
1.028,-0.009,-0.372,0.02019721797292242,1.2592695891707657,0.19666223221189053,0.10466759398508341
1.0290000000000001,-0.0112,-0.372,0.020196285104496448,1.269180399475452,0.19665179585597123,0.10658946289517045
1.03,-0.0,-1.372,0.020180436740643178,1.2432859277778017,0.19647449414727788,0.10156809949814215
1.0310000000000001,-0.008,-0.372,0.02021260193426663,1.2632806001102954,0.1968343384720732,0.10544539488992528
1.032,0.012,2.628,0.020139367003157077,1.2632806001102954,0.19601503128415265,0.10544539488992528
1.0330000000000001,0.0199,1.628,0.020110511057591502,1.2642813645372646,0.19569220878322405,0.10563945955057201
1.034,0.013,0.628,0.01988859195997745,1.2907346168053861,0.19320951495041286,0.11076917967857734
1.0350000000000001,0.0108,0.628,0.019550641514072813,1.2897543785227352,0.18942873404032456,0.11057909537447023
1.036,-0.003,0.628,0.019282360694212762,1.2907346168053861,0.18642737388660563,0.11076917967857734
1.0370000000000001,-0.001100000000000311,0.628,0.019282545084078652,1.2849337878747318,0.1864294367265676,0.10964430366624095
1.038,-0.0025,-2.372,0.019266619857161393,1.2781174958990609,0.18625127512137596,0.10832251268978332
1.0390000000000001,0.001899999999999778,-1.372,0.01886400360215533,1.2781174958990609,0.18174705306910588,0.10832251268978332
1.04,0.0009,-1.372,0.01832348746090557,1.2712646567196249,0.17570009224039215,0.1069936346102022
1.0410000000000001,-0.015400000000003465,0.628,0.01787487476820226,1.2712646567196246,0.17068129044518873,0.10699363461020216
1.042,-0.031,0.628,0.017621947932584578,1.2443975832188545,0.16785170118634746,0.10178366774788238
1.0430000000000001,-0.0327999999999996,1.628,0.017569389270564912,1.295624683897943,0.1672637073297576,0.11171744401060486
1.044,-0.031,1.628,0.01764191628441968,1.2966004841996723,0.16807509477655858,0.11190666771731432
1.0450000000000002,-0.02299999999999556,1.628,0.01760976912610653,1.2908260160955791,0.16771545221967837,0.11078690350224318
1.046,-0.003,1.628,0.01769067530112934,1.289845847273233,0.1686205805476369,0.11059683266763011
1.0470000000000002,0.010400000000005972,-2.372,0.01775408754410107,1.2810826732209069,0.16932999756601558,0.10889750927760584
1.048,0.0373,-0.372,0.017763722697669362,1.2810826732209069,0.169437789714593,0.10889750927760584
1.0490000000000002,0.04099999999999638,-1.372,0.01782670705407006,1.2810826732209069,0.17014241980222766,0.10889750927760584
1.05,0.0247,-0.372,0.01781600172611713,1.2820695416895314,0.17002265520344947,0.10908887928367869
1.0510000000000002,0.016099999999998244,-0.372,0.017806988741471755,1.2820695416895314,0.16992182349660284,0.10908887928367869
1.052,0.0082,1.628,0.01784960296206414,1.2888649330425674,0.17039856508302892,0.11040661728610003
1.0530000000000002,-0.023700000000000953,-0.372,0.01794908727322148,1.268369543126277,0.17151153412637526,0.10643222453018131
1.054,-0.028,-1.372,0.018035076808525428,1.2693662954527916,0.17247353195027004,0.10662551117864835
1.0550000000000002,-0.01609999999999436,-0.372,0.018611697874427145,1.2604607482703951,0.1789244123818087,0.10489857930012497
1.056,0.0093,-2.372,0.018512295757945954,1.2333583484238622,0.1778123628817453,0.09964297879396154
1.0570000000000002,0.006000000000004596,0.628,0.01847004622644427,1.2241908844316955,0.17733970121167658,0.09786525694385646
1.058,0.0267,-0.372,0.018734747760612604,1.2302781528269522,0.18030101852722505,0.09904567827334829
1.0590000000000002,0.01890000000000051,-0.372,0.018871193901199214,1.2394005919897235,0.18182749369492066,0.10081466906946922
1.06,0.0212,1.628,0.018621849203958093,1.2404206228234256,0.1790379791883264,0.1010124698028457
1.0610000000000002,0.0235000000000022,-0.372,0.018088764950792542,1.2333583484238613,0.1730741617344334,0.09964297879396136
1.062,0.0334,1.628,0.018156720158418682,1.232332471991895,0.17383440263616162,0.09944404450306342
1.0630000000000002,0.031599999999995985,-0.372,0.01810840666348455,1.2534172646098807,0.1732939010876057,0.10353273212419346
1.064,0.0135,0.628,0.018179420759767827,1.2534172646098782,0.1740883629468179,0.10353273212419299
1.0650000000000002,-0.008599999999999334,0.628,0.018187634329950818,1.2323324719918927,0.17418025129828435,0.09944404450306295
1.066,-0.0056,0.628,0.01818763432995082,1.2333583484238608,0.17418025129828438,0.09964297879396128
1.0670000000000002,-0.013500000000000489,1.628,0.018326553345269433,1.2282203976163786,0.17573439146152323,0.09864664573794592
1.068,-0.0157,-0.372,0.018558793039653517,1.2292497058051772,0.17833254575820331,0.09884624550286268
1.0690000000000002,-0.0135999999999996,-0.372,0.018391900020694855,1.2292497058051772,0.1764654497157144,0.09884624550286268
1.07,-0.0118,1.628,0.01824155342711313,1.2292497058051786,0.17478346486320442,0.09884624550286294
1.0710000000000002,-0.0027000000000017544,0.628,0.018214416796391346,1.2190142948381528,0.17447987699510026,0.09686143119255483
1.072,-0.0106,1.628,0.01823822371744672,1.2200513698697022,0.17474621412749614,0.0970625370758568
1.0730000000000002,-0.0062000000000045075,1.628,0.018222587592018866,1.2139128194904676,0.17457128681125267,0.0958721713273291
1.074,-0.0265,0.628,0.01821224818554028,1.2066954161777843,0.17445561591597913,0.09447259827408983
1.0750000000000002,-0.041299999999995826,-2.372,0.01825531153250144,1.209835654015873,0.1749373820508911,0.09508154197150354
1.076,-0.0225,-1.372,0.018493744477837564,1.210880590243809,0.17760482261499477,0.09528417226991052
1.0770000000000002,0.009399999999999046,0.628,0.018501313498999795,1.207743069334554,0.17768950015001506,0.09467575542962517
1.078,0.0051,1.628,0.01852562212271164,1.2066954161777819,0.1779614500219386,0.09447259827408935
