time_sec,bts_raw,diy_raw,bts_rms,diy_rms,bts_norm_rms,diy_norm_rms
0.0,0.0025,-0.245,0.004348315441143138,1.0237932122539735,0.0009096976897820058,0.03647805566313255
0.001,0.006,-2.245,0.004352856620780099,1.0313406029424712,0.000935808536722288,0.037325628553162196
0.002,-0.0016,0.755,0.0043983859700457645,1.0335146546891851,0.0011975929110488715,0.03756977482809196
0.003,0.0031,1.755,0.004472127527754681,1.0474400917553375,0.0016215916691698033,0.03913360310016913
0.004,-0.0013,-0.245,0.004477475786606171,1.0249868547230845,0.001652343055248356,0.036612101857236214
0.005,-0.0005,1.755,0.0044951991171259965,1.0271743544962002,0.001754248552821867,0.036857758347162525
0.006,-0.0074,-0.245,0.0045261930636025065,1.0151837529999794,0.0019324573569697325,0.0355112123443388
0.007,0.0009,-0.245,0.004624565666126449,1.0293572055968927,0.002498079546128236,0.0371028927906117
0.008,-0.0002,1.755,0.004633573311129553,1.0271743544961967,0.002549871648350786,0.03685775834716213
0.009000000000000001,0.014400000000000003,-0.245,0.004649855020073083,1.039026590956279,0.0026434881189899553,0.038188765939639935
0.01,0.0164,0.755,0.004703564727088849,1.0611828071428244,0.002952307864344614,0.04067691170556288
0.011,0.0025,0.755,0.004798302313654958,1.0538491601529552,0.0034970294609504775,0.03985334225882235
0.012,-0.0029,0.755,0.004992468332832636,1.0538491601529552,0.004613444052103952,0.03985334225882235
0.013000000000000001,0.0016999999999999817,-0.245,0.004994396861528711,1.04860681702639,0.004624532694621703,0.039264626489665014
0.014,-0.0088,0.755,0.005011297406681494,1.0726593365813255,0.0047217073459171425,0.04196572735393325
0.015,-0.0077,-0.245,0.005042625240169263,1.0611828071428244,0.004901835931563055,0.04067691170556288
0.016,-0.0087,-0.245,0.005139123068926599,1.0726593365813253,0.0054566785579689405,0.041965727353933224
0.017,-0.0076,-0.245,0.0052557845150544074,1.0726593365813253,0.006127457828377568,0.041965727353933224
0.018000000000000002,-0.002899999999999971,0.755,0.0052777687825725506,1.0705647809336551,0.006253862835479336,0.041730508500571195
0.019,0.0054,-0.245,0.005310779991888172,1.0684661192550569,0.006443670485178621,0.041494828539437756
0.02,0.0128,0.755,0.0053111052747350715,1.0684661192550569,0.006445540794504981,0.041494828539437756
0.021,0.0079,-0.245,0.005324062673053316,1.0611828071428246,0.006520043164214887,0.0406769117055629
0.022,0.0085,1.755,0.005350257180079544,1.0590655541542089,0.0066706561807252165,0.04043914393805886
0.023,0.0069,-0.245,0.005383931378468346,1.023793212253954,0.0068642758809481135,0.03647805566313036
0.024,0.0029,0.755,0.005386272203846114,1.023793212253954,0.006877735144408065,0.03647805566313036
0.025,-0.0008,0.755,0.005491761103660144,1.021598472628902,0.007484274576260668,0.036231586136953216
0.026000000000000002,-0.00010000000000000139,-2.245,0.005498454344244903,1.0237932122539537,0.0075227593300943845,0.03647805566313033
0.027,-0.0005,-0.245,0.005594319830060753,1.0237932122539537,0.008073966114917498,0.03647805566313033
0.028,0.003,-0.245,0.006030290602536111,1.0259832569963474,0.010580708199702927,0.03672399795341534
0.029,-0.0049,-0.245,0.006285031756105362,1.018396163492576,0.012045417328604275,0.03587196643241339
0.03,-0.0124,-0.245,0.006286015750011163,1.018396163492576,0.012051075090753878,0.03587196643241339
0.031,-0.0059,-0.245,0.006448572136509966,0.9930301859337031,0.012985740808993573,0.033023364074943475
0.032,-0.0033,-1.245,0.006464871376293008,0.9783305912708633,0.013079458078346687,0.03137259781083116
0.033,-0.0087,1.755,0.00668688954852184,0.9783305912708633,0.01435601680900015,0.03137259781083116
0.034,-0.0095,-0.245,0.00725672198019328,0.9907673026477817,0.017632435844239843,0.03276924200738294
0.035,-0.0016,-1.245,0.007345531590146071,0.9760336283329756,0.018143072797120952,0.031114648594219984
0.036000000000000004,0.004899999999999994,1.755,0.007402769176362917,0.9783305912708634,0.018472177120758642,0.031372597810831175
0.037,0.004,-1.245,0.007483869954976929,0.9839474281979038,0.018938489882291527,0.03200336927921854
0.038,0.0093,-0.24499999999988897,0.0075039635699513845,0.9839474281979038,0.019054024026945202,0.03200336927921854
0.039,-0.002,0.754999999999889,0.007536429067435986,0.9839474281979038,0.019240693946091552,0.03200336927921854
0.04,-0.0035,-0.24500000000011102,0.007540870659489758,0.9895323830467303,0.019266232184954265,0.03263056038635429
0.041,0.0008,-1.244999999999889,0.00754154995622041,0.9657337333016969,0.019270138001147206,0.02995796913253963
0.042,0.0043,-0.245,0.007545988534103899,0.9657337333016969,0.01929565890915204,0.02995796913253963
0.043000000000000003,-0.004399999999999948,-0.245,0.007551226887600429,0.9600103374422386,0.01932577836209192,0.02931523108311313
0.044,0.0031,-0.245,0.007551256702434796,0.9623455461400157,0.01932594979124446,0.02957747530320017
0.045,-0.0017,-0.245,0.0075623130769567615,0.9354609315918292,0.01938952166594147,0.02655832982757685
0.046,0.0008,-0.24499999999988897,0.007564668998338099,0.9378572688390365,0.01940306772831054,0.026827438791181525
0.047,0.0014,0.754999999999889,0.007591796877549135,0.9402474987436983,0.019559047442508297,0.027095861899477342
0.048,-0.0023,-0.245,0.00765240636985408,0.9271333543316285,0.01990753953117663,0.02562314189088632
0.049,-0.0044,-0.24500000000011102,0.007746112066818115,0.9295511599120195,0.020446327975250988,0.025894661750912245
0.05,0.002,-1.244999999999778,0.007848116170441984,0.9295511599120195,0.02103283054725361,0.025894661750912245
0.051000000000000004,-0.0062999999999999,0.755000000000111,0.007912975066013973,0.9295511599120194,0.02140575582887257,0.02589466175091223
0.052000000000000005,0.008099999999999958,1.7549999999998889,0.007890680765412422,0.9016892830975141,0.02127756819544142,0.022765769604211828
0.053,0.0022,0.755,0.007889271131761147,0.8991965642023688,0.02126946309248299,0.022485836969849914
0.054,0.004,0.755,0.007898515721331309,0.8854746517511258,0.021322617577130016,0.020944864536720342
0.055,0.0053,0.755000000000111,0.007932843363477687,0.8854746517511258,0.021519994444279163,0.020944864536720342
0.056,0.0095,1.7549999999997778,0.007937230196082305,0.8778371445519265,0.021545217827595588,0.020087171551605235
0.057,0.0029,-0.24499999999977795,0.00793426656302013,0.8778371445519265,0.021528177548315774,0.020087171551605235
0.058,0.0039,1.7549999999995558,0.007936321147204639,0.906432483969949,0.021539990983911014,0.023298431637670314
0.059000000000000004,0.007100000000000017,-2.244999999999778,0.007947334142103541,0.8903042421761248,0.02160331343471628,0.021487228127413258
0.06,0.0095,-0.245,0.007857996492011445,0.9064324839699448,0.02108964035986732,0.02329843163766984
0.061,0.0138,-0.245,0.007691822217422408,0.9064324839699448,0.0201341725307835,0.02329843163766984
0.062,0.0014,0.755,0.007689650459247206,0.9039528449074979,0.020121685368892243,0.023019967870106905
0.063,-0.0041,-2.245,0.007686512878685043,0.9039528449074979,0.02010364492733942,0.023019967870106905
0.064,-0.0056,0.755,0.007686512878685043,0.9198418071470111,0.02010364492733942,0.024804300257383477
0.065,-0.0099,1.755,0.007640919473476856,0.9198418071470111,0.019841492244545768,0.024804300257383477
0.066,-0.011,-1.245,0.007601953616701419,0.9222787281267182,0.019617446599251437,0.02507796677907182
0.067,-0.0048,-0.245,0.007594249668310421,0.9306497462394071,0.019573150483846544,0.026018033128767375
0.068,-0.0059,-0.245,0.007570681644748024,0.9330584399463057,0.019437639205914684,0.026288529724294563
0.069,0.0006,-0.245,0.007577220078459804,0.9306497462394054,0.019475233852135662,0.026018033128767187
0.07,-0.0037,-0.245,0.007564760459530484,0.9330584399463073,0.019403593611315897,0.02628852972429475
0.07100000000000001,0.005299999999999843,-0.245,0.007484065586477536,0.9460904579027318,0.01893961472309885,0.027752026921952545
0.07200000000000001,-0.005999999999999894,-0.245,0.007452530678067442,0.9484599394355909,0.01875829549932932,0.028018119985577558
0.073,0.0016,-0.245,0.007417173348260255,0.9354609315918014,0.018554998140357108,0.026558329827573734
0.074,-0.0107,-0.245,0.007392546839924774,0.9354609315918,0.018413400793141913,0.02655832982757357
0.075,-0.0027,0.755,0.00738906740575646,0.9484599394355896,0.0183933947638124,0.02801811998557741
0.076,-0.0103,-0.245,0.007401052153284878,0.9460904579027306,0.01846230459195165,0.027752026921952406
0.077,-0.0225,0.755,0.007402967909120312,0.9187302971458633,0.018473319793153302,0.024679477549397064
0.078,-0.0177,-0.245,0.0075073805350294,0.9187302971458633,0.019073670871880864,0.024679477549397064
0.079,-0.0011,-0.245,0.007504065994442485,0.9211701585881353,0.01905461294665855,0.024953474285388216
0.08,0.0144,-0.245,0.007596791010914093,0.9367671351154556,0.019587762680027293,0.026705016641759425
0.081,0.0046,-0.245,0.007500755996706828,0.9391601394927185,0.01903558114189465,0.026973751323664964
0.082,0.0171,0.755,0.0075732904753820825,0.9415470619101024,0.01945263944436035,0.027241803000738186
0.083,0.0282,1.755,0.007576674692129773,0.9356757313036788,0.019472097993146326,0.02658245186127882
0.084,0.0114,-0.245,0.0075721794623394845,0.9200602533484131,0.01944625134835379,0.024828831792304606
0.085,0.0092,0.755,0.007604496229051491,0.9356757313036789,0.01963206609621228,0.026582451861278833
0.08600000000000001,0.010999999999999923,-1.245,0.007677882706428064,0.927350082940762,0.02005402321560704,0.025647480539987316
0.08700000000000001,0.0055000000000000205,-0.245,0.007668626634759656,0.9510348461070195,0.02000080271126165,0.028307282317187786
0.088,0.007,-1.245,0.007659896862637813,0.9428448338350092,0.0199506083208346,0.027387542945361554
0.089,0.0026,-1.245,0.0076421469671934614,0.9695247167196094,0.019848550080420302,0.03038369703032441
0.09,-0.001,0.755,0.00765918276542028,0.9695247167196102,0.019946502409014744,0.030383697030324498
0.091,0.0026,-0.245,0.0076761067154760415,0.9718370637662488,0.020043811633678382,0.03064337388421493
0.092,-0.0028,0.755,0.007675813119717552,0.9787413269339854,0.02004212351857942,0.0314187234756336
0.093,-0.0002,0.755,0.007664786284070924,0.9787413269339854,0.019978721486327414,0.0314187234756336
0.094,0.0041,-0.245,0.007661946488030361,0.9934348440676051,0.019962393244398108,0.03306880723247711
0.095,0.0019,0.755,0.007691285652947681,0.995691664918006,0.020131087395643905,0.03332224848779316
0.096,-0.0064,0.755,0.007739432376313936,0.9979433820446701,0.020407921131587833,0.033575116594314336
0.097,-0.0096,0.755,0.00773912857420138,1.0001900299174749,0.0204061743320566,0.033827415423012056
0.098,-0.012,0.755,0.007782401776749574,0.9979433820446713,0.020654986327767008,0.03357511659431446
0.099,-0.0126,-0.245,0.007789180991743192,1.005684787389763,0.02069396541673167,0.03444447735381906
0.1,-0.0104,-0.245,0.007787017589658415,1.013367055615895,0.020681526300638107,0.03530719700768948
0.101,0.0008,-0.245,0.007829800765934663,1.0133670556158976,0.020927520746283026,0.03530719700768978
0.10200000000000001,-0.0006000000000000596,-0.245,0.007806657841157643,1.013367055615897,0.020794453698750943,0.0353071970076897
0.10300000000000001,-0.004899999999999828,0.754999999999778,0.007770108758068671,0.9989667587304935,0.020584304004038035,0.033690041920296745
0.10400000000000001,0.007499999999999933,-0.245,0.007780565829636816,0.9967173535506162,0.020644430010271553,0.033437433445680245
0.105,0.0027,-1.244999999999778,0.007773144031639359,0.9967173535506162,0.020601756201476137,0.033437433445680245
0.106,0.0071,-0.245,0.007755306767216057,1.0089274429058346,0.020499195607440297,0.03480862796169947
0.107,-0.002,-2.244999999999556,0.0077296163253120515,0.9944628603871469,0.020351480861491023,0.03318425358988904
0.108,0.0042,-0.245,0.0077336215972619166,0.9967173535506199,0.020374510349685224,0.033437433445680655
0.109,-0.0081,1.7549999999997778,0.0077673776024649414,0.9967173535506275,0.020568600422228883,0.033437433445681515
0.11,0.0032,0.755,0.007736866393438618,0.9707850880746494,0.020393167258923667,0.03052523688641399
0.111,0.0017,-0.24499999999977795,0.007736866393438618,0.9730944401278165,0.020393167258923667,0.0307845774021742
0.112,-0.0019,0.755,0.007630001570474595,0.9730944401278165,0.01977871655254701,0.0307845774021742
0.113,0.0017,1.7549999999997778,0.0076392827740552624,0.9707850880746494,0.019832081560208013,0.03052523688641399
0.114,0.0028,0.755,0.007645317864757961,0.9441408219048855,0.019866782087869662,0.027533082562848563
0.115,0.0003,0.7549999999995559,0.007635240332252261,0.957021940065533,0.019808838353019276,0.028979633695132203
0.116,-0.008,-1.245,0.007577437591834475,0.9441408219048855,0.019476484509208834,0.027533082562848563
0.117,-0.0047,0.754999999999778,0.007514235346571809,0.9358904817161016,0.01911308462542004,0.02660656835864918
0.11800000000000001,0.004299999999999984,-0.245,0.007500941458622695,0.9358904817161016,0.019036647509685756,0.02660656835864918
0.11900000000000001,0.003200000000000046,0.755000000000222,0.0074898888151524136,0.9358904817161016,0.018973097087766934,0.02660656835864918
0.12,0.0065,1.755,0.00750624813592132,0.9358904817161016,0.019067159810405618,0.02660656835864918
0.121,0.0039,0.755,0.007568686898396888,0.9358904817161016,0.019426169825528302,0.02660656835864918
0.122,-0.0044,0.755,0.007569392113693394,0.9358904817161016,0.01943022466813289,0.02660656835864918
0.123,-0.0033,-0.2449999999995559,0.007552208459762878,0.9358904817161016,0.01933142219971639,0.02660656835864918
0.124,0.0018,1.755,0.0075540786353752,0.938285721913299,0.01934217532402958,0.026875554123404637
0.125,0.0043,-0.245,0.007491341103696423,0.965091649320018,0.01898144744756709,0.029885863023494195
0.126,0.0017,-0.245,0.007486660570170077,0.9627631013949738,0.018954535344484755,0.029624366808993195
0.127,0.0125,-0.245,0.007478315817665378,0.9627631013949738,0.018906554737500764,0.029624366808993195
0.128,0.002,0.755,0.007182946511433921,0.9604289079510803,0.0172082421045682,0.029362236602040456
0.129,-0.0128,1.755,0.006961151272945374,0.9627631013949738,0.01593296519697301,0.029624366808993195
0.13,-0.003,0.755,0.007036239862025653,0.965091649320018,0.01636470910784569,0.029885863023494195
0.131,-0.012,0.755,0.0069201964398768806,0.9730944401278165,0.015697483347937,0.0307845774021742
0.132,-0.004,0.755,0.006947907553095729,0.9753983245768021,0.015856816537470633,0.031043303905321437
0.133,-0.0083,-0.245,0.0067668826656028195,0.9753983245768021,0.01481596074501571,0.031043303905321437
0.134,-0.0118,1.755,0.006220436060701922,0.9604289079510803,0.01167400539370688,0.029362236602040456
0.135,-0.0107,-0.245,0.006116106758213294,0.9684702293042057,0.011074133407473366,0.03026527796563551
0.136,-0.0031,2.755,0.006130272613984924,0.9684702293042057,0.011155584158467808,0.03026527796563551
0.137,0.0016,-0.245,0.006042410810641477,0.9866334085510062,0.010650396898240159,0.03230500519875711
0.138,0.0077,-2.245,0.00602009393814026,0.9866334085510062,0.010522079481038171,0.03230500519875711
0.139,0.0055,0.755,0.0060155821500929565,0.978741326934007,0.010496137629680588,0.03141872347563601
0.14,0.0062,0.755,0.006010865730397919,0.9730944401278165,0.010469019188524697,0.0307845774021742
0.14100000000000001,-0.00040000000000002225,1.755,0.0060641888882902815,0.978741326934007,0.010775616356090553,0.03141872347563601
0.14200000000000002,-0.0011999999999998583,-0.245,0.00605897413072003,0.978741326934007,0.010745632574863473,0.03141872347563601
0.14300000000000002,0.003900000000000097,1.755,0.006058409509523179,0.9764453301997899,0.010742386119354371,0.031160882763814277
0.14400000000000002,0.007400000000000039,0.755,0.006068403675234928,0.9741439219588719,0.010799850512322084,0.03090243433913346
0.145,0.0088,0.755,0.006055307004740021,0.9764453301997899,0.010724547356301446,0.031160882763814277
0.146,0.0004,0.755,0.006052373982502492,0.9741439219588719,0.01070768308295422,0.03090243433913346
0.147,-0.0083,-0.245,0.006039984576760143,0.9741439219588719,0.010636446553488053,0.03090243433913346
0.148,0.004,-1.245,0.005964623225669252,0.9741439219588719,0.010203134317272712,0.03090243433913346
0.149,-0.004,-1.245,0.005943446969382526,0.9718370637662719,0.01008137520821423,0.03064337388421752
0.15,-0.0084,-1.245,0.0058109144895443915,1.008927442905852,0.009319340765114018,0.034808627961701415
0.151,-0.0019,0.755,0.005798780599311387,1.008927442905852,0.009249573397162859,0.034808627961701415
0.152,-0.0029,-0.245,0.005798780599311387,1.0111496858665905,0.009249573397162859,0.0350581861158131
0.153,0.0046,-0.245,0.005801529674226077,1.0111496858665907,0.009265380011316724,0.03505818611581313
0.154,0.0021,0.755,0.005837000530683452,1.0089274429058535,0.009469330125128798,0.03480862796170159
0.155,-0.0005,1.755,0.005830797301467764,1.0111496858665923,0.009433662835672107,0.0350581861158133
0.156,0.0071,-0.245,0.005829491432034761,1.0056847873897874,0.009426154355582129,0.034444477353821806
0.157,-0.0038,0.755,0.005786281292851042,1.0056847873897874,0.009177704961219602,0.034444477353821806
0.158,-0.0082,1.755,0.005850683048312526,0.9799898448179908,0.009548001781423269,0.03155893218548783
0.159,-0.0017,-0.245,0.0058423311839971214,0.9799898448179908,0.00949998028299352,0.03155893218548783
0.16,0.0095,0.755,0.005798784894181548,0.9674145924921917,0.009249598091781079,0.03014672982356783
0.161,0.0051,-0.245,0.005795905551853369,0.9674145924921917,0.009233042466848772,0.03014672982356783
0.162,-0.004,-0.245,0.005796602400575689,0.9697319711891521,0.009237049203376198,0.03040697173239987
0.163,-0.0051,-0.245,0.005807323969600829,0.9697319711891521,0.009298696015472462,0.03040697173239987
0.164,-0.004,1.755,0.005875954931835821,0.9627631013949975,0.009693309902951579,0.029624366808995863
0.165,-0.0032,0.755,0.005929315189338057,0.9753983245768256,0.010000120385627689,0.03104330390532408
0.166,0.0051,-0.245,0.0060361915516779436,0.9753983245768288,0.01061463744103721,0.03104330390532444
0.167,0.0018,-0.245,0.006031012424797704,0.9697319711891594,0.010584858528933934,0.030406971732400694
0.168,0.0043,-0.245,0.006025947236926112,0.9822775565622885,0.010555734742646674,0.031815842491936426
0.169,0.005,-0.245,0.006021517027857227,0.9822775565622885,0.010530261953600935,0.031815842491936426
0.17,0.0104,-0.245,0.006020491350962683,0.9822775565622869,0.010524364522857248,0.03181584249193624
0.171,0.0054,-0.245,0.00601053741841994,0.9697319711891593,0.010467131462318955,0.03040697173240068
0.17200000000000001,0.0031999999999998475,-0.245,0.0060977641807991355,0.9674145924921996,0.010968667367889016,0.030146729823568714
0.17300000000000001,-0.002300000000000061,0.755,0.006081860554524162,0.9911728846312114,0.010877224794668289,0.03281478891333064
0.17400000000000002,-0.004499999999999858,-2.245,0.006121302503664528,0.9989667587305372,0.011104007872934642,0.03369004192030166
0.17500000000000002,0.0006000000000002526,-0.245,0.006127518128455842,0.9843558201633529,0.011139746434396356,0.03204923174648794
0.176,0.0097,-0.245,0.006131219816557721,0.9866334085510339,0.011161030378035616,0.03230500519876022
0.177,0.0086,-0.245,0.006157112297487282,0.9889057513477151,0.01130990680674003,0.03256018957052679
0.178,-0.0001,0.755,0.006029225026432005,0.9967173535506567,0.010574581356727793,0.03343743344568479
0.179,-0.0103,0.755,0.0060482372453040225,0.9944628603871845,0.01068389769667655,0.033184253589893256
0.18,-0.0067,-1.245,0.005912663759397413,0.9797847602051856,0.009904378095457477,0.03153590115858726
0.181,-0.0077,0.755,0.005953848747428544,0.9774912143598888,0.010141183288091932,0.03127833568188864
0.182,-0.0066,0.755,0.005945907611691636,0.9831128469263547,0.010095523394334201,0.031909645701165334
0.183,-0.0092,-0.245,0.005941045544835078,0.9808270834413574,0.010067567512018575,0.03165295418447256
0.184,0.001,-1.245,0.005886676539279381,0.9887025161455367,0.009754956935945837,0.032537366232664
0.185,0.0101,0.755,0.005783046865107449,0.9762395009693837,0.009159107668334518,0.031137768116266777
0.186,-0.0037,-2.245,0.005685856125357224,0.9785359806529933,0.00860028094653383,0.03139566306336389
0.187,0.0018,-0.245,0.005691491846111267,0.9426316677649816,0.008632685179303944,0.027363604369834406
0.188,0.0066,-0.245,0.005692162055709958,0.9578792540986149,0.008636538746361036,0.029075910165063668
0.189,-0.001,0.755,0.005645599806114824,0.9308656561457448,0.008368815408028755,0.02604227983744506
0.19,0.0081,-1.245,0.005623217548265305,0.9367671351155099,0.008240122038550466,0.02670501664176552
0.191,-0.0006,-0.245,0.005590791228522641,0.9343680020489543,0.008053677383345422,0.026435593707308823
0.192,0.0027,-0.245,0.005598092668215979,0.9211701585881897,0.008095659156698925,0.024953474285394326
0.193,0.0035,-0.245,0.005599324429199044,0.9484599394356266,0.008102741528476082,0.02801811998558156
0.194,-0.0009,0.755,0.005587126114076445,0.9354609315918374,0.008032603730688224,0.026558329827577772
0.195,-0.0001,-0.245,0.005566430596021278,0.9330584399463436,0.00791360876737734,0.026288529724298827
0.196,-0.0051,0.755,0.005499216456360949,0.9306497462394434,0.007527141317684448,0.02601803312877145
0.197,0.0014,0.755,0.005499836249424501,0.9365525857187128,0.0075307050000557275,0.026680922718474314
0.198,-0.0109,-0.245,0.00546255131937948,0.9365525857187128,0.0073163243370092884,0.026680922718474314
0.199,-0.0018,2.755,0.005452777423837423,0.9306497462394403,0.0072601264521179225,0.026018033128771104
0.2,-0.0097,-0.245,0.005440313916230979,0.924709227019317,0.007188463852206173,0.025350912099598735
0.201,0.0008,0.755,0.0053758357739224355,0.9162839389153481,0.0068177278233758345,0.02440475122329796
0.202,0.0019,-0.245,0.005431491061504901,0.9162839389153482,0.007137734255989819,0.02440475122329797
0.203,0.0081,-0.245,0.005441398194157124,0.9162839389153474,0.00719469822680344,0.024404751223297882
0.20400000000000001,0.006999999999999873,0.755,0.00542316372879079,0.918730297145897,0.0070898538092113534,0.024679477549400853
0.20500000000000002,0.002399999999999928,0.755,0.005431007172013068,0.918730297145897,0.007134951991145144,0.024679477549400853
0.20600000000000002,-0.00019999999999974744,-0.245,0.005487749056971849,0.9053045104903789,0.0074612061347168225,0.02317176007905959
0.20700000000000002,0.00889999999999983,-0.245,0.0054474683925526644,0.9077804574310842,0.007229600616462966,0.023449809220902985
0.20800000000000002,0.0028000000000000303,-0.245,0.005453445030226154,0.9053045104903787,0.007263965051254286,0.023171760079059574
0.209,0.0039,0.755,0.005394647885179984,0.8916765975030747,0.00692589358578512,0.021641343797135136
0.21,-0.0026,0.755,0.005395592941058542,0.8941902799260482,0.006931327462303505,0.021923630638215626
0.211,-0.0019,0.755,0.005312847445639839,0.8941902799260482,0.006455557918132499,0.021923630638215626
0.212,-0.004,0.755,0.005299270015549156,0.902821773405283,0.0063774904935244145,0.022892948403177297
0.213,-0.0091,-1.245,0.005314845003831714,0.9053045104903787,0.0064670434660235865,0.023171760079059574
0.214,-0.0084,1.755,0.005431586680102343,0.9053045104903787,0.0071382840432173775,0.023171760079059574
0.215,-0.0113,0.755,0.005428778525873135,0.8916765975030747,0.007122137735181738,0.021641343797135136
0.216,-0.0076,0.755,0.005439715269184217,0.8978357033308112,0.007185021755073079,0.022333012128863187
0.217,-0.004,1.755,0.0054650093508425875,0.8978357033308111,0.007330457511302862,0.022333012128863176
0.218,-0.0036,-0.245,0.005482163783241852,0.8978357033308111,0.007429091961937451,0.022333012128863176
0.219,0.003,0.755,0.005465369954219986,0.8978357033308112,0.007332530906399761,0.022333012128863187
0.22,0.0055,0.755,0.0054443943670745435,0.8978357033308111,0.007211925603544195,0.022333012128863176
0.221,0.011,-0.245,0.005348853187754646,0.8978357033308111,0.006662583514230729,0.022333012128863176
0.222,-0.0003,-2.245,0.005353030248716061,0.9003321900027214,0.006686600753834296,0.02261336788501294
0.223,0.0077,-1.245,0.0053497924459174106,0.9003321900027214,0.0066679840550782545,0.02261336788501294
0.224,0.0033,-0.245,0.0053598315208084266,0.9138310317201208,0.006725706666570622,0.02412928944766711
0.225,0.0048,0.755,0.0053426713994687465,0.8854746517511319,0.006627039505701182,0.02094486453672103
0.226,0.0059,0.7549999999995559,0.005357210864674654,0.9016892830975183,0.006710638433938928,0.022765769604212303
0.227,-0.0003,-1.245,0.0052700609979063374,0.9041751298462485,0.006209544662282639,0.023044930495698022
0.228,0.0052,-0.245,0.005214888790493852,0.9066541609743178,0.005892315841079481,0.023323325992156606
0.229,-0.0014,-0.245,0.005260167054262643,0.9066541609743178,0.006152656525549696,0.023323325992156606
0.23,-0.0076,-0.24500000000022204,0.005160311101872082,0.9066541609743178,0.005578505380388017,0.023323325992156606
0.231,-0.0116,-1.245,0.005141947135683976,0.8980595023669692,0.005472916359761862,0.022358144787776865
0.232,-0.0032,-0.24500000000022204,0.005121596862244627,0.8955566802899995,0.005355906481834345,0.02207707756487026
0.233,0.0022,-1.245,0.005108560078243507,0.9016892830975182,0.005280947660809909,0.02276576960421229
0.234,-0.0043,0.755,0.005119719957551301,0.9102496696364971,0.005345114666692293,0.023727102051155944
0.23500000000000001,-0.001800000000000061,0.755,0.0051368984207555415,0.9041751298462484,0.005443887289502555,0.023044930495698012
0.23600000000000002,-0.003999999999999939,0.755000000000222,0.0050534333964562484,0.9041751298462484,0.004963980602568622,0.023044930495698012
0.23700000000000002,-0.0018000000000000195,1.755,0.005093641254936489,0.8755060649656335,0.005195167501679416,0.019825391031238836
0.23800000000000002,-0.002499999999999992,-0.24500000000022204,0.005091276931191208,0.8780660407800612,0.00518157312744946,0.02011287662579633
0.23900000000000002,-0.0021999999999999004,-1.245,0.005210380398536965,0.9066541609743178,0.005866393516541832,0.023323325992156606
0.24,0.0014,-0.24499999999977795,0.005273349935887856,0.9041751298462485,0.0062284553778008175,0.023044930495698022
0.241,0.0029,0.755,0.00522544200440589,0.8980595023669692,0.005952994645974698,0.022358144787776865
0.242,0.0017,-2.244999999999334,0.00527989050468752,0.9005553686315863,0.006266062300337072,0.02263843087211233
0.243,-0.0012,0.755,0.005288102363316801,0.9030443367580222,0.0063132787949278695,0.022917942294693117
0.244,-0.0056,-0.245,0.0053118705308516714,0.9189490075678106,0.0064499408594502275,0.02470403875631749
0.245,0.0017,-0.245,0.005319484667410215,0.9321782987655464,0.006493720575329422,0.026189689762909345
0.246,-0.0009,-1.244999999999778,0.005328569130680547,0.9321782987655464,0.006545954366755696,0.026189689762909345
0.247,-0.0053,-0.245,0.005307804888246307,0.9297673249312777,0.006426564252429767,0.02591893710880185
0.248,0.0023,0.755,0.005312416449839981,0.935675731303712,0.00645307978111488,0.026582451861282545
0.249,0.0016,0.755,0.005224208420374691,0.9380715198375336,0.0059459017920465125,0.026851499204307433
0.25,-0.001,-0.24499999999977795,0.005222248831075266,0.8980595023669691,0.005934634557461331,0.02235814478777685
0.251,0.008,0.755,0.005132516321014541,0.9005553686315863,0.005418691119176446,0.02263843087211233
0.252,0.0044,-0.24499999999977795,0.005132143506454546,0.9066541609743178,0.005416547512296443,0.023323325992156606
0.253,-0.0011,0.755,0.0051774152262063,0.9066541609743178,0.005676850570017465,0.023323325992156606
0.254,0.0036,0.755,0.005286192910133068,0.9151681077444079,0.006302299832674472,0.024279443247419586
0.255,0.0079,0.755,0.005240932626477724,0.9127122017662064,0.006042062530150735,0.02400364470809689
0.256,0.0025,0.755,0.0052767746019891475,0.9127122017662064,0.006248146502033074,0.02400364470809689
0.257,0.0046,-0.245,0.005278621310687993,0.9151681077444079,0.006258764696430494,0.024279443247419586
0.258,-0.0019,0.755,0.005348690410971205,0.9151681077444079,0.006661647581275496,0.024279443247419586
0.259,0.002,0.755,0.005341462437015221,0.9176174407736833,0.00662008822076992,0.024554503643780392
0.26,0.0012,0.755,0.005349894179952576,0.9151681077444079,0.006668569004812286,0.024279443247419586
0.261,0.0034,-1.245,0.005350780354318214,0.9127122017662064,0.006673664324767313,0.02400364470809689
0.262,-0.0057,0.755,0.005384489185194886,0.9102496696364972,0.006867483154657437,0.023727102051155954
0.263,-0.0123,-0.245,0.005393801269217418,0.9077804574310842,0.006921025718494462,0.023449809220902985
0.264,-0.0036,0.755,0.005382417799276139,0.9016892830975181,0.0068555731125533,0.022765769604212276
0.265,-0.0047,-1.245,0.005347951672633105,0.8880058902244694,0.006657399988091106,0.02122912292438744
0.266,-0.0073,-0.245,0.005292622718387354,0.8880058902244694,0.006339269904903409,0.02122912292438744
0.267,0.0047,-0.245,0.005254505286425809,0.8854746517511319,0.00612010252742204,0.02094486453672103
0.268,-0.0,-0.245,0.005461154351313283,0.8778371445519358,0.0073082920585545805,0.020087171551606282
0.269,-0.0014,-0.245,0.005465450870659607,0.8803903421407236,0.007332996159250076,0.020373895950602027
0.27,0.0022,-0.245,0.005468412131870547,0.8866278532594903,0.007350022800874145,0.021074369206025543
0.271,0.0058,0.755,0.005440817711591119,0.8840926693486201,0.00719136057169086,0.020789667745245505
0.272,0.0026,-0.245,0.00557208259355081,0.9003321900027214,0.007946106588251746,0.02261336788501294
0.273,-0.004,1.755,0.005747329078096312,0.8741083221739674,0.008953737754732613,0.019668424346149106
0.274,-0.0014,-0.245,0.005712556045320134,0.8651904189676122,0.008753799983260566,0.018666942734082242
0.275,0.004,1.755,0.005708955012677051,0.8677808267373256,0.00873309478776352,0.018957845840910578
0.276,-0.0011,0.755,0.005735334119190097,0.8941902799260482,0.008884769213275672,0.021923630638215626
0.277,0.004,0.755,0.005735334119190097,0.9198418071470436,0.008884769213275672,0.024804300257387116
0.278,0.0069,0.755,0.00575376454583849,0.9113715226816683,0.008990740367850462,0.023853086284241085
0.279,-0.0015,0.755,0.0057410825481326155,0.9138310317201244,0.008917821494899492,0.02412928944766751
0.28,-0.0051,-0.245,0.005744412308990594,0.916283938915351,0.008936966933543405,0.02440475122329828
0.281,-0.0062,-0.245,0.005747096794549801,0.9247092270193186,0.00895240217221561,0.02535091209959891
0.28200000000000003,-0.005500000000000238,-1.245,0.0057222464495468835,0.9162839389153503,0.008809517810297124,0.024404751223298205
0.28300000000000003,-0.009799999999999694,-1.245,0.005944285035672559,0.9162839389153496,0.010086193916649977,0.024404751223298132
0.28400000000000003,-0.004299999999999533,0.755,0.006181822776792379,0.9077804574310863,0.011451986969723445,0.023449809220903225
0.28500000000000003,0.004100000000000183,0.755,0.006195040206940117,0.9077804574310863,0.011527984468858365,0.023449809220903225
0.28600000000000003,0.0073999999999996395,-0.245,0.006257274845532938,0.9077804574310863,0.01188582081372677,0.023449809220903225
0.28700000000000003,0.0009000000000006661,0.755,0.006252530051413508,0.9053045104903792,0.01185853922547881,0.023171760079059626
0.28800000000000003,0.01289999999999974,-2.245,0.006270578026026124,0.8891558088181717,0.011962311359674203,0.021358258921977766
0.289,0.0082,-0.245,0.0062962648768899315,0.889155808818171,0.012110005457882482,0.02135825892197769
0.29,0.0039,0.755,0.006338254391904011,0.8803903421407233,0.012351436514849658,0.02037389595060199
0.291,0.0076,0.755,0.006338254391904011,0.8829361566468015,0.012351436514849658,0.020659791228513667
0.292,0.004,0.755,0.006336557923429279,0.8891558088181717,0.012341682170775222,0.021358258921977766
0.293,-0.0061,1.755,0.006335829819553024,0.8625922321084392,0.012337495723554595,0.01837516603456377
0.294,0.003,1.755,0.006334942808752084,0.9016892830975354,0.012332395594268977,0.022765769604214222
0.295,-0.0031,-0.245,0.006312930996825773,0.9016892830975354,0.012205832212497363,0.022765769604214222
0.296,-0.002,-0.245,0.006338308275863348,0.9041751298462656,0.012351746336509945,0.023044930495699945
0.297,-0.0026,-1.245,0.006359048733110933,0.9041751298462687,0.01247099969091492,0.02304493049570029
0.298,-0.0051,0.755,0.006365278592169124,0.9041751298462687,0.012506820096477387,0.02304493049570029
0.299,-0.0011,-0.245,0.006368655776139788,0.9102496696365173,0.012526238208244968,0.023727102051158213
0.3,0.0012,0.755,0.006434418036088808,0.9077804574311042,0.012904357648841474,0.023449809220905244
0.301,0.0005,-1.245,0.006435171562874517,0.910249669636518,0.012908690272551602,0.023727102051158286
0.302,0.0071,-0.245,0.00638540995224159,0.9102496696365144,0.012622571267665066,0.023727102051157887
0.303,0.0134,-1.245,0.0066139996455983575,0.9187302971459148,0.01393691489036283,0.024679477549402848
0.304,0.0011,-0.245,0.006794292996829931,0.9162839389153646,0.014973564500090351,0.024404751223299815
0.305,0.0066,0.755,0.006845405436869212,0.9162839389153646,0.01526745049564704,0.024404751223299815
0.306,-0.0014,0.755,0.006837693058405401,0.9138310317201366,0.01522310590906097,0.024129289447668883
0.307,0.0124,-0.245,0.006854373706069513,0.9271333543316481,0.015319016195119129,0.025623141890888528
0.308,-0.0002,0.755,0.006850044501191504,0.9426316677649726,0.015294124159353181,0.027363604369833396
0.309,-0.0049,-0.245,0.006867761878486593,0.9426316677649726,0.015395995427111465,0.027363604369833396
0.31,0.0028,-0.245,0.006877646147260866,0.9402474987437149,0.015452827935339296,0.027095861899479212
0.311,-0.0063,-0.245,0.006876793387384781,0.9646751019670405,0.015447924741812214,0.029839084705215884
0.312,-0.0051,-0.245,0.006868716262710091,0.9566018788057465,0.015401482939690606,0.028932460764692906
0.313,-0.0084,0.755,0.006846379635063785,0.9542526145393159,0.01527305193447605,0.02866863810254073
0.314,-0.0058,0.755,0.006746702106390584,0.9566018788057465,0.01469992668891468,0.028932460764692906
0.315,-0.0083,0.755,0.006803846605010487,0.9566018788057465,0.015028495778056017,0.028932460764692906
0.316,-0.0042,-0.245,0.0068018347112488555,0.9484599394356349,0.0150169278035935,0.028018119985582495
0.317,-0.0154,-1.245,0.0067719270795663054,0.9484599394356349,0.014844965085613025,0.028018119985582495
0.318,-0.0042,0.755,0.006778132830898414,0.9636153076167613,0.014880646876719309,0.02972006967109658
0.319,0.0035,-1.245,0.006801955171228883,0.9897354478416025,0.015017620423650924,0.03265336458745593
0.32,-0.0001,-0.245,0.006848702696461039,0.9920006849260631,0.01528640905870934,0.032907750986877995
0.321,0.0163,1.755,0.006850578368681036,0.9920006849260631,0.015297193787383772,0.032907750986877995
0.322,0.0141,0.755,0.0068289787669927335,1.0151837529999463,0.015173000529520987,0.03551121234433508
0.323,0.0044,-0.245,0.006853905746757867,1.0173923306839991,0.015316325525527195,0.035759235886216975
0.324,0.0026,0.755,0.006847429409080107,1.0030498243733912,0.015279087918703358,0.03414857068738518
0.325,0.0073,-2.245,0.006899930866396083,1.0052850602466221,0.015580960477313834,0.03439958794714617
0.326,0.0059,-2.245,0.006890983838218305,0.9907673026477639,0.015529516909343316,0.03276924200738095
0.327,-0.0046,-0.245,0.006977148876794004,0.9907673026477638,0.016024948121872756,0.03276924200738093
0.328,-0.0035,0.755,0.006971828290505666,0.9907673026477638,0.015994355847328792,0.03276924200738093
0.329,-0.0024,0.755,0.006953705454383895,0.9907673026477638,0.015890153274885296,0.03276924200738093
0.33,-0.0078,-1.245,0.006959946742504996,0.9963140286259078,0.015926039395203873,0.0333921400077008
0.331,-0.0103,-0.245,0.006957807519121449,0.9985643423517336,0.01591373930165896,0.033644850512137565
0.332,-0.0164,-0.245,0.0070217397861436544,1.000809596274893,0.016281336660101977,0.03389699280012099
0.333,-0.0171,-0.245,0.00704242616695228,0.9930301859336796,0.016400279086128507,0.033023364074940845
0.334,-0.0059,0.755,0.006977566673483032,1.0217951648416301,0.016027350366723536,0.036253674696306894
0.335,0.009,0.755,0.00696609488986726,1.0195961243130391,0.01596138997535617,0.036006722178140486
0.336,0.0032,-0.245,0.006969207705258171,1.0249868547230458,0.015979288022278586,0.03661210185723188
0.337,0.0051,-0.245,0.0071351183667418055,1.0271743544961616,0.016933240130339047,0.03685775834715819
0.338,-0.0062,-0.245,0.007178036392283612,1.0271743544961616,0.017180009931467455,0.03685775834715819
0.339,-0.0076,-0.245,0.007061400556169778,1.0271743544961616,0.01650937791336076,0.03685775834715819
0.34,0.0014,0.755,0.007026864821838606,1.0271743544961618,0.016310804559038453,0.036857758347158216
0.341,0.0025,-1.245,0.007023339660748277,1.049580796316279,0.016290535609332028,0.03937400448209071
0.342,0.0014,0.755,0.007016122202191646,1.0548182988727426,0.016249036710205424,0.03996217665463834
0.343,0.0006,2.755,0.007006154796265347,1.0548182988727426,0.016191726180488652,0.03996217665463834
0.34400000000000003,-0.001900000000000222,-0.245,0.006979781240196972,1.0409915654209974,0.016040083668889364,0.03840943281043462
0.34500000000000003,-0.005899999999999961,0.755,0.006973383541340233,1.0291619586333798,0.016003298219078328,0.03708096653292023
0.34600000000000003,-0.005200000000000044,-1.245,0.006977979476232617,1.0313406029424317,0.016029723897451813,0.03732562855315776
0.34700000000000003,-0.005999999999999495,-0.245,0.006990976772883027,1.033514654689145,0.016104455674348313,0.03756977482808745
0.34800000000000003,0.0030999999999993116,-1.245,0.006993827058689142,1.0259832569963248,0.01612084423026753,0.036723997953412794
0.34900000000000003,-0.00929999999999956,-0.245,0.006982510538449181,1.0259832569963248,0.01605577657131009,0.036723997953412794
0.35000000000000003,-0.0013999999999999167,0.755,0.006981987957528283,1.0259832569963248,0.016052771838722897,0.036723997953412794
0.35100000000000003,0.00010000000000098255,0.7549999999995559,0.006982562756875661,1.023793212253931,0.01605607681649973,0.03647805566312779
0.352,0.0178,-1.245,0.007015544419183608,1.018396163492553,0.016245714576994755,0.03587196643241079
0.353,0.0156,-0.24499999999977795,0.006987865633869499,1.0259832569963248,0.016086567266250337,0.036723997953412794
0.354,0.0091,0.755,0.006873087900120382,1.018396163492553,0.015426618953771499,0.03587196643241079
0.355,0.0072,-0.2449999999995559,0.006874117830750907,1.0259832569963248,0.015432540842620352,0.036723997953412794
0.356,0.0054,1.755,0.006925445527263032,1.0259832569963248,0.015727664518529867,0.036723997953412794
0.357,0.0039,1.7549999999997778,0.006929220414384834,1.0237932122539308,0.0157493693414468,0.03647805566312776
0.358,0.0053,0.755,0.006862202515633347,1.0378490958787554,0.015364030236532978,0.03805653309957067
0.359,0.0042,-0.24500000000044408,0.0068958997559092315,1.0600299237652013,0.015557782422857486,0.04054744276237854
0.36,0.0005,-2.245,0.006878654261797654,1.0600299237652013,0.015458624386145627,0.04054744276237854
0.361,-0.0006,-0.245,0.006889658667229276,1.0600299237652013,0.015521897449284387,0.04054744276237854
0.362,-0.0014,-0.245,0.006860687666931431,1.0736114956709373,0.015355320168718992,0.0420726549352204
0.363,-0.004,0.755,0.0068551907414905145,1.0757001189069146,0.015323713980392567,0.04230720757802956
0.364,-0.0095,0.755,0.00693432475863843,1.073611495670937,0.01577871826886015,0.042072654935220374
0.365,-0.0044,-0.245,0.006925972243081487,1.073611495670937,0.01573069302592578,0.042072654935220374
0.366,0.0036,-0.245,0.0069004334381189995,1.071518801261659,0.015583850161136687,0.0418376450991556
0.367,-0.0055,1.7549999999991117,0.006895524786252457,1.0787323297638105,0.015555626424615181,0.042647725225151666
0.368,0.0057,-2.245,0.0067272801168587765,1.0849565640228878,0.014588254252129035,0.0433467074876212
0.369,-0.0081,0.754999999999778,0.006765038682857731,1.0828857943646628,0.01480535822429056,0.04311415980375977
0.37,-0.0027,-0.245,0.006757467031225675,1.0777846946379943,0.014761822787982194,0.04254130568554764
0.371,0.002,-2.244999999999334,0.006781352797273222,1.0849565640228875,0.014899161019714481,0.04334670748762118
0.372,0.0064,0.755,0.006600964081471478,1.071518801261659,0.013861963083363854,0.0418376450991556
0.373,0.0027,-0.24499999999977795,0.0065257663921440365,1.0694220117791005,0.013429591868556393,0.041602175385864575
0.374,-0.0086,0.755,0.006519806052026882,1.0694220117791005,0.01339532114135495,0.041602175385864575
0.375,0.0019,-0.24499999999977795,0.006538588464066008,1.0745628110624947,0.013503316139379546,0.04217948776911369
0.376,0.011,0.755,0.006500588930162387,1.050553872620371,0.013284826651431538,0.039483281069101824
0.377,-0.0029,0.755,0.0064909970206258145,1.033514654689145,0.013229675148562983,0.03756977482808745
0.378,-0.0047,0.755,0.006486398966755466,1.0356841427948902,0.013203237286502939,0.037813408605582736
0.379,-0.0033,-1.244999999999556,0.006529693172856687,1.0356841427948902,0.013452170048314258,0.037813408605582736
0.38,-0.0048,0.755,0.006579236782401875,1.033514654689145,0.013737035591878005,0.03756977482808745
0.381,-0.0113,0.755,0.006535489065614922,1.033514654689145,0.013485495237095788,0.03756977482808745
0.382,-0.0077,-0.245,0.00649953714149145,1.0579103634515046,0.01327877908335543,0.04030941588198795
0.383,-0.0023,2.755,0.006360440219849529,1.0652160508171713,0.01247900045286567,0.041129845459538246
0.384,-0.0016,-0.245,0.0062886240412169045,1.0652160508171713,0.0120660722275979,0.041129845459538246
0.385,0.0046,-1.245,0.00627176654851803,1.0631068303510078,0.01196914511903899,0.04089297974528016
0.386,0.017,0.755,0.006207042419310388,1.0609934168313215,0.011596994716238634,0.04065564315060272
0.387,0.0079,0.755,0.006199638077160635,1.0631068303510078,0.011554421274969735,0.04089297974528016
0.388,-0.0001,-2.245,0.006178736184210389,1.0766495888162009,0.011434239698547606,0.042413833164039884
0.389,0.0043,-0.245,0.006148104414586584,1.0787323297638105,0.011258113336655346,0.042647725225151666
0.39,0.0032,-2.245,0.006102927509433526,1.0787323297638105,0.010998355443334797,0.042647725225151666
0.391,0.0069,-1.245,0.006172004088085563,1.0766495888162009,0.011395531533366933,0.042413833164039884
0.392,0.0014,0.755,0.006178609659686572,1.071518801261659,0.01143351220861334,0.0418376450991556
0.393,0.0007,-0.245,0.006202273190668985,1.0930165757748282,0.011569572634525476,0.04425184778527086
0.394,0.0,0.755,0.006202494977140189,1.0588757851513269,0.011570847861022991,0.040417832856010874
0.395,-0.004,0.755,0.006203405817894656,1.0588757851513269,0.011576085007629851,0.040417832856010874
0.396,-0.0047,0.755,0.006176126300766604,1.0640675373399524,0.011419233406663004,0.041000867256699484
0.397,0.0033,-0.245,0.006159218896479864,1.056753909952679,0.011322019316761028,0.040179546013759414
0.398,-0.0032,0.755,0.006181946725520546,1.056753909952679,0.011452699649363617,0.040179546013759414
0.399,-0.0007,-0.245,0.006182580546163205,1.056753909952679,0.011456343987423569,0.040179546013759414
0.4,0.0015,-0.245,0.0061124630247872975,1.0588757851513269,0.011053182691275525,0.040417832856010874
0.401,-0.0068,0.755,0.0061196697344469515,1.0806251069825958,0.01109461978645994,0.04286028433646852
0.402,0.0034,-1.245,0.006158303239568483,1.078546021114347,0.011316754478244559,0.042626802741212416
0.403,0.0045,-0.245,0.005895942973056087,1.0713312381523994,0.009808237020278228,0.04181658173922905
0.404,-0.0016,-1.245,0.005741985507707556,1.0847713243814487,0.00892301332634845,0.04332590505341281
0.405,0.0107,0.755,0.005696110584870937,1.0847713243814487,0.00865924197521427,0.04332590505341281
0.406,0.0027,-0.245,0.005669989918254099,1.0918973047043943,0.008509053525838849,0.044126153508261975
0.40700000000000003,-0.007799999999999944,1.755,0.005810295731108801,1.0785460211143485,0.009315783031640273,0.04262680274121259
0.40800000000000003,-0.006799999999999655,-2.245,0.005886110735478877,1.0671328021769533,0.009751703680709479,0.04134509686979776
0.40900000000000003,-0.0005999999999997002,-0.245,0.005881024227211238,1.0671328021769533,0.009722457306539244,0.04134509686979776
0.41000000000000003,0.0047999999999997385,-0.245,0.0058688933938438595,1.0743757793725945,0.009652707514935391,0.04215848408764568
0.41100000000000003,9.999999999975576e-05,1.755,0.005923131203475661,1.0503625658131566,0.009964563741486224,0.03946179729144074
0.41200000000000003,-0.004300000000000505,0.755,0.005939045672289298,1.0577203871922078,0.010056068657069536,0.04028808152501945
0.41300000000000003,-0.013399999999999518,-0.245,0.0059560363108807895,1.0577203871922078,0.010153761327068599,0.04028808152501945
0.41400000000000003,-0.004700000000000061,0.755,0.0059515953905401875,1.079492987908371,0.010128226950418165,0.042733147227075094
0.41500000000000004,-0.005799999999999861,-0.245,0.005876141463795545,1.0845860531023872,0.009694382423274311,0.043305099066295566
0.41600000000000004,-0.0032999999999996556,-1.245,0.005859553320622171,1.086653582685751,0.009599004018972008,0.043537282889356974
0.417,0.0029,1.755,0.0058494347840436,1.0887171859318387,0.009540824519153864,0.0437690257842659
0.418,0.0083,-0.245,0.0058399120006899586,1.0774117173874658,0.009486070477589724,0.042499420295060625
0.419,0.0014,0.755,0.005884319701254211,1.0534677086284785,0.009741405603063651,0.03981050520634279
0.42,0.0057,-1.245,0.005846354805973912,1.05346770862848,0.009523115280060463,0.039810505206342967
0.421,0.0049,-0.245,0.005841268107835509,1.05346770862848,0.009493867814172467,0.039810505206342967
0.422,0.01,-0.245,0.006000800787246649,1.0429528377837736,0.010411147839867515,0.03862968393473204
0.423,0.0034,-0.245,0.005996674717600066,1.0429528377837733,0.010387423789814528,0.03862968393473202
0.424,0.0056,-1.245,0.006007617174672006,1.0451027337160645,0.010450340662653154,0.03887111750877133
0.425,0.0019,-0.245,0.005948888823519112,1.0503625658131877,0.010112664747891374,0.03946179729144423
0.426,-0.0047,-1.245,0.005983659099162857,1.0503625658131883,0.010312586666420197,0.039461797291444306
0.427,-0.0039,0.755,0.005882579376618136,1.0482234577999587,0.009731399095100587,0.039221575202024496
0.428,0.0083,0.755,0.005877790226492275,1.053467708628496,0.009703862468957767,0.039810505206344764
0.429,-0.0084,-0.245,0.005920383852525548,1.053467708628493,0.009948767039773354,0.03981050520634442
0.43,-0.0019,-1.245,0.006096308292342032,1.0534677086284985,0.010960296309330538,0.039810505206345034
0.431,-0.0077,-2.245,0.006078494597424849,1.0586859821325,0.01085787123509703,0.04039651795396817
0.432,-0.0095,-1.245,0.006008797716701506,1.0804391247197431,0.010457128536003939,0.04283939850578526
0.433,-0.0142,-0.245,0.006065519617031367,1.080439124719742,0.01078326777207831,0.04283939850578514
0.434,-0.0037,-0.245,0.006100397560828084,1.0596506971854445,0.01098380876029548,0.04050485557146096
0.435,-0.0001,-0.245,0.006107255121346563,1.0596506971854442,0.011023238319880476,0.04050485557146094
0.436,0.001,0.755,0.006142160506133053,1.0523063727950916,0.01122393708813304,0.03968008705135066
0.437,-0.0001,1.755,0.005914074757237215,1.0501712241561365,0.009912491042218769,0.03944030960014225
0.438,-0.0009,0.755,0.005866947517713289,1.0480317256009164,0.00964151912824473,0.03920004365280952
0.439,-0.0016,-0.245,0.005878515642660573,1.030950823291583,0.009708033462411598,0.03728185625107618
0.44,-0.0093,-0.245,0.005904353266255222,1.030950823291583,0.009856594472746786,0.03728185625107618
0.441,0.0038,0.755,0.005895943195198292,1.005901488419577,0.009808238297550126,0.034468812905759115
0.442,0.0056,-2.245,0.005856988329148325,0.9981617637358607,0.009584255846661975,0.0335996408847309
0.443,0.0008,-0.245,0.005856054420474773,0.9959105403622965,0.00957888606427485,0.03334682822674275
0.444,0.0022,-0.245,0.005857066416290349,1.0036676253746344,0.009584704831634245,0.034217949814781476
0.445,0.0011,-1.245,0.005912977507959531,1.00914344761586,0.009906182085023649,0.034832885316842796
0.446,-0.0025,-0.245,0.006014489291199248,1.0069167769416,0.010489853916288436,0.03458282992996545
0.447,-0.008,-0.245,0.005997908034479957,1.0069167769416,0.010394515107677754,0.03458282992996545
0.448,-0.0032,-1.245,0.006042247714116782,1.00914344761586,0.010649459126838614,0.034832885316842796
0.449,-0.0007,0.755,0.006036424099336943,1.01458971683478,0.010615974542146583,0.03544450201091356
0.45,0.0033,-2.245,0.006078939182942963,1.0287713535407208,0.01086042751019367,0.03703710153362322
0.451,0.0069,-0.245,0.006128408825404109,1.028771353540721,0.011144867758269363,0.03703710153362324
0.452,0.0004,-0.245,0.006118823134470145,1.0265872567329302,0.011089752011084104,0.03679182719711579
0.453,0.008,1.755,0.006158873530573924,1.0212049745499534,0.011320033533984458,0.03618739625494487
0.454,0.0055,0.755,0.0061467601106815276,1.0234005580539494,0.0112503838662727,0.036433960548829816
0.455,0.0047,-1.245,0.006156309163917363,1.0157941742325067,0.011305288954245032,0.03557976272281293
0.456,0.0138,-0.245,0.006117863385182549,1.0212049745499538,0.01108423365049218,0.036187396254944916
0.457,0.0102,0.755,0.006112636961583144,1.021204974549954,0.011054182792001923,0.036187396254944944
0.458,0.0047,0.755,0.0060625389907558004,1.0069167769415923,0.010766129785323928,0.03458282992996457
0.459,-0.0018,-1.245,0.0060255209741262505,0.9812540955560757,0.010553283819403531,0.031700907696764036
0.46,-0.008,-0.245,0.00611410006021557,0.9835388666571018,0.011062595307582431,0.031957487768616434
0.461,0.0044,-1.245,0.006109694420922696,0.9858183424975923,0.011037263789684733,0.03221347318206823
0.462,-0.0047,-0.245,0.0061110970740733276,0.9710095777311222,0.011045328756203204,0.030550447102072813
0.463,0.0033,-2.245,0.006145718939064956,0.9710095777311222,0.011244397344070935,0.030550447102072813
0.464,-0.0011,-1.245,0.006021061806125459,0.9710095777311221,0.010527644522467992,0.030550447102072803
0.465,0.0,0.755,0.006002623585754397,0.968695255416278,0.010421628555594196,0.030290548425323246
0.466,-0.001,0.755,0.005986413615900701,0.968695255416278,0.010328424569935598,0.030290548425323246
0.467,0.0044,0.755,0.005983393820392861,0.968695255416278,0.010311061368168726,0.030290548425323246
0.468,0.0092,-0.245,0.005982919521858577,0.9800071883143268,0.010308334249353188,0.03156087986223061
0.46900000000000003,-0.004599999999999678,0.755,0.0059289154575298975,0.9800071883143268,0.00999782201011859,0.03156087986223061
0.47000000000000003,0.0012000000000007048,-0.245,0.006065783796313939,0.9800071883143266,0.010784786748503706,0.0315608798622306
0.47100000000000003,0.01389999999999956,1.755,0.006062163858236483,0.972061310477542,0.010763972850655569,0.030668556817100602
0.47200000000000003,0.005999999999999417,0.755,0.006053819341912389,0.9800071883143266,0.010715993601661377,0.0315608798622306
0.47300000000000003,-0.004499999999999639,0.755,0.005991656563969713,0.9800071883143266,0.010358570440720269,0.0315608798622306
0.47400000000000003,0.001999999999999517,-1.245,0.005982290513697859,0.9800071883143268,0.010304717582072504,0.03156087986223061
0.47500000000000003,-0.006699999999999579,-0.245,0.005959452828459549,0.974367637756345,0.01017340559897577,0.030927557650332733
0.47600000000000003,0.0009000000000000444,-0.24500000000022204,0.005970639975906525,0.9766685188365827,0.010237729391038274,0.031185946874805186
0.47700000000000004,0.0016999999999994337,-1.245,0.005955416278785785,0.9710095777311222,0.010150196270315734,0.030550447102072813
0.47800000000000004,-0.008500000000000356,0.7549999999995559,0.005968994703522806,0.9686952554162781,0.010228269413935254,0.030290548425323256
0.47900000000000004,-0.01489999999999924,-1.245,0.0059625770758255535,0.9686952554162781,0.010191369377398752,0.030290548425323256
0.48,-0.0012,-1.2450000000002222,0.005909165327122334,0.9710095777311222,0.009884262830929717,0.030550447102072813
0.481,-0.0066,-2.245,0.005912183411202659,0.9710095777311222,0.009901616192341119,0.030550447102072813
0.482,-0.0113,-0.2449999999995559,0.005865035921540913,0.9595915843544212,0.009630527844248324,0.02926820506054467
0.483,-0.0069,1.755,0.005802517059810473,0.9595915843544212,0.009271057274919196,0.02926820506054467
0.484,-0.0033,-0.245,0.00562580583845293,0.9595915843544212,0.00825500417366268,0.02926820506054467
0.485,0.008,-0.245,0.005619975982531298,0.9595915843544212,0.008221483703691688,0.02926820506054467
0.486,0.0037,-0.245,0.005644083113792566,0.959591584354421,0.00836009473977779,0.029268205060544658
0.487,0.0026,-0.245,0.005648268111882148,0.959591584354421,0.008384157616232416,0.029268205060544658
0.488,0.0037,-1.244999999999778,0.005652987648701012,0.9443716452778006,0.008411293980207846,0.02755900405563232
0.489,0.007,-0.245,0.005732992924177017,0.9419918801269659,0.008871307824488861,0.027291756140460952
0.49,0.0005,-0.245,0.005754379731388854,0.9419918801269659,0.00899427755797056,0.027291756140460952
0.491,0.0013,-0.245,0.0056787406501057295,0.968695255416278,0.008559368430392214,0.030290548425323246
0.492,-0.0009,-0.24500000000022204,0.005671123072448429,0.9663753906668175,0.008515568928904406,0.030030027332493815
0.493,0.0013,-1.245,0.005644225675284676,0.939606087701422,0.008360914438974399,0.02702383136160846
0.494,-0.0081,-1.244999999999778,0.005654593925627615,0.941991880126966,0.008420529741469713,0.027291756140460963
0.495,-0.0117,-0.245,0.005655506576718801,0.941991880126966,0.008425777297139584,0.027291756140460963
0.496,-0.0015,0.755,0.005762614931094099,0.9361233394079351,0.009041628258937366,0.026632718305694296
0.497,-0.008,0.755,0.005845270299418394,0.9385179853171851,0.009516879590891422,0.026901637331841154
0.498,-0.0018,-1.244999999999334,0.005866099760910691,0.9385179853171851,0.009636644701359024,0.026901637331841154
0.499,-0.0072,1.755,0.0058979427790063,0.9326275854396309,0.009819735492316484,0.02624014471092018
0.5,-0.0079,-0.245,0.005904698613569877,0.9326275854396309,0.0098585801486273,0.02624014471092018
0.501,0.0059,-0.245,0.0058960644157877405,0.9073375996075815,0.009808935290954952,0.0234000762335925
0.502,0.0078,0.755,0.005884228406634906,0.9073375996075815,0.009740880677819178,0.0234000762335925
0.503,0.0023,0.755,0.0059004379614237224,0.9073375996075815,0.009834082276940269,0.0234000762335925
0.504,0.0038,-0.24500000000022204,0.005982217111232614,0.9194047590389077,0.010304295533026163,0.024755219701817203
0.505,0.0082,-1.245,0.006025914315817073,0.9194047590389077,0.010555545453054998,0.024755219701817203
0.506,-0.0009,-0.245,0.006093422815619763,0.9133911075232339,0.010943705412896562,0.024079885906981503
0.507,0.0002,-0.245,0.0059606984829763425,0.9218428353699757,0.010180567855708304,0.025029015969603555
0.508,0.0013,-0.245,0.005880205962872753,0.9194047590389078,0.009717752455243565,0.024755219701817214
0.509,0.0104,0.755,0.005861560845980124,0.9194047590389078,0.009610546876013733,0.024755219701817214
0.51,0.0042,0.755,0.005858903824047085,0.9109304106917038,0.00959526954753153,0.023803549354248738
0.511,-0.0013,-0.245,0.005816867799773126,0.9109304106917038,0.009353571071905964,0.023803549354248738
0.512,-0.0078,0.755,0.005842527881305205,0.9023764820198497,0.009501111251974167,0.022842942126566727
0.513,-0.0053,-0.245,0.006004019250535867,0.9048604408869271,0.010429653340430348,0.023121891008713785
0.514,0.0002,-0.245,0.006050996000636377,0.8787717132570756,0.010699759971236776,0.020192123730583017
0.515,0.0038,-0.245,0.006066776906548532,0.8724780389098077,0.010790496927664914,0.019485343337784632
0.516,-0.0027,-1.245,0.00606819570963258,0.8864011679592192,0.010798654752971905,0.021048912419301773
0.517,0.0028,-2.245,0.0060676603060750975,0.8838653338489433,0.010795576292867192,0.020764137941049594
0.518,0.0021,-0.245,0.006051780777599377,0.8813222033968847,0.010704272277025426,0.020478544082729967
0.519,0.0129,0.755,0.005995581267174274,0.8900784931795488,0.010381136675234813,0.02146187648770805
0.52,0.0053,-0.245,0.005996957694524729,0.8900784931795487,0.01038905084880761,0.02146187648770804
0.521,-0.0037,-1.245,0.006001363183329744,0.8925966761087226,0.01041438150143113,0.021744668736180882
0.522,0.005,-0.245,0.005894215382495136,0.8762137991616041,0.009798303730622536,0.019904869667314452
0.523,-0.0005,-0.245,0.0058638052378863865,0.8762137991616041,0.009623451666888215,0.019904869667314452
0.524,0.002,0.755,0.005846949540269022,0.8736483959017197,0.009526534879678004,0.019616774569973662
0.525,-0.0041,0.755,0.00585732726025366,0.8736483959017197,0.009586204630661324,0.019616774569973662
0.526,-0.002,0.755,0.005822852519851747,0.8736483959017197,0.009387981978860939,0.019616774569973662
0.527,-0.0056,-0.245,0.0058315894971289585,0.873648395901719,0.009438217797446321,0.01961677456997359
0.528,-0.0078,0.755,0.005831887487589573,0.873648395901719,0.009439931181176715,0.01961677456997359
0.529,-0.0027,0.755,0.00580277955639548,0.8799336993788369,0.009272566576180414,0.0203226149130385
0.53,0.0027,-1.245,0.005620170667032475,0.8710754373084395,0.008222603099447476,0.019327831007775853
0.531,0.002,1.755,0.005626404983968791,0.8621261622649248,0.008258449136890358,0.018322826334589686
0.532,0.0042,-1.245,0.005715080960070604,0.8320094494780546,0.008768317722671313,0.01494071583461751
0.533,0.0002,-0.245,0.005604859910766166,0.8412791580927308,0.008134569406581475,0.015981705236722744
0.534,0.0027,-0.245,0.005562074375263818,0.823876457657388,0.00788856139587273,0.014027379866395377
0.535,-0.0052,-0.245,0.005554196646695141,0.8542799383825878,0.007843266080263622,0.017441694440634994
0.536,0.0024,0.755,0.005625666590309145,0.8542799383825879,0.008254203525536038,0.017441694440635005
0.537,-0.0023,-0.245,0.005764115842342935,0.8542799383825878,0.00905025818926876,0.017441694440634994
0.538,0.0096,-0.245,0.0058005480826061485,0.8542799383825878,0.009259736061815762,0.017441694440634994
0.539,-0.0052,-0.245,0.00581867866151452,0.8451528354697319,0.009363983153686369,0.016416719676146278
0.54,0.0005,-2.245,0.005776891499341022,0.8451528354697319,0.009123715583846047,0.016416719676146278
0.541,0.0024,-0.245,0.005803648097876783,0.8542799383825911,0.009277560510684789,0.01744169444063537
0.542,0.0009,-0.245,0.0058542502134026845,0.8633105530128771,0.00956851224547137,0.01845583355928473
0.543,-0.0035,0.755,0.0058801496476077846,0.8633105530128764,0.009717428654077006,0.018455833559284655
0.544,-0.0024,-0.245,0.005901800196645544,0.8542799383825904,0.009841914848698528,0.017441694440635293
0.545,-0.0111,0.755,0.005850656721550404,0.8451528354697345,0.009547850407967217,0.01641671967614658
0.546,-0.0101,0.755,0.005733508749947144,0.8451528354697345,0.008874273716351412,0.01641671967614658
0.547,-0.0094,-0.245,0.005731525194398678,0.8424928564225148,0.008862868680773869,0.016118003706413326
0.548,-0.0069,0.755,0.005766395559332387,0.8424928564225148,0.009063366092090809,0.016118003706413326
0.549,-0.0029,0.755,0.005774855570390123,0.8332366502396238,0.009112009411999081,0.015078530629035799
0.55,0.0008,0.755,0.005811373911295868,0.8156623755840533,0.00932198234549463,0.013104937452960068
0.551,0.0058,-0.245,0.005760774897941479,0.8251157547664795,0.009031048447554865,0.014166553082108036
0.552,0.0044,-0.245,0.005793482572872138,0.8251157547664788,0.0092191108371014,0.014166553082107961
0.553,0.0127,-2.245,0.005765201661711198,0.8251157547664788,0.009056501426840504,0.014166553082107961
0.554,0.0091,0.755,0.005771822334724525,0.8223909694204405,0.009094568932095223,0.013860559357154554
0.555,0.0102,0.755,0.0057845261466855915,0.8223909694204398,0.009167613232517462,0.013860559357154467
0.556,0.0055,-1.245,0.0058807035459542195,0.8156623755840497,0.009720613455406275,0.013104937452959669
0.557,-0.0029,-0.245,0.0060009521931767345,0.8156623755840497,0.010412018392759575,0.013104937452959669
0.558,0.0003,0.755,0.006025963348990844,0.8184095631913011,0.01055582738369806,0.01341344695456533
0.559,-0.0004,-0.245,0.006040544514746224,0.8184095631913011,0.010639666081500469,0.01341344695456533
0.56,0.0039,-0.245,0.0059514165606536,0.8156623755840485,0.01012719871542851,0.013104937452959532
0.561,-0.007,-0.245,0.0059840047883984926,0.8223909694204367,0.010314574308275875,0.013860559357154119
0.562,-0.0146,0.755,0.005983224600072658,0.8223909694204359,0.010310088386205174,0.013860559357154032
0.5630000000000001,-0.00819999999999959,0.755,0.005969858312270391,0.8223909694204359,0.010233234986237424,0.013860559357154032
0.5640000000000001,-0.004499999999999644,0.755,0.005961077077362207,0.8223909694204359,0.010182744695395795,0.013860559357154032
0.5650000000000001,-0.0012999999999999223,1.755,0.005970805485577995,0.8223909694204359,0.010238681037536407,0.013860559357154032
0.5660000000000001,-0.0005999999999999222,-0.245,0.005972951143376728,0.8317678789209851,0.010251018127642453,0.014913587431749293
0.5670000000000001,0.0001000000000004441,-0.245,0.005986163851642039,0.8223909694204324,0.010326988476926636,0.013860559357153645
0.5680000000000001,0.004100000000000078,-1.245,0.005984943658892502,0.8005098430149606,0.010319972620107958,0.01140330620702141
0.5690000000000001,0.004799999999999755,0.755,0.006017470633054528,0.8005098430149606,0.010506996017478678,0.01140330620702141
0.5700000000000001,0.0026000000000006105,0.755,0.005885428441213966,0.7977010132777023,0.009747780629312365,0.01108787428673703
0.5710000000000001,0.008099999999999066,-0.245,0.005898529545579777,0.7977010132777023,0.009823109279176847,0.01108787428673703
0.5720000000000001,-0.00029999999999987784,0.755,0.005888034938682834,0.7907623606010833,0.009762767452539069,0.010308662749298456
0.5730000000000001,0.0007999999999994672,-0.245,0.005868338123504067,0.7907623606010833,0.009649514824927097,0.010308662749298456
0.5740000000000001,-0.003999999999999311,-1.245,0.005868433924557062,0.8088778123440588,0.00965006566123648,0.012343030177949812
0.5750000000000001,0.0021999999999993895,-0.245,0.0058748425676947765,0.8060981411236143,0.009686914038407424,0.012030872762641389
0.5760000000000001,-0.0032999999999994336,-0.245,0.005912273489502549,0.803308851528093,0.00990213412399965,0.011717635202644842
0.577,0.0018,-1.245,0.00603987080179511,0.8101400536847043,0.01063579237088901,0.012484780033649783
0.578,-0.0062,-1.245,0.006014913169294363,0.8101400536847043,0.01049229112797079,0.012484780033649783
0.579,-0.0037,-0.245,0.005978821138802835,0.8073647282391593,0.010284769391491116,0.012173110649389826
0.58,-0.0029,-0.245,0.005988212799469575,0.8141619003893255,0.010338769504630975,0.01293643390654217
0.581,-0.012,-0.245,0.005988784038799939,0.8045798296161307,0.010342054013043726,0.011860366196136972
0.582,0.0018,-1.245,0.006028779197691244,0.7961666883802744,0.010572017933357169,0.010915569414598994
0.583,-0.0,-0.245,0.0061685529373726984,0.8045798296161202,0.011375688128076813,0.011860366196135787
0.584,0.0015,-2.245,0.006173637826228202,0.8141619003893047,0.011404925190961042,0.012936433906539839
0.585,0.012,-0.245,0.00617037466978501,0.8317678789209475,0.011386162713974465,0.014913587431745067
0.586,0.0131,-0.245,0.006150991312903254,0.8317678789209483,0.011274712406964128,0.014913587431745154
0.587,0.007,-0.245,0.006148954423488366,0.8383672226688763,0.011263000712647181,0.015654694535323994
0.588,0.0059,-0.245,0.006215905909276859,0.8383672226688763,0.011647957956712016,0.015654694535323994
0.589,-0.0006,-0.245,0.006141584080612568,0.847567400190664,0.011220622760196012,0.016687875587261758
0.59,0.0056,-1.245,0.006178346061708256,0.856668778283881,0.011431996574567607,0.017709961451383878
0.591,0.0078,-1.245,0.006189754035439028,0.8263531932808907,0.011497590072247934,0.014305517577412614
0.592,0.0056,-0.245,0.006189376334846243,0.8263531932808907,0.01149541837168643,0.014305517577412614
0.593,-0.0052,-0.245,0.0061923429546484245,0.8263531932808907,0.011512475824105693,0.014305517577412614
0.594,0.0024,-0.245,0.006183374951034472,0.8236325017056826,0.011460911651700365,0.013999983583420117
0.595,-0.0012,-0.245,0.00618328026368478,0.8329954355735674,0.011460367218955431,0.015051442192771521
0.596,-0.0001,-0.245,0.006164461572022571,0.8302965093909724,0.011352163620575622,0.014748352455010246
0.597,-0.0102,0.755,0.006188968250414333,0.8275887815378296,0.011493071970312307,0.014444274288578545
0.598,-0.0036,-0.245,0.0061593499098504855,0.8275887815378296,0.011322772616639235,0.014444274288578545
0.599,-0.0097,-0.245,0.006123052256550673,0.8248721653369723,0.011114068591392376,0.01413919795962011
0.6,-0.002,-1.245,0.006116405407362738,0.8526117420074705,0.011075850578528772,0.017254355785310056
0.601,-0.0085,-0.24499999999977795,0.006250213060174674,0.8526117420074705,0.01184521700340533,0.017254355785310056
0.602,0.0053,0.755,0.006326689274083518,0.8526117420074705,0.012284939471042049,0.017254355785310056
0.603,0.0036,-0.245,0.006503502173608707,0.8694394671097818,0.013301577200805872,0.01914411135597727
0.604,0.0054,-0.245,0.006541001560155418,0.8694394671097818,0.013517190944535884,0.01914411135597727
0.605,0.0134,0.754999999999778,0.006503368853828592,0.8668540158461385,0.013300810639548449,0.01885376486538197
0.606,0.012,-0.245,0.006438211563517485,0.8642608301948049,0.012926169649681027,0.018562549802110653
0.607,0.0055,0.754999999999778,0.006415429013273603,0.8552402497477404,0.012795174681438502,0.017549537523454485
0.608,0.0044,-0.245,0.00648049873832702,0.8578607037090237,0.013169312189122083,0.01784381482124157
0.609,-0.001,-0.24500000000022204,0.0064855996491978785,0.884566379888728,0.013198641375292343,0.020842865496374072
0.61,-0.0075,-1.245,0.006489240473418535,0.884566379888728,0.013219575364159087,0.020842865496374072
0.611,0.0009,-0.24499999999977795,0.0065112443825704825,0.884566379888728,0.01334609330660694,0.020842865496374072
0.612,-0.0067,0.755,0.00649765818413542,0.8871002100152008,0.013267975465825902,0.021127414927002024
0.613,-0.0042,-0.245,0.006334420896389746,0.884566379888728,0.012329394705755706,0.020842865496374072
0.614,-0.0034,-0.245,0.006444191228549912,0.884566379888728,0.012960551491162271,0.020842865496374072
0.615,-0.0041,-1.244999999999778,0.006501328259395183,0.884566379888728,0.013289077642138642,0.020842865496374072
0.616,-0.0048,-0.245,0.006522497170284584,0.8706139088309384,0.013410794516676447,0.019276001303756053
0.617,-0.0025,-1.244999999999778,0.006537116822496557,0.8731882273768065,0.013494854503671909,0.019565097588794485
0.618,0.0066,-0.245,0.006539555155659358,0.8757549786378684,0.01350887441679869,0.019853344066831063
0.619,0.003,-0.245,0.0065271288533339114,0.8668540158461386,0.013437425739584384,0.018853764865381983
0.62,0.0066,-0.245,0.006530986839094012,0.8642608301948049,0.013459608362544262,0.018562549802110653
0.621,0.0012,0.754999999999778,0.006597375011232111,0.8642608301948049,0.013841326669222625,0.018562549802110653
0.622,-0.0013,-0.245,0.006572270727970163,0.8642608301948049,0.013696982214653356,0.018562549802110653
0.623,-0.0006,1.7549999999995558,0.006749934258030983,0.8642608301948049,0.014718510894675525,0.018562549802110653
0.624,0.0034,-0.245,0.0067786997835932086,0.8642608301948049,0.01488390673786104,0.018562549802110653
0.625,-0.0078,-0.24500000000022204,0.006766821303693977,0.8552402497477405,0.014815607926687032,0.0175495375234545
0.626,-0.0125,-1.245,0.006806836917722726,0.8552402497477405,0.015045689459824816,0.0175495375234545
0.627,0.0012,-0.245,0.006910708993329112,0.8578607037090237,0.01564293248572344,0.01784381482124157
0.628,-0.0042,-0.245,0.006911859461099883,0.8487721067210593,0.015649547438285068,0.016823164276790026
0.629,-0.0043,-1.244999999999778,0.006957762041038341,0.8395851304824719,0.015913477812054478,0.015791465730557338
0.63,-0.0028,-0.245,0.0069513730077517336,0.842254292661565,0.015876742187485655,0.016091212967114153
0.631,-0.0072,-1.244999999999334,0.006948715172010552,0.8449150227605124,0.015861460179774363,0.01639001328004755
0.632,-0.0137,1.755,0.006845557439603162,0.8449150227605126,0.015268324480038313,0.016390013280047563
0.633,-0.0025,-1.244999999999334,0.0068592601059004835,0.8356856453631122,0.015347111987022414,0.015353553078535724
0.634,0.0018,1.755,0.0068608733608472375,0.8383672226688763,0.015356387870461927,0.015654694535323994
0.635,-0.0018,-0.24500000000022204,0.006859712387515244,0.8101400536846807,0.015349712513088549,0.012484780033647128
0.636,0.0018,-1.245,0.0067626438631524875,0.8101400536846807,0.014791588504576268,0.012484780033647128
0.637,0.0094,-0.245,0.006648148041053449,0.819657126123267,0.014133261125981211,0.013553548423189673
0.638,0.0003,-1.245,0.006670795220096647,0.822390969420395,0.01426347773772085,0.013860559357149443
0.639,-0.0085,-1.245,0.006653908201303024,0.822390969420395,0.01416638086020269,0.013860559357149443
0.64,0.0038,-0.245,0.006654730702447205,0.8398244524561934,0.014171110072257883,0.015818341617242774
0.641,0.0023,-0.245,0.006695956847427945,0.8305385079109271,0.014408151908869828,0.0147755289181624
0.642,-0.0021,-0.245,0.006650576496567073,0.8211475600051875,0.014147224244661086,0.01372092432896101
0.643,-0.0011,-0.245,0.006687730429867594,0.8211475600051875,0.014360851703426089,0.01372092432896101
0.644,0.0024,-1.245,0.006668156694881729,0.8211475600051875,0.014248306761555526,0.01372092432896101
0.645,-0.01,-0.245,0.006679821956157538,0.8238764576573584,0.014315379609590864,0.014027379866392048
0.646,-0.0115,-0.245,0.006687950542112792,0.8265963462667864,0.014362117303469143,0.014332823687230005
0.647,-0.0072,-0.245,0.006721539446565141,0.8293073144746554,0.014555246581137176,0.014637265745890606
0.648,0.0018,-0.245,0.006707074517293013,0.8293073144746554,0.014472076219156227,0.014637265745890606
0.649,0.0006,-2.245,0.006697832897074544,0.8293073144746556,0.01441893880766943,0.014637265745890618
0.65,0.0129,0.755,0.006629520216620271,0.8320094494780267,0.014026154974829114,0.014940715834614381
0.651,0.0114,-0.245,0.006626934075361664,0.8253592723050108,0.014011285195615838,0.014193900131230654
0.652,0.0157,1.755,0.006593472119855992,0.8347028370625647,0.013818885848226038,0.015243183587141872
0.653,0.0145,-2.245,0.00657335228617649,0.8412791580927025,0.013703200951422223,0.015981705236719563
0.654,0.0058,-0.245,0.006575057953571113,0.8439429625399636,0.013713008187390066,0.016280850799341596
0.655,-0.0044,-0.245,0.006561188870194124,0.8465983854226833,0.013633263816497723,0.016579055111248703
0.656,-0.0009,-0.245,0.006433728756879163,0.8439429625399655,0.012900394435451792,0.016280850799341808
0.657,-0.0096,0.755,0.0063224212346365905,0.8465983854226852,0.012260399123898154,0.016579055111248915
0.658,0.0026,-2.245,0.00630834414320204,0.8530830099358284,0.012179458749546901,0.017307279230842743
0.659,-0.0022,-0.245,0.0062932742821204994,0.8824808312264039,0.012092810154342958,0.0206086581285592
0.66,-0.0066,-0.245,0.006293235518203636,0.8850206323366747,0.012092587269810533,0.02089387810139212
0.661,-0.0056,0.755,0.006266741946124272,0.8850206323366747,0.011940254690884292,0.02089387810139212
0.662,-0.002,-0.245,0.006271555504701173,0.8850206323366754,0.011967931660589824,0.020893878101392198
0.663,-0.0144,0.755,0.006243801295630206,0.8850206323366754,0.011808350678788897,0.020893878101392198
0.664,-0.0097,0.755,0.006240040724914187,0.887553165642021,0.011786728172254495,0.021178281898850227
0.665,-0.0054,0.755,0.006238472173795813,0.8962485814000537,0.01177770932661436,0.02215477814347647
0.666,-0.0044,0.755,0.006273733950583237,0.8962485814000569,0.011980457275417149,0.02215477814347683
0.667,0.0018,0.755,0.006256576506390794,0.9122717380368321,0.011881805507592538,0.023954180577847494
0.668,0.0007,-0.245,0.006251597117292022,0.9037305052947544,0.011853175046565202,0.022994999104619742
0.669,0.0053,-0.245,0.006229566661500564,0.9062107527390503,0.011726504466411635,0.023273531193538134
0.67,0.0097,0.755,0.006232873403821361,0.9086842303899854,0.01174551755321105,0.023551303033840742
0.671,0.0057,-0.245,0.006222208547967066,0.9086842303899854,0.011684196830158124,0.023551303033840742
0.672,0.0154,0.755,0.006247244390748751,0.9086842303899871,0.011828147766071996,0.02355130303384094
0.673,0.0063,-0.245,0.006298013126087467,0.9086842303899871,0.012120057530440629,0.02355130303384094
0.674,0.0001,-0.245,0.006329027261200784,0.8925966761087174,0.012298382415089102,0.021744668736180296
0.675,0.0077,-0.245,0.006338826401330775,0.9012434321651207,0.012354725451157983,0.022715700490409763
0.676,0.0124,0.755,0.006299618075142237,0.903730505294764,0.012129285656713146,0.022994999104620814
0.677,0.0022,-0.245,0.006190399076157603,0.8951077747287716,0.011501298923431859,0.02202666541587946
0.678,-0.0101,-0.245,0.0062808616594859186,0.8951077747287716,0.012021440132531638,0.02202666541587946
0.679,-0.0022,0.755,0.006269060001912233,0.8951077747287716,0.011953583033895845,0.02202666541587946
0.68,0.0022,0.755,0.006286996548839223,0.8864011679592163,0.012056714481864995,0.02104891241930145
0.681,-0.0014,-0.245,0.006325470115003482,0.8864011679592151,0.012277929557609956,0.021048912419301312
0.682,0.0047,-0.245,0.0062924237278621925,0.8939655122532242,0.012087919642663503,0.021898389201286835
0.683,0.0015,0.755,0.0061788682707770845,0.8776081886235119,0.011434999169082043,0.020061459773065456
0.684,0.0008,0.755,0.0062001285270135344,0.8687262140160286,0.0115572412605384,0.01906401294701106
0.685,0.0034,-0.245,0.00623487704224317,0.8518843997629576,0.011757038061171078,0.01717267516300413
0.686,-0.0042,-1.245,0.006236440613998576,0.8518843997629568,0.011766028276500433,0.017172675163004043
0.687,0.0089,0.755,0.0062430762617475145,0.842731352649856,0.01180418188339851,0.01614478686168006
0.6880000000000001,0.0034999999999994784,-0.245,0.006207147837242371,0.8453905812809959,0.011597600847620083,0.0164434185595965
0.6890000000000001,-0.0011999999999988342,1.755,0.006209951203628498,0.8361664529854,0.011613719626544821,0.015407547832854177
0.6900000000000001,0.009299999999999,-0.245,0.0061664308442052635,0.8361664529854,0.011363486529743876,0.015407547832854177
0.6910000000000001,0.0003000000000009659,-0.245,0.006165377084600604,0.8361664529854008,0.011357427629205087,0.015407547832854264
0.6920000000000001,0.008999999999998889,-0.245,0.006339027571806742,0.8453905812809973,0.012355882139932006,0.016443418559596662
0.6930000000000001,-0.0010000000000003997,-0.245,0.006346373836929376,0.8453905812809973,0.012398121650265097,0.016443418559596662
0.6940000000000001,-0.004599999999999878,0.755,0.006349610509276408,0.8453905812809973,0.012416731849157325,0.016443418559596662
0.6950000000000001,-0.0035000000000003553,0.755,0.0063464259206142265,0.8388464932737976,0.012398421120718135,0.01570851668240569
0.6960000000000001,-0.006700000000000278,0.755,0.006266979628457763,0.8388464932737976,0.011941621315313698,0.01570851668240569
0.6970000000000001,-0.009199999999999067,0.755,0.006183196678580111,0.8415179982967138,0.01145988662183112,0.01600852702060809
0.6980000000000001,-0.0008000000000001111,-0.245,0.006147426110225416,0.8415179982967138,0.011254213226382401,0.01600852702060809
0.6990000000000001,-0.0017999999999997113,0.755,0.00614845502467077,0.8441810490865503,0.011260129272375966,0.0163075879474099
0.7000000000000001,0.0007999999999993228,0.755,0.00616327790638448,0.8134001770321891,0.011345357787119236,0.012850892281117236
0.7010000000000001,-0.005299999999999545,-1.245,0.006080048777074983,0.8201473304454896,0.01086680744775685,0.013608598428050877
0.7020000000000001,-0.0011999999999994337,-1.245,0.005979428627962201,0.8201473304454896,0.010288262328949253,0.013608598428050877
0.7030000000000001,0.003899999999999933,0.755,0.0057719461776511525,0.8022863823334752,0.009095281003398344,0.011602811788034914
0.704,0.0033,0.755,0.005637115426897879,0.7698322178480601,0.008320031976227495,0.007958205178717339
0.705,0.0037,-0.245,0.005620785874187754,0.7798413565958778,0.008226140413791378,0.00908223267448809
0.706,-0.0013,0.755,0.005719987326842031,0.7897236474094815,0.008796528320366884,0.010192015131856373
0.707,-0.0035,-1.245,0.00572424230621322,0.7994837941435495,0.008820993574767063,0.011288080794273276
0.708,-0.0005,-2.245,0.005644486264063387,0.7966713468668253,0.008362412770742624,0.010972242623867968
0.709,0.001,0.755,0.00565738293152501,0.7740635226505341,0.00843656595054405,0.008433381221411781
0.71,-0.0048,-1.245,0.005714944947336508,0.776957810487621,0.00876753567748354,0.008758410096675382
0.711,-0.0026,-0.245,0.0056844220303803455,0.7798413565958648,0.008592035195994845,0.00908223267448663
0.712,-0.0032,0.755,0.005658605991397894,0.7769578104876189,0.008443598292731036,0.008758410096675145
0.713,-0.0036,0.755,0.005662015270807025,0.7798413565958627,0.008463200946654684,0.009082232674486395
0.714,-0.0031,-1.245,0.005603597687988276,0.7769578104876169,0.008127311885762482,0.008758410096674921
0.715,-0.0078,-1.245,0.005519249177917204,0.7740635226505292,0.007642325337734072,0.008433381221411233
0.716,0.0013,1.755,0.0055050151254951996,0.7740635226505292,0.007560482470055833,0.008433381221411233
0.717,0.0003,-0.245,0.005494506457362237,0.789723647409466,0.0075000597942090725,0.010192015131854628
0.718,0.004,0.755,0.005523069890019075,0.8186550755593093,0.0076642936448415196,0.013441018023280224
0.719,-0.0036,0.755,0.005636817819232044,0.8186550755593094,0.008318320793488185,0.013441018023280236
0.72,0.0055,-0.245,0.0057812470235069505,0.8186550755593093,0.009148758950092923,0.013441018023280224
0.721,-0.0057,0.755,0.005711416711645764,0.8186550755593093,0.008747249049458426,0.013441018023280224
0.722,0.0081,-0.245,0.00582512221335117,0.8213922539923191,0.009401032248681242,0.013748403493404166
0.723,0.0063,-0.245,0.005656694756757086,0.8186550755593093,0.008432609087466632,0.013441018023280224
0.724,0.0049,-1.245,0.00563323270317317,0.8213922539923191,0.008297707115069806,0.013748403493404166
0.725,0.0034,0.755,0.005641143787353004,0.8213922539923191,0.008343194218568223,0.013748403493404166
0.726,0.0045,-0.245,0.005709424439008924,0.8241203413932618,0.00873579389241939,0.014054768039523982
0.727,0.0107,-0.245,0.005673091444435736,0.8213922539923191,0.008526886662134732,0.013748403493404166
0.728,-0.0017,-0.245,0.00568524865065666,0.8213922539923191,0.00859678809221082,0.013748403493404166
0.729,-0.0064,-0.245,0.0056323684179426904,0.8307804359390142,0.00829273765313042,0.014802697465069273
0.73,-0.0075,-0.2449999999995559,0.005761122972360232,0.8583290896854927,0.009033049803721865,0.017896414623227472
0.731,-0.0032,1.755,0.005850368508726585,0.8583290896854927,0.009546193243633152,0.017896414623227472
0.732,-0.0068,-0.245,0.00587649220863107,0.8609401421584956,0.00969639913378736,0.018189636132739998
0.733,-0.0057,-0.245,0.0059444067118599895,0.8699016186904853,0.010086893529649298,0.019196011034562293
0.734,-0.0068,-0.245,0.0059770392645994205,0.8838653338489357,0.010274523982079535,0.020764137941048744
0.735,0.0023,-0.245,0.006022008659291248,0.8838653338489357,0.010533088733017518,0.020764137941048744
0.736,0.0034,-0.24499999999977795,0.0060154346658735655,0.8925966761087152,0.010495289625816728,0.021744668736180046
0.737,0.0066,0.755,0.006010224637249365,0.8864011679592116,0.010465333035054767,0.021048912419300927
0.738,0.0019,-0.24500000000022204,0.005944845743335557,0.8864011679592118,0.010089417870146028,0.021048912419300937
0.739,-0.0043,-1.245,0.00593463528374298,0.8889297681701398,0.010030709831943398,0.021332874529778677
0.74,-0.0036,-0.24500000000022204,0.0059676831284723045,0.8813222033968773,0.010220728127720631,0.020478544082729134
0.741,-0.0149,-1.245,0.005903577730853783,0.8838653338489357,0.009852135304032355,0.020764137941048744
0.742,-0.0037,-0.245,0.005905444025338844,0.8864011679592116,0.009862866112663729,0.021048912419300927
0.743,-0.0023,-0.245,0.0058994886826651645,0.8864011679592116,0.009828624119732253,0.021048912419300927
0.744,0.0013,0.754999999999778,0.005898764306714458,0.8889297681701398,0.009824459107315175,0.021332874529778677
0.745,0.0002,-0.245,0.005909118652860766,0.9147288265930656,0.009883994463545629,0.024230111920826653
0.746,-0.0053,0.754999999999778,0.005934510519597743,0.9147288265930656,0.01002999246382314,0.024230111920826653
0.747,-0.0028,-0.245,0.005918549212879844,0.9398199400212972,0.009938218239943977,0.027047847003076768
0.748,-0.0021,0.754999999999778,0.005980907474572231,0.9374286199397107,0.010296765392155205,0.026779301467780035
0.749,-0.0043,-0.245,0.005984730400832082,0.9374286199397107,0.010318746430214678,0.026779301467780035
0.75,-0.008,-1.244999999999778,0.00618743996234148,0.9374286199397107,0.011484284628885396,0.026779301467780035
0.751,0.0029,-0.245,0.006218807888649294,0.9374286199397108,0.01166464373998312,0.02677930146778005
0.752,-0.0015,-0.245,0.006205886301349782,0.9315313316476256,0.011590347276250001,0.026117035277071484
0.753,0.0075,-0.245,0.0062344962861044075,0.9231683075261861,0.01175484879184998,0.025177866653563134
0.754,0.0039,-1.245,0.006277313960295974,0.9363379871607937,0.012001041593397698,0.026656823274383144
0.755,0.0115,-1.245,0.006271246804499195,0.9363379871607937,0.011966156698053948,0.026656823274383144
0.756,0.0024,-1.244999999999778,0.00627323799223786,0.9747800432605391,0.011977605617152078,0.030973870838490146
0.757,-0.0013,-0.245,0.006273629877819473,0.9724746940457909,0.011979858878475703,0.030714979841970042
0.758,-0.0046,-1.244999999999556,0.006297552198870482,0.964466760826426,0.012117407293943632,0.029815687969847217
0.759,0.0084,0.755,0.006298283367359938,0.9458780232770938,0.01212161136205852,0.027728170487719084
0.76,0.003,0.754999999999778,0.006320722637745251,0.9435020576230974,0.012250632541866905,0.027461349256503637
0.761,0.0015,-0.245,0.006334913178982084,0.9376429688842904,0.0123322252291984,0.02680337288026291
0.762,-0.0028,0.754999999999778,0.0064036050033422715,0.9458780232770938,0.012727189061353237,0.027728170487719084
0.763,-0.0119,-0.245,0.00647974640611347,0.951686413982807,0.01316498643395566,0.028380453468692276
0.764,-0.0007,-0.24499999999977795,0.006497545611263055,0.951686413982807,0.013267328195011942,0.028380453468692276
0.765,0.0037,0.755,0.006493206497880153,0.9458780232770939,0.013242379187385082,0.027728170487719094
0.766,-0.0028,1.755,0.006446066941510536,0.9376429688842904,0.01297133645408691,0.02680337288026291
0.767,0.0059,-2.245,0.006496583390605209,0.930433786230624,0.013261795624550444,0.025993780793578992
0.768,0.0113,-0.245,0.006501769236876664,0.930433786230624,0.01329161317176829,0.025993780793578992
0.769,0.0139,-0.245,0.006490660348214692,0.92801828019705,0.013227739351589815,0.025722519172939627
0.77,0.0037,0.755,0.006528427553168866,0.9339377516841059,0.013444892995963291,0.02638727653913484
0.771,0.0128,0.755,0.006715953697236504,0.9608649851366395,0.014523129673763647,0.029411208122887222
0.772,0.0066,-0.245,0.006705340748338381,0.9735248439773886,0.014462107405010282,0.030832911806701266
0.773,-0.0036,0.755,0.0066815010019537924,0.9758277122631651,0.014325033776855001,0.03109152419459684
0.774,0.003,-0.245,0.006666304759490676,1.0127719538768116,0.014237658514755175,0.035240367010187804
0.775,0.0117,0.755,0.006648717450868929,1.0073158565805378,0.014136535115060455,0.03462764662183777
0.776,0.0106,-0.245,0.006653910443145459,1.0050851370600495,0.014166393750334634,0.03437713654903774
0.777,-0.0043,-0.245,0.006639690528343534,1.0050851370600495,0.014084632171057977,0.03437713654903774
0.778,-0.0065,-1.245,0.006563054076759872,1.0127719538768116,0.013643988369817277,0.035240367010187804
0.779,-0.0123,-2.245,0.0065756397014085765,1.0149857795747774,0.013716353117552753,0.03548897990466885
0.78,-0.0104,0.755,0.006545204950852761,1.0149857795747774,0.013541359574694276,0.03548897990466885
0.781,-0.0057,0.755,0.006504409204717729,1.0149857795747788,0.013306792442736623,0.035488979904669
0.782,-0.0101,-1.245,0.006522420821716582,1.0083297209744089,0.013410355528146468,0.034741503716279834
0.783,-0.0064,1.755,0.0064871136679950986,1.0083297209744089,0.013207346671325376,0.034741503716279834
0.784,0.0074,0.755,0.006463684641627239,1.0159919901361256,0.013072634598613712,0.035601977472789974
0.785,0.0019,-1.245,0.006428200015490285,1.0407985009893304,0.012868605311982098,0.038387751651334255
0.786,0.0034,0.755,0.006425907130806232,1.065027377724399,0.01285542169763006,0.04110865744832855
0.787,-0.0009,0.755,0.006421791183917082,1.0722845765574298,0.012831755851345931,0.0419236417577808
0.788,0.0002,0.755,0.006388837432701573,1.0701892874362846,0.012642278573879737,0.04168834053525853
0.789,0.0064,-1.245,0.006387837910874226,1.0722845765574294,0.012636531529381672,0.04192364175778075
0.79,0.0032,0.755,0.006374777066980961,1.0671328021769706,0.01256143436893633,0.0413450968697997
0.791,-0.0015,0.755,0.0063789619405628445,1.0692340808549061,0.012585496529497352,0.04158107072027623
0.792,0.0086,-0.245,0.006219901445797839,1.0619560357383915,0.011670931468196668,0.0407637453706595
0.793,-0.0004,0.755,0.006209345097265068,1.0755132849948101,0.01161023463987831,0.042286226107032004
0.794,0.0058,-2.245,0.006206880970017223,1.0755132849948101,0.011596066416078885,0.042286226107032004
0.795,-0.0065,0.755,0.006215338661995859,1.0868385015170814,0.011644696401760316,0.043558049296551236
0.796,-0.0051,-2.245,0.006239705538340419,1.0868385015170814,0.011784800918539872,0.043558049296551236
0.797,-0.0126,-0.245,0.00623340437034437,1.086838501517083,0.011748570501282049,0.04355804929655142
0.798,0.0023,-0.245,0.0062275871846011735,1.0889017543192143,0.011715122882225636,0.04378975283656152
0.799,-0.0158,0.755,0.00625593052526079,1.1000891476326042,0.011878091249236725,0.04504609846300154
0.8,0.0063,0.755,0.006252683005021515,1.1329887198369282,0.011859418677199926,0.0487407244131931
0.801,0.0035,0.755,0.006233179769927087,1.1281141979590785,0.01174727909517455,0.0481933150148936
0.802,0.0061,-0.245,0.006227154812498672,1.1408855542936636,0.011712636831751487,0.04962753988079322
0.803,0.0083,1.755,0.006270188314391965,1.1476631674042677,0.011960070598100373,0.05038866665542968
0.804,0.0018,0.755,0.0062569924276276116,1.149617261524878,0.011884196968979657,0.05060811166226096
0.805,-0.004,2.755,0.006256379035393415,1.1448135447989283,0.01188067009005791,0.05006865369111048
0.806,0.0015,-0.245,0.006182066578483362,1.1380189605338973,0.011453388779197184,0.0493056210537728
0.807,-0.0065,-0.245,0.006181688408187682,1.1311835645527308,0.011451214377940847,0.04853800525576149
0.808,0.0011,-1.245,0.006186690351289339,1.1311835645527317,0.011479974519836216,0.048538005255761595
0.809,-0.0054,-0.245,0.006169885419764174,1.1467724946713154,0.011383349627192871,0.050288643999455415
0.81,-0.0064,0.755,0.006112991454053708,1.1467724946713138,0.011056221050644025,0.05028864399945524
0.811,-0.0097,-1.245,0.006112626590056948,1.144813544798937,0.011054123157863948,0.05006865369111145
0.812,-0.0104,-1.245,0.00614648516099,1.144813544798937,0.011248802962215676,0.05006865369111145
0.8130000000000001,-0.005999999999999556,0.755,0.006140262107311691,1.1428512371151143,0.01121302168618489,0.0498482863001349
0.8140000000000001,-0.001999999999999756,0.755,0.0060297076542199,1.1448135447989412,0.010577356367034869,0.05006865369111192
0.8150000000000001,0.0002000000000008882,-0.245,0.0060632882924411295,1.1764630716235043,0.010770438115577699,0.05362289939349058
0.8160000000000001,0.008199999999998802,-1.245,0.00611303243220038,1.1764630716235043,0.011056456666541476,0.05362289939349058
0.8170000000000001,-0.0025999999999998446,-0.245,0.006115003115094677,1.1660086863802714,0.0110677876870107,0.05244887066226376
0.8180000000000001,-0.0011999999999989896,-0.245,0.006087433478976581,1.1439206533118345,0.010909267961646868,0.049968381868776925
0.8190000000000001,0.007900000000000977,-1.245,0.005984608769319239,1.1439206533118345,0.01031804707408503,0.049968381868776925
0.8200000000000001,0.016699999999998622,-2.245,0.0058253494617032985,1.1439206533118345,0.009402338879868336,0.049968381868776925
0.8210000000000001,0.0043000000000001665,1.755,0.005814071568582225,1.1419568113084708,0.009337493318883157,0.04974784217352977
0.8220000000000001,0.005799999999999844,0.755,0.005736344898947166,1.139989586230614,0.008890580988549293,0.04952692255860656
0.8230000000000001,0.004399999999999589,2.755,0.00578015540889057,1.139989586230614,0.00914248239103895,0.04952692255860656
0.8240000000000001,0.0007000000000003996,0.755,0.005770349682917359,1.1506803895495026,0.009086101487728945,0.050727501068413706
0.8250000000000001,0.004299999999999401,-0.245,0.005762615979019664,1.1506803895495026,0.009041634284293384,0.050727501068413706
0.8260000000000001,-0.0011000000000002776,-0.245,0.005643893053954531,1.1487281039106823,0.008359001934881889,0.05050825915430687
0.8270000000000001,-0.003600000000000089,-1.245,0.005595709849205352,1.1487281039106823,0.008081958438505244,0.05050825915430687
0.8280000000000001,-0.00439999999999939,0.755,0.005583858953633613,1.1487281039106823,0.008013818231528974,0.05050825915430687
0.8290000000000001,0.0011000000000000777,-0.245,0.005545786359117063,1.1419568113084642,0.007794908660114985,0.04974784217352902
0.8300000000000001,0.0017999999999991562,-0.245,0.0054237690157463245,1.1263012301659645,0.007093334084451355,0.04798971851176277
0.8310000000000001,-0.005799999999999278,-1.245,0.0053229790934167034,1.1467724946713158,0.006513812804638506,0.050288643999455464
0.8320000000000001,0.0006999999999997557,-0.245,0.005293208843250514,1.1515680397508194,0.006342640002061713,0.050827184293718596
0.833,-0.0015,-1.245,0.005195812654090775,1.1515680397508192,0.00578263198850103,0.05082718429371857
0.834,-0.0008,-2.245,0.005174937800011737,1.1457057404224056,0.005662605880015427,0.05016884736787547
0.835,-0.0015,-2.245,0.005130781453791595,1.1505057319621335,0.005408715990214059,0.05070788700016126
0.836,0.0025,-1.245,0.005142025906600654,1.1563436970971948,0.005473369276297463,0.05136349119313847
0.837,0.0011,-0.245,0.005170464057560308,1.1563436970971948,0.005636882782992628,0.05136349119313847
0.838,-0.0015,0.755,0.005170421593868863,1.1544009891007745,0.005636638625518914,0.0511453248494352
0.839,0.0014,0.755,0.005172315707715553,1.1591649750047308,0.005647529389745872,0.051680321044455343
0.84,0.0043,0.755,0.005194502811467661,1.1524550062615386,0.005775100663386818,0.05092679074048641
0.841,0.0047,-0.245,0.005262038059661754,1.1572270032703849,0.006163414420965904,0.05146268658355766
0.842,-0.0008,1.755,0.005270283071477888,1.1572270032703849,0.006210821539547972,0.05146268658355766
0.843,-0.0015,-0.245,0.005203359024823181,1.1591649750047313,0.005826022064846997,0.05168032104445539
0.844,0.0035,1.755,0.005203447850832161,1.1639094616500854,0.005826532796090902,0.0522131274703687
0.845,-0.0055,-0.245,0.005173671305299751,1.1639094616500854,0.005655323796455864,0.0522131274703687
0.846,-0.0045,0.755,0.00515994011920975,1.1639094616500854,0.005576372306542003,0.0522131274703687
0.847,-0.0008,0.755,0.0051744370872978075,1.141780819280881,0.005659726885111097,0.04972807824747862
0.848,-0.0063,1.755,0.0051399351400176615,1.1485531494441847,0.00546134779936842,0.050488611746492294
0.849,-0.0038,2.755,0.005135445372156442,1.1485531494441847,0.005435532559542285,0.050488611746492294
0.85,-0.0063,0.755,0.004901591185626041,1.1686346865293122,0.004090919186148885,0.05274377079760892
0.851,-0.0009,1.7549999999993338,0.004906882775298692,1.1686346865293122,0.004121344736129073,0.05274377079760892
0.852,0.0075,-1.245,0.004926264941411749,1.1686346865293122,0.004232788196464822,0.05274377079760892
0.853,0.0063,0.755,0.004888887475294137,1.170553771827261,0.0040178754700733845,0.05295928430940773
0.854,0.0038,0.755,0.004960228514580123,1.160046132944489,0.004428071742027875,0.05177927518799951
0.855,0.0063,-0.245,0.005129433289659054,1.1647870304052734,0.0054009643243190025,0.05231167854805016
0.856,0.0023,-0.245,0.005114084125134169,1.1455303243567023,0.005312709791882431,0.050149148122414076
0.857,-0.0028,-0.24500000000044408,0.0051352338802469494,1.1474880505697371,0.005434316524652823,0.050369001013665295
0.858,-0.0007,-2.245,0.00509380923589908,1.1474880505697371,0.00519613335759214,0.050369001013665295
0.859,0.0007,0.754999999999778,0.005094337838682687,1.140709396989391,0.005199172714648756,0.04960775739415055
0.86,-0.0029,-0.245,0.005070670526697535,1.1628584281935492,0.005063090548750169,0.05209509628567969
0.861,-0.0066,-0.245,0.005148577943400417,1.1609266220744565,0.0055110421374706476,0.051878154224123015
0.862,-0.0005,-0.245,0.005057845949523109,1.1561698950415271,0.004989351873241756,0.0513439732011999
0.863,-0.0027,0.7550000000004441,0.00498589332655487,1.1561698950415271,0.004575639121166437,0.0513439732011999
0.864,-0.0064,2.755,0.0050047051656893935,1.1561698950415271,0.0046838033189244175,0.0513439732011999
0.865,-0.0086,0.755,0.00500149032280853,1.1609266220744563,0.004665318634963432,0.05187815422412299
0.866,-0.0032,0.755,0.005005109164312789,1.1609266220744563,0.0046861262277417,0.05187815422412299
0.867,-0.001,-0.245,0.004970334759823774,1.1542268945145802,0.0044861805692035656,0.051125774006282994
0.868,-0.0018,-0.245,0.004988464051741608,1.1542268945145802,0.0045904202611438405,0.051125774006282994
0.869,0.0022,-0.245,0.004993192463348696,1.1561698950415271,0.004617607653322395,0.0513439732011999
0.87,0.0007,-0.245,0.00495273173308562,1.1494424423953988,0.004384966793579128,0.05058847945280995
0.871,0.0086,-0.245,0.0046702988482506475,1.1270297834303349,0.0027610359173798546,0.04807153513174563
0.872,0.0097,-0.245,0.00467515447406462,1.1210391724646984,0.002788954765028164,0.04739878879347459
0.873,-0.0013,1.7549999999995558,0.0046515432750077555,1.1210391724646984,0.002653195236901921,0.04739878879347459
0.874,0.0001,-0.245,0.004631652908898082,1.0948846594422994,0.0025388297313295788,0.04446163380777911
0.875,0.0011,-0.245,0.004652835872229643,1.0928327023394366,0.002660627404513489,0.04423119877616735
0.876,-0.0076,-0.245,0.00463575671516241,1.0928327023394366,0.002562425771523256,0.04423119877616735
0.877,-0.0023,-0.245,0.004634705379141971,1.0928327023394366,0.0025563808060942157,0.04423119877616735
0.878,0.0002,-0.245,0.004630415486835027,1.0928327023394366,0.00253171480950927,0.04423119877616735
0.879,-0.0042,-1.2450000000002222,0.004652366181634916,1.0978638854354341,0.0026579267804006748,0.04479620124827227
0.88,-0.0003,-2.245,0.0048037076148396115,1.0978638854354341,0.003528108828687858,0.04479620124827227
0.881,-0.001,-1.245,0.0048147116819724275,1.0978638854354341,0.003591379946678212,0.04479620124827227
0.882,-0.0003,-1.245,0.004796108616229018,1.090776885124979,0.003484416152889327,0.04400033025355515
0.883,-0.0044,-1.245,0.00484954483155103,1.0928327023394369,0.00379166337737366,0.04423119877616737
0.884,-0.003,-1.245,0.004943529657354482,1.0877782493052726,0.004332056754744058,0.04366358308718302
0.885,0.0039,1.7549999999997778,0.004943103108025427,1.071331238152425,0.004329604184017108,0.04181658173923192
0.886,0.0064,0.755,0.005103594795266481,1.0493893121143838,0.005252398307075229,0.03935250078298544
0.887,0.0009,-0.24500000000022204,0.005161289926704027,1.041972663057656,0.005584133421428335,0.0385196101940662
0.888,-0.0014,-1.245,0.005248460738370206,1.0419726630576562,0.006085347621930425,0.03851961019406623
0.889,0.008,-0.24500000000022204,0.005246508574260983,1.0419726630576562,0.006074123080658513,0.03851961019406623
0.89,0.009,-1.245,0.00524503004016312,1.0419726630576562,0.006065621814333111,0.03851961019406623
0.891,-0.0033,0.755,0.005261934323010311,1.0398162954964207,0.00616281795660103,0.03827744985531128
0.892,-0.0019,0.755,0.0052426535768570984,1.041972663057656,0.0060519576401309545,0.0385196101940662
0.893,-0.0005,-1.245,0.0052941691137436304,1.0279731641440528,0.006348161359477955,0.036947464767534514
0.894,-0.0016,-2.245,0.005444895155426499,1.0354900888085659,0.007214805033351586,0.03779161631937429
0.895,-0.0053,0.755,0.005436104064930762,1.0235969039818398,0.007164258074912837,0.03645601022035421
0.896,-0.0064,-0.245,0.005492843307861316,1.031145731534415,0.007490497027366751,0.03730374447039409
0.897,-0.0111,-1.245,0.005648293613657898,1.0289666746217194,0.008384304246186866,0.037059036114717316
0.898,0.0008,-0.245,0.005843824505686918,1.0343085676542332,0.009508566574924701,0.037658931350390897
0.899,-0.0039,-2.245,0.00587608668514099,1.0224016387620805,0.009694067457300923,0.036321781791155854
0.9,0.0067,0.755,0.005873054806119753,0.9880925597251807,0.009676634777822529,0.0324688680526531
0.901,0.0056,0.755,0.005839600245225068,0.9880925597251806,0.009484277947921815,0.03246886805265309
0.902,-0.0006,0.755,0.005848274660695752,0.9756217527324402,0.009534154049014134,0.031068394914307736
0.903,0.0118,0.755,0.005849563412068897,0.9699567045821409,0.009541564103788092,0.03043220931969901
0.904,0.0132,-1.245,0.005937937486191598,0.9756217527324402,0.010049696815413489,0.031068394914307736
0.905,-0.0006,1.755,0.005984912648849142,0.9756217527324403,0.01031979431875005,0.03106839491430775
0.906,0.0049,0.755,0.005971017111110057,0.9779196830948249,0.010239897840728105,0.0313264527728073
0.907,0.0002,-0.245,0.005994638563911501,0.9779196830948249,0.010375716325772302,0.0313264527728073
0.908,-0.0013,-0.245,0.006009614321849431,0.9779196830948237,0.01046182384729587,0.03132645277280716
0.909,0.0023,-2.245,0.0060100447155358745,0.9514752287597447,0.010464298522285453,0.02835673734251966
0.91,0.011,-0.245,0.0060456511783763284,0.9514752287597462,0.010669028344850702,0.028356737342519832
0.911,-0.0013,0.755,0.00605178609232479,0.9595915843544313,0.010704302835601146,0.029268205060545803
0.912,-0.006,-1.245,0.0060156361271800915,0.9595915843544313,0.01049644798680652,0.029268205060545803
0.913,-0.0074,0.755,0.006030854419502379,0.9595915843544313,0.010583950031051928,0.029268205060545803
0.914,-0.0009,-1.245,0.006077795486082358,0.9572496573957481,0.010853851488969958,0.029005206378943892
0.915,-0.0019,-0.245,0.006071758526153459,0.9205154546367752,0.01081914021364292,0.02487995095221642
0.916,0.0057,-0.245,0.00608993795874547,0.926482864313216,0.010923668204125332,0.025550091782895818
0.917,0.005,-0.245,0.006087068093149861,0.9240570305378651,0.010907167068452074,0.025277670355601863
0.918,0.0025,0.755,0.006142396049131995,0.9512639966525219,0.011225291411829725,0.028333015951250134
0.919,0.0047,-0.245,0.0062172501469990055,0.9536206234697807,0.011655687046556564,0.028597665428753593
0.92,0.0026,-0.245,0.006243152086938223,0.9559714408320247,0.011804617862616926,0.028861662503754035
0.921,0.0048,-1.245,0.006317495739591224,0.9583164914922528,0.01223207854256992,0.02912501197741844
0.922,0.0034,0.755,0.006264302409151602,0.9583164914922528,0.011926227856098875,0.02912501197741844
0.923,0.0009,-1.245,0.0061924582116068185,0.9663753906668242,0.011513138527861108,0.030030027332494564
0.924,0.0045,-0.245,0.006201454937477891,0.9536206234697887,0.011564867847324993,0.028597665428754488
0.925,0.0016,-0.245,0.0062258982860582904,0.9536206234697887,0.01170541206369911,0.028597665428754488
0.926,-0.0005,-0.245,0.006227884176987625,0.9536206234697887,0.011716830527235303,0.028597665428754488
0.927,-0.003,-1.245,0.006182745810809709,0.9617188733342676,0.011457294225078647,0.02950709987108158
0.928,-0.0063,-1.245,0.006179609810882422,0.9640499434712381,0.011439262871850582,0.02976887933028791
0.929,-0.012,-0.245,0.006179793538671103,0.9663753906668247,0.011440319268767778,0.030030027332494613
0.93,-0.0037,-0.245,0.00617527892133513,0.9583164914922504,0.011414361149583482,0.029125011977418166
0.931,0.004,-0.245,0.0061939218219743365,0.9313155760670732,0.01152155398581292,0.02609280589919821
0.932,-0.0072,0.755,0.006195192806318116,0.9229505969469375,0.01152886188382995,0.025153417729099087
0.933,-0.0097,0.755,0.00620874712982038,0.9169602002070952,0.011606796450317067,0.02448069544841073
0.934,0.0005,-1.245,0.006201900722820551,0.9109304106917082,0.01156743102116548,0.023803549354249238
0.935,0.0128,0.755,0.006259444477044667,0.9023764820198534,0.011898295747741377,0.02284294212656715
0.936,0.0081,-0.245,0.0064108956997834966,0.8887036700289758,0.01276910906322136,0.021307483681093878
0.937,0.0096,-0.245,0.006509867402299231,0.9145091068897339,0.013338175953853526,0.024205437371484298
0.9380000000000001,0.0004999999999998779,0.755,0.0066116006622885,0.9145091068897331,0.01392312123078016,0.02420543737148421
0.9390000000000001,-0.0006000000000005995,0.755,0.00662888392037689,0.9218428353699678,0.014022496402575248,0.02502901596960267
0.9400000000000001,-0.005999999999999478,-0.245,0.00658204467531296,0.9242744804994371,0.0137531803973883,0.025302090012669202
0.9410000000000001,-0.0013000000000006771,0.755,0.0065499175694205495,0.9158451929677135,0.013568456160151928,0.024355480000146333
0.9420000000000001,-0.0074000000000006,-0.245,0.006552062098811938,0.9133911075232254,0.013580786762148318,0.02407988590698054
0.9430000000000001,-0.012799999999998757,-1.245,0.0065641166675122625,0.910930410691695,0.013650098047635348,0.023803549354247756
0.9440000000000001,-0.0016000000000008883,0.755,0.006583794483447762,0.9023764820198409,0.013763241433514425,0.022842942126565742
0.9450000000000001,-0.009600000000000476,-1.245,0.006690537115423444,0.882480831226414,0.014376989566892628,0.020608658128560334
0.9460000000000001,-0.01390000000000012,-0.245,0.006712715395474554,0.8799336993788217,0.014504510106071473,0.020322614913036795
0.9470000000000001,-0.01499999999999931,-1.245,0.006717675934149099,0.8887036700289523,0.014533032181044724,0.021307483681091244
0.9480000000000001,-0.00879999999999939,0.755,0.0066251311004249325,0.8799336993788185,0.01400091846133671,0.020322614913036434
0.9490000000000001,-0.0032999999999997224,0.755,0.006629424344300934,0.8799336993788192,0.014025603728752953,0.020322614913036507
0.9500000000000001,-0.0008000000000002776,0.755,0.006663821617249964,0.8595187127003449,0.014223380958665903,0.018030009432130192
0.9510000000000001,-0.00329999999999879,0.755,0.006653887521322249,0.8659065845245195,0.01416626195457554,0.018747368213014017
0.9520000000000001,0.007600000000000488,0.755,0.0066514353587605905,0.8659065845245195,0.01415216252525567,0.018747368213014017
0.9530000000000001,0.011999999999999601,-1.245,0.0066715451364234585,0.8722476762730753,0.014267789602036462,0.0194594735857301
0.9540000000000001,0.0083999999999996,0.755,0.006568322393003045,0.8722476762730753,0.013674280102374797,0.0194594735857301
0.9550000000000001,0.004800000000000111,0.755,0.006451622481493177,0.8633105530128439,0.013003279663947341,0.018455833559281
0.9560000000000001,0.0057999999999999215,-0.245,0.006453047368969773,0.8490088390374851,0.013011472473257442,0.016849749344646957
0.9570000000000001,0.005099999999999323,-0.245,0.006447481330499182,0.8463609788879761,0.012979468899255121,0.01655239432859698
0.9580000000000001,-0.0009999999999991563,-0.245,0.0064505931665077825,0.8490088390374845,0.012997361314931104,0.01684974934464688
0.9590000000000001,0.006599999999999711,0.755,0.006473420188466803,0.8490088390374845,0.013128611986369706,0.01684974934464688
0.96,0.004,-1.245,0.006550665410992324,0.8184095631912576,0.0135727560950537,0.013413446954560444
0.961,-0.0003,-0.245,0.006471419951988713,0.8184095631912569,0.013117111038884896,0.013413446954560367
0.962,-0.0043,-0.245,0.006501545798553005,0.8184095631912569,0.013290328447459615,0.013413446954560367
0.963,-0.008,-0.245,0.00647651121906866,0.8088778123440326,0.013146384775245072,0.012343030177946869
0.964,-0.0058,0.755,0.006443402711497691,0.8060981411235878,0.012956017680631461,0.012030872762638409
0.965,-0.0098,-1.245,0.0064438972437414555,0.8060981411235809,0.01295886113910619,0.012030872762637635
0.966,-0.0026,-0.245,0.006451747887206725,0.8088778123440254,0.013004000720953155,0.01234303017794607
0.967,0.0083,-2.245,0.006551147953018309,0.8088778123440254,0.013575530612247467,0.01234303017794607
0.968,0.0098,0.755,0.006533882856709275,0.8088778123440254,0.013476259866940397,0.01234303017794607
0.969,0.0061,0.755,0.006535528104500466,0.8060981411235809,0.013485719702641452,0.012030872762637635
0.97,0.0097,0.755,0.0065286945402397495,0.8060981411235808,0.013446428116592773,0.012030872762637623
0.971,-0.0026,-0.245,0.0065433739402338854,0.8156623755839965,0.013530831641021191,0.013104937452953684
0.972,0.0021,-1.245,0.006566673003231516,0.8156623755839965,0.013664796451140495,0.013104937452953684
0.973,0.0036,0.755,0.006570041701590923,0.8129059040035104,0.0136841657723923,0.012795385360027351
0.974,-0.0055,-0.245,0.006591498325889173,0.8060981411235808,0.01380753693973103,0.012030872762637623
0.975,-0.0019,-0.245,0.00657863274917107,0.8088778123440254,0.013733562525296797,0.01234303017794607
0.976,0.0014,-1.244999999999556,0.006577075976796596,0.8184095631912499,0.013724611405006398,0.013413446954559583
0.977,-0.0012,0.755,0.006666389379623999,0.8211475600051774,0.014238145063080918,0.013720924328959876
0.978,-0.0005,0.754999999999778,0.006671655814861361,0.8116479640102724,0.01426842598024272,0.012654118546163128
0.979,0.0035,-0.245,0.006645411282382258,0.8116479640102724,0.014117525327688988,0.012654118546163128
0.98,-0.0048,-0.245,0.006804063078437819,0.8116479640102724,0.015029740455646328,0.012654118546163128
0.981,-0.0016,-0.245,0.006837561713081627,0.8293073144746455,0.015222350700520559,0.014637265745889484
0.982,-0.0041,0.755,0.00682860084441442,0.8320094494780167,0.01517082755258845,0.014940715834613259
0.983,-0.0033,0.755,0.006799358735527412,0.8293073144746453,0.015002691453512945,0.014637265745889472
0.984,0.009,-0.24499999999977795,0.006740857621841617,0.8359260837430667,0.014666322107351583,0.015380554337776568
0.985,0.0144,0.755,0.006741298317804507,0.8265963462667762,0.014668856018307358,0.01433282368722887
0.986,0.013,-2.244999999999556,0.0066526003270911595,0.8238764576573483,0.01415886085304746,0.014027379866390913
0.987,0.0116,-0.245,0.0067336577698041385,0.8265963462667762,0.01462492444208127,0.01433282368722887
0.988,0.005,1.7549999999997778,0.006680141548800699,0.8439429625399529,0.014317217201418523,0.0162808507993404
0.989,0.0014,0.755,0.00668720938332041,0.8504478347680029,0.014357855793171503,0.01701134873977487
0.99,-0.0062,-0.245,0.006788303818811331,0.85690332902986,0.014939127960899311,0.01773630152861494
0.991,-0.0037,-0.245,0.006772935585028702,0.8569033290298599,0.014850763784161027,0.017736301528614926
0.992,-0.0044,-0.245,0.0067740239289655465,0.8542799383825493,0.014857021537481783,0.01744169444063068
0.993,-0.0051,-0.245,0.006742901209931107,0.8542799383825493,0.014678072317666845,0.01744169444063068
0.994,-0.012,-1.244999999999778,0.0066347469836255816,0.8621261622648883,0.014056207807832547,0.018322826334585585
0.995,-0.0076,-0.245,0.006742472026225335,0.8621261622648883,0.014675604599816733,0.018322826334585585
0.996,-0.0069,-1.244999999999778,0.006858370179709723,0.8530830099358141,0.015341995094846208,0.017307279230841133
0.997,0.0,-0.245,0.006993497526181459,0.8557100700708812,0.016118949486267548,0.01760229840274565
0.998,-0.0025,-0.24500000000022204,0.006848836991534316,0.8465983854226726,0.015287181227701431,0.016579055111247507
0.999,-0.0078,-1.245,0.006826990891257318,0.8439429625399528,0.015161570653758909,0.016280850799340385
1.0,-0.0056,-1.244999999999556,0.00682246017926501,0.8412791580926918,0.015135519993617919,0.015981705236718366
1.0010000000000001,0.0052999999999976686,0.755,0.006846691365448389,0.8412791580926918,0.015274844319937479,0.015981705236718366
1.002,-0.0052,-1.244999999999556,0.00684034674132299,0.838606892209684,0.015238364038892534,0.015681609453835368
1.0030000000000001,-0.0014999999999986233,0.755,0.00681568061236692,0.8359260837430665,0.015096538881275073,0.015380554337776556
1.004,0.0047,-0.24499999999977795,0.006710664086939444,0.8265963462667764,0.014492715504785144,0.014332823687228883
1.0050000000000001,0.0015000000000005773,0.755,0.006658043052037127,0.8412791580926918,0.014190155399699068,0.015981705236718366
1.006,0.0041,-0.24499999999977795,0.006645846370135358,0.8386068922096839,0.014120026992594362,0.015681609453835357
1.0070000000000001,-0.0019999999999983126,0.755,0.0067095253054349204,0.838606892209684,0.014486167745845806,0.015681609453835368
1.008,0.0056,-0.245,0.006690560754495438,0.8478044688971748,0.0143771254866844,0.016714498431766037
1.0090000000000001,0.010299999999998645,-0.245,0.006715869159723288,0.8478044688971746,0.014522643600486489,0.016714498431766023
1.01,0.0042,-0.24499999999977795,0.006729864889724737,0.8542799383825493,0.014603116163366629,0.01744169444063068
1.0110000000000001,0.006399999999998157,0.755,0.006722281737318465,0.8451528354696897,0.014559514599976923,0.016416719676141542
1.012,-0.0019,-0.245,0.006722795476171623,0.8478044688971746,0.014562468492497031,0.016714498431766023
1.0130000000000001,0.0034999999999989566,-0.245,0.006717623051224656,0.8478044688971746,0.014532728115128755,0.016714498431766023
1.014,-0.0012,-1.244999999999556,0.006707483872679537,0.8478044688971746,0.014474429928257433,0.016714498431766023
1.0150000000000001,-0.0037000000000019986,0.755,0.006714649276563526,0.8451528354696897,0.014515629523745213,0.016416719676141542
1.016,-0.0127,-0.245,0.006695317393166474,0.8386068922096839,0.01440447517866284,0.015681609453835357
1.0170000000000001,-0.001499999999999023,-0.245,0.006700375967258557,0.8412791580926918,0.014433560937081072,0.015981705236718366
1.018,0.0029,-0.245,0.0066683595243873335,0.8131530780731512,0.01424947298940802,0.0128231430380372
1.0190000000000001,-0.0035999999999980683,-0.245,0.00662509599710392,0.8131530780731512,0.014000716624475955,0.0128231430380372
1.02,0.0051,-1.245,0.006602235935375779,0.8131530780731512,0.01386927598117466,0.0128231430380372
1.0210000000000001,-0.007299999999997491,-1.245,0.006602235935375779,0.8199022649198575,0.01386927598117466,0.013581077539789035
1.022,0.004,-0.245,0.006617624469514167,0.8199022649198575,0.013957756880774493,0.013581077539789035
1.0230000000000001,0.005399999999999201,0.755,0.006623125799134901,0.8131530780731512,0.013989388392227133,0.0128231430380372
1.024,0.0018,0.755,0.006615365741775511,0.8199022649198575,0.013944769661818474,0.013581077539789035
1.025,0.0007,-1.245,0.00662251153705487,0.8226352935537572,0.013985856511871122,0.013887996986969423
1.026,0.0109,0.755,0.006637950806691334,0.8320094494780167,0.01407462913012791,0.014940715834613259
1.027,-0.004,-0.245,0.006649077548336144,0.8530830099358208,0.014138605601278064,0.017307279230841882
1.028,-0.0022,-1.245,0.006692276225472238,0.8504478347680096,0.01438698909122916,0.017011348739775615
1.029,-0.0189,-0.245,0.006749532749144209,0.8478044688971832,0.014716202301330663,0.016714498431766985
1.03,-0.0077,1.755,0.0067681706733344026,0.8478044688971832,0.01482336652400396,0.016714498431766985
1.031,-0.0019,0.755,0.006751217765853221,0.8478044688971832,0.014725890800112502,0.016714498431766985
1.032,0.0035,-0.245,0.006770957711917069,0.8478044688971832,0.014839391421424084,0.016714498431766985
1.033,0.0039,-1.245,0.006767578737321301,0.8621261622648967,0.014819963013931216,0.018322826334586532
1.034,-0.0009,-0.245,0.006760512124491714,0.8621261622648967,0.014779331446644643,0.018322826334586532
1.035,0.0067,-0.245,0.006705890028774774,0.8621261622648975,0.0144652656543086,0.01832282633458662
1.036,0.0132,0.755,0.006550505165760211,0.8621261622648975,0.01357183471799683,0.01832282633458662
1.037,0.0045,1.755,0.006467517798424829,0.8320094494780383,0.01309467446015659,0.014940715834615691
1.038,-0.0031,-1.245,0.006366973788165983,0.8347028370625754,0.012516567124066319,0.015243183587143081
1.039,0.0117,-1.245,0.006351988701040399,0.8265963462668027,0.012430405961636559,0.014332823687231839
1.04,-0.0039,-0.245,0.006398046512053695,0.8265963462668027,0.012695228882091963,0.014332823687231839
1.041,0.0018,-0.245,0.006381572069468539,0.8359260837430926,0.012600504232737342,0.015380554337779484
1.042,0.0036,-0.245,0.006386725079317942,0.8359260837430927,0.012630132977296229,0.015380554337779498
1.043,-0.0044,1.755,0.0063968033682121435,0.8386068922097099,0.012688081061224602,0.015681609453838275
1.044,-0.0121,0.755,0.006379759939281413,0.8478044688972004,0.012590084857655412,0.016714498431768917
1.045,-0.0158,-0.245,0.006279132875509395,0.8412791580927211,0.012011499980982374,0.01598170523672166
1.046,-0.0195,0.755,0.006234365573770523,0.8412791580927211,0.011754097222870966,0.01598170523672166
1.047,-0.005,-0.245,0.006204775248392156,0.8347028370625867,0.01158395895074026,0.015243183587144353
1.048,-0.0069,-0.245,0.006275757247092311,0.8347028370625867,0.011992090813327264,0.015243183587144353
1.049,0.0022,-0.245,0.00627737299257412,0.8347028370625861,0.012001381016830027,0.015243183587144278
1.05,-0.0058,0.755,0.006246946286199043,0.8280742904833225,0.011826433726352831,0.01449879700206333
1.051,-0.0015,-0.245,0.006253377877856089,0.8186550755593184,0.011863414052780064,0.013441018023281246
1.052,0.0049,-0.245,0.0062321601845687176,0.8186550755593184,0.011741416689508356,0.013441018023281246
1.053,0.0013,-0.245,0.006260217632421078,0.8091262169270061,0.01190274123180244,0.012370926042753286
1.054,0.0001,1.755,0.006258796181719613,0.8063474020166771,0.011894568183240996,0.012058864791174713
1.055,0.0026,-0.245,0.006241336285965527,0.8159087145995451,0.01179417738127455,0.013132601354287662
1.056,0.0109,-0.245,0.006246712151819973,0.8131530780731989,0.011825087501930084,0.01282314303804256
1.057,0.0007,-1.245,0.006244820725453872,0.8131530780731981,0.011814212190162605,0.012823143038042474
1.058,-0.0059,-0.245,0.006253209176513758,0.8131530780731981,0.011862444054832309,0.012823143038042474
1.059,0.0079,-1.245,0.006260098084266091,0.8131530780731983,0.011902053854551061,0.012823143038042486
1.06,0.0024,-0.245,0.0062146720251804975,0.8131530780731983,0.011640863377470988,0.012823143038042486
1.061,0.0009,0.755,0.006295834499399456,0.8131530780731974,0.012107530876016376,0.012823143038042387
1.062,-0.0034,-0.245,0.006276182688259649,0.8131530780731974,0.011994537012352743,0.012823143038042387
1.063,-0.0071,-0.245,0.006281487584400911,0.8307804359390293,0.012025039071784878,0.01480269746507097
1.064,0.0066,-0.245,0.006272613813509228,0.8307804359390293,0.011974016718110507,0.01480269746507097
1.065,0.0084,0.755,0.0063001948397834176,0.8213922539923383,0.01213260193452428,0.013748403493406322
1.066,0.0037,0.755,0.006310809848668244,0.8361664529853957,0.012193636047776608,0.01540754783285369
1.067,0.0051,0.755,0.006193663807147279,0.8388464932737942,0.011520070453736191,0.015708516682405315
1.068,0.0062,0.755,0.00623692839425613,0.8388464932737942,0.011768832912446082,0.015708516682405315
1.069,-0.0026,0.755,0.006242988663192303,0.8559448835274612,0.011803678209760783,0.01762866798240909
1.07,0.0097,-1.245,0.0062532619546299874,0.8559448835274612,0.011862747518122652,0.01762866798240909
1.071,-0.0052,-0.245,0.006234129510692434,0.8468357254015699,0.011752739908826382,0.016605708419673706
1.072,-0.0034,0.755,0.006203445923192486,0.8468357254015699,0.011576315604826363,0.016605708419673706
1.073,-0.0016,-1.245,0.006192402700083213,0.8468357254015685,0.011512819348041731,0.016605708419673543
1.074,-0.0063,0.755,0.006300067139407782,0.8468357254015685,0.012131867683684409,0.016605708419673543
1.075,-0.0049,-1.245,0.006349252638572848,0.8441810490865314,0.012414674166371776,0.016307587947407765
1.076,0.0041,-2.245,0.006349067479454461,0.8376275114846483,0.012413609539603779,0.015571624879587359
1.077,0.0077,-0.245,0.0062838428237911095,0.834943558461529,0.012038581212845467,0.015270216629451864
1.078,0.0088,-0.245,0.006275658556054131,0.834943558461529,0.011991523360198713,0.015270216629451864
1.079,-0.0061,-0.245,0.006351172579265261,0.8283169382401453,0.012425713429638528,0.014526046374594547
1.08,0.0005,-0.245,0.006070916422171886,0.8310222935367574,0.010814298289313016,0.014829858102639983
1.081,-0.0054,-0.245,0.006023108055157936,0.8161549792628372,0.01053941003265698,0.013160256905854218
1.082,-0.0035,1.755,0.006101129588345626,0.8134001770321655,0.010988017767644813,0.01285089228111458
1.083,0.0012,0.755,0.0060955391206031165,0.8228795451439987,0.01095587373036402,0.013915426470188156
1.084,0.0027,-0.245,0.006084491058745044,0.8134001770321655,0.010892349651771093,0.01285089228111458
1.085,-0.001,0.755,0.006084609103027891,0.813400177032164,0.010893028382067628,0.012850892281114419
1.086,0.0078,-0.245,0.0060903075424025175,0.8161549792628356,0.010925793233979304,0.013160256905854043
1.087,0.0023,0.755,0.005976895349145242,0.813400177032164,0.010273696497880095,0.012850892281114419
1.088,-0.0024,-1.245,0.005967629985907907,0.7982047017002541,0.010220422568928439,0.011144438557701218
1.089,0.0078,0.755,0.005968029051209921,0.7884287209354777,0.010222717112164577,0.010046594731714638
1.09,0.0042,-1.245,0.005894322068203268,0.781407737583319,0.009798917151455547,0.00925813744942393
1.091,-0.0045,-0.245,0.005891214702258196,0.7912704658809889,0.009781050437723534,0.01036572303387936
1.092,0.0057,0.755,0.00588853131010091,0.7912704658809889,0.009765621485887017,0.01036572303387936
1.093,0.0021,-1.245,0.005924144195860341,0.7912704658809889,0.00997038823891257,0.01036572303387936
1.094,-0.0041,0.755,0.005909824087575469,0.7727423540976573,0.00988805056775962,0.008285013832628712
1.095,0.0014,-0.245,0.005827932823054702,0.7727423540976573,0.009417192675188151,0.008285013832628712
1.096,-0.0033,0.755,0.005622952780403035,0.7756415718590342,0.008238599677913115,0.008610596338988209
1.097,-0.0094,-0.245,0.005343410792972584,0.7756415718590343,0.006631290865953529,0.008610596338988221
1.098,0.0029,-0.245,0.005402472793802744,0.778529993112351,0.00697088519759181,0.008934966396182657
1.099,0.0048,0.755,0.005428439131090649,0.778529993112351,0.007120186285134331,0.008934966396182657
1.1,0.0063,-0.245,0.005436716905642023,0.7884287209354777,0.007167781782691376,0.010046594731714638
1.101,-0.0012,0.755,0.005422538778549691,0.7884287209354777,0.007086260474132113,0.010046594731714638
1.102,0.0079,-0.245,0.005423377339433702,0.7912704658809889,0.007091082026381291,0.01036572303387936
1.103,-0.0007,-0.245,0.005494702286711481,0.791270465880989,0.00750118577260528,0.010365723033879372
1.104,0.0004,-1.245,0.005651621519977721,0.7912704658809889,0.008403439021618619,0.01036572303387936
1.105,0.003,-0.245,0.005714995766832494,0.7827142796939541,0.008767827879111166,0.009404862286968655
1.106,0.0038,-0.2449999999995559,0.005713715936260417,0.785576696329766,0.0087604691171047,0.009726312022462198
1.107,-0.0038,0.755,0.005609027052291835,0.785576696329766,0.008158529611473975,0.009726312022462198
1.108,-0.0063,-0.245,0.0056089394371765435,0.778529993112351,0.008158025842619203,0.008934966396182657
1.109,-0.007,-0.245,0.005585290480922639,0.7969235562678803,0.00802204921839203,0.011000565770206555
1.11,-0.0109,-0.2449999999995559,0.005529312522442743,0.789978074944978,0.00770018749462279,0.010220587374961858
1.111,-0.004,0.755,0.005524229291800135,0.7899780749449781,0.007670959966120938,0.01022058737496187
1.112,-0.0032,1.755,0.005528353273105278,0.7899780749449781,0.007694672008641069,0.01022058737496187
1.113,-0.001,-0.245,0.005594184911966214,0.8216368751064215,0.00807319036368156,0.013775874474197305
1.114,-0.006,-0.24499999999911182,0.005561703494531516,0.8216368751064215,0.007886428908103382,0.013775874474197305
1.115,-0.0052,1.755,0.005550746770687152,0.8216368751064215,0.007823430004263809,0.013775874474197305
1.116,0.0039,0.755,0.005492305926053211,0.8216368751064215,0.007487407192728693,0.013775874474197305
1.117,0.0075,-0.245,0.005493858244854283,0.8189005143209286,0.007496332705889945,0.013468580825988716
1.118,0.004,1.7549999999991117,0.005493858244854283,0.8189005143209286,0.007496332705889945,0.013468580825988716
1.119,0.0051,-0.245,0.005460927117737357,0.8189005143209286,0.007306985512327602,0.013468580825988716
1.12,-0.0014,-0.245,0.005497991219413373,0.8161549792628342,0.007520096457766693,0.013160256905853882
1.121,-0.0039,-1.245,0.0054159912738058116,0.8093745452722401,0.00704861367134617,0.012398813346052287
1.122,0.0015,-0.2449999999995559,0.005398056119406563,0.8535540176657465,0.006945490230124517,0.017360173456059058
1.123,0.0128,0.755,0.005387581466987168,0.8509203011409314,0.00688526313761987,0.017064406770778237
1.124,0.0081,-0.245,0.0053875814669871675,0.8417567707321024,0.006885263137619865,0.016035341194072062
1.125,0.0005,0.755,0.005361832088154942,0.8390860259197345,0.006737209516480685,0.01573541622760647
1.1260000000000001,-0.0059999999999992,-0.245,0.0053395290013488125,0.8390860259197344,0.006608971364184116,0.015735416227606457
