time_sec,bts_raw,diy_raw,bts_rms,diy_rms,bts_norm_rms,diy_norm_rms
0.0,-0.0217,-1.193,0.012548572126775362,1.288827617994498,0.08449149398190936,0.03240368930753416
0.0010000000000000009,-0.0231,-2.193,0.012566430223402977,1.2889934523851225,0.08465963377363202,0.03241364489386682
0.0020000000000000018,-0.0297,-3.193,0.012601307191112465,1.3014074172784054,0.0849880117754356,0.033158896218156014
0.0030000000000000027,-0.0108,-2.193,0.012602986271545944,1.3137040805306124,0.08500382086417882,0.03389710553740455
0.0040000000000000036,0.0244,-1.193,0.012598730995970423,1.343071250415594,0.08496375605974248,0.03566011376527949
0.0050000000000000044,0.0005,1.807,0.012614611949102612,1.3454117221556552,0.08511328040198815,0.03580062001600088
0.006000000000000005,0.0136,3.807,0.01270120330914625,1.3508128539755604,0.08592856623822927,0.036124867802751336
0.007000000000000006,0.0255,4.807,0.012854810362019308,1.3687195489883084,0.08737482663292723,0.037199865862324884
0.008000000000000007,0.0291,3.807,0.012922206266362165,1.3688757047917477,0.08800938100652411,0.03720924041109387
0.009000000000000008,0.0193,2.8069999999999964,0.01290046466665618,1.3805715630218651,0.08780467676942032,0.03791138141999991
0.010000000000000009,0.0106,0.807,0.013012614394759047,1.3858356702641148,0.08886060295899029,0.03822740316866859
0.01100000000000001,0.0026,0.807,0.013070005310083335,1.3973895843435788,0.08940095710482221,0.03892102280127311
0.01200000000000001,-0.0093,1.807,0.013038292388180583,1.4250332006385134,0.08910236962403771,0.04058056041307107
0.013000000000000012,-0.0072,2.8069999999999946,0.013426120070718013,1.452150679307134,0.09275389347486578,0.04220851224497199
0.014000000000000012,-0.0089,-0.193,0.013767554018221204,1.4543156169941618,0.09596860521135961,0.042338480606581755
0.015000000000000013,0.0002,-0.193,0.013871644914242951,1.4564773366771104,0.09694865487411361,0.0424682557807754
0.016000000000000014,-0.0012,0.807,0.013838565962258855,1.4586358526633671,0.09663720577553446,0.04259783862647264
0.017000000000000015,-0.0056,1.807,0.013932958177955245,1.4607911791546138,0.09752593920655923,0.042727229996247354
0.018000000000000016,-0.0092,-1.1929999999999932,0.014158127200311616,1.465767216664256,0.09964597883401047,0.04302595796717791
0.019000000000000017,0.0072,0.807,0.014286874404757543,1.4822858600030018,0.10085817566505119,0.04401762669908503
0.020000000000000018,-0.0083,-0.193,0.01428731909547696,1.4871899794971022,0.10086236257290049,0.044312037193948633
0.02100000000000002,0.0055,-0.193,0.01429533277981001,1.5213701211076671,0.10093781401897492,0.0463639840150202
0.02200000000000002,0.011,-1.193,0.014445157538016264,1.5234366950484344,0.10234846287842522,0.04648804727597977
0.02300000000000002,0.0063,-2.193,0.014692851762499504,1.528208764590705,0.10468058461479876,0.04677453037598448
0.02400000000000002,0.0106,-2.193,0.015042290455011868,1.5329659789191674,0.10797066363072337,0.04706012166842744
0.025000000000000022,0.0069,-2.193,0.015375054799621023,1.535016941582255,0.11110374823442035,0.047183247732813266
0.026000000000000023,0.0058,0.8070000000000035,0.015470953854586134,1.5811906306543997,0.1120066690475657,0.04995520683082499
0.027000000000000024,0.0025,1.807,0.015433251088657068,1.6260536922235922,0.11165168523585989,0.052648484629942954
0.028000000000000025,-0.0065,0.807,0.0154749427657309,1.6279873858279479,0.11204422594419736,0.05276457064531387
0.029000000000000026,-0.0076,-0.193,0.015495361492647085,1.6299187853497041,0.11223647490345208,0.05288051893932742
0.030000000000000027,-0.0108,0.807,0.01557627226141914,1.6318478989344547,0.11299827612410496,0.052996330000990535
0.031000000000000028,-0.0061,0.807,0.015647213370313464,1.63630383169158,0.11366620975235187,0.05326383436536875
0.03200000000000003,-0.0053,-0.193,0.01564783200779133,1.636434453620093,0.1136720344255435,0.05327167603127021
0.03300000000000003,-0.0009,0.807,0.015573549655861716,1.6408779312754027,0.11297264190670128,0.0535384326747388
0.03400000000000003,-0.0049,-0.193,0.01535735169953219,1.6427941757163569,0.11093706778555443,0.053653471159184306
0.03500000000000003,-0.0042,-0.193,0.015366978796299021,1.6472204977231606,0.11102771003478304,0.05391919789239633
0.03600000000000003,-0.002,-0.19300000000001388,0.01532640376875386,1.6516349573895224,0.11064568294517511,0.05418421249012228
0.03700000000000003,0.0009,-2.193,0.015333395361455561,1.6535387358305302,0.11071151106589745,0.05429850259940735
0.038000000000000034,0.0034,-1.193,0.01532989457367014,1.655440324902401,0.11067855000955532,0.054412661273630154
0.039000000000000035,0.0092,-1.193,0.015330218139861088,1.6573397321412127,0.11068159649054872,0.05452668896520634
0.040000000000000036,-0.002,1.807,0.015334449299740238,1.6592369650399081,0.1107214342378552,0.05464058612396203
0.041000000000000036,-0.0266,2.807,0.015292070387296266,1.6593657817193868,0.11032242298484496,0.054648319414799994
0.04200000000000004,-0.0375,1.807,0.01530681169990949,1.6690272445339902,0.11046121724070498,0.0552283289459249
0.04300000000000004,-0.0277,1.8069999999999722,0.015296690899108763,1.669155305651056,0.11036592660731971,0.05523601687785508
0.04400000000000004,-0.019,-2.193,0.01529654753073704,1.6692833569437562,0.11036457674744025,0.055243704219996144
0.04500000000000004,0.0107,-1.193,0.015303732205886367,1.669411398414352,0.11043222280224628,0.05525139097248382
0.04600000000000004,0.0306,-1.193,0.015304240113781455,1.6737673319513415,0.11043700492037875,0.05551289205331206
0.04700000000000004,0.027,-2.193,0.015402001262978408,1.6738950304286881,0.11135745795674132,0.05552055821478185
0.04800000000000004,0.0237,-1.193,0.015472918292722633,1.6757735202928818,0.11202516487195341,0.05563333016725545
0.049000000000000044,0.0207,-0.193,0.015373346588700265,1.6801129591984434,0.1110876648726588,0.0558938410208661
0.050000000000000044,0.0073,-0.193,0.015206030266380404,1.6819845047108755,0.10951232724439436,0.056006196080961544
0.051000000000000045,-0.0094,1.807,0.015052430838855817,1.6872066723407861,0.10806613864483394,0.05631970005614654
0.052000000000000046,-0.0072,1.8070000000000068,0.014880296319954633,1.672840700503325,0.10644543612765914,0.05545726330619549
0.05300000000000005,-0.0015,2.807,0.014582969586917977,1.6437321306705748,0.1036460081701993,0.05370977969378736
0.05400000000000005,0.0076,0.807,0.01455328187560109,1.6289828026925313,0.10336648870619185,0.05282432880823182
0.05500000000000005,0.0156,-1.193,0.014363902050520462,1.6246383592980338,0.10158341601879847,0.052563517518617126
0.05600000000000005,0.02,-2.193,0.014386058571308749,1.6192144136583109,0.10179202687292951,0.052237900142893486
0.05700000000000005,0.0134,-0.193,0.014321834249359127,1.5787752158638233,0.1011873339797664,0.04981020150119345
0.05800000000000005,0.0048,1.807,0.014093108692224266,1.5063438764397354,0.09903380841989026,0.04546190890572704
0.05900000000000005,0.0171,-1.1929999999999792,0.013791076693068548,1.462787660227732,0.09619007885057582,0.04284708535079768
0.06000000000000005,0.0124,1.807,0.013680630090220122,1.4409331805382755,0.09515018813956387,0.041535088734871065
0.061000000000000054,-0.0105,2.807,0.013646315795349747,1.4438001166044294,0.09482710788566417,0.041707200378356526
0.062000000000000055,-0.0333,2.807,0.013645624037115223,1.4768545861284352,0.09482059475675124,0.0436915693852136
0.06300000000000006,-0.0305,0.807,0.013616954158887964,1.4660729226404141,0.09455065852253962,0.04304431050688086
0.06400000000000006,-0.0171,0.807,0.01364983021654046,1.4393662957689495,0.09486019730495417,0.041441023465685345
0.06500000000000006,-0.0052,0.807,0.013623842220827336,1.4393662957689495,0.09461551186744022,0.041441023465685345
0.06600000000000006,-0.0165,0.807,0.013654163557570183,1.4393662957689497,0.09490099712104846,0.04144102346568536
0.06700000000000006,-0.0263,-1.193,0.013665932641074258,1.464071373760451,0.09501180687252454,0.04292415091514323
0.06800000000000006,-0.0245,-2.193,0.01365462147757417,1.4552113799823791,0.0949053085869175,0.04239225621807712
0.06900000000000006,-0.0064,-1.193,0.01362733601904546,1.476854586128435,0.09464840711473146,0.04369156938521358
0.07000000000000006,0.0055,-3.193,0.013608689673383094,1.476854586128435,0.09447284570180849,0.04369156938521358
0.07100000000000006,0.0211,0.8069999999999723,0.013583861754057212,1.4816324245689272,0.09423908276103093,0.04397839881123712
0.07200000000000006,0.0269,-1.193,0.01357486382133594,1.4863949052991952,0.09415436429605467,0.04426430626317896
0.07300000000000006,0.0323,-1.193,0.013558858733069692,1.4816324245689272,0.09400367118112167,0.04397839881123712
0.07400000000000007,0.0337,0.807,0.013568449132859466,1.4700678448862794,0.09409396791636815,0.04328413888723776
0.07500000000000007,0.0199,3.807,0.01356543405251607,1.4535574025946745,0.09406557995366771,0.042292962491284135
0.07600000000000007,-0.0076,3.807,0.013714360517956525,1.4535574025946745,0.09546777109437582,0.042292962491284135
0.07700000000000007,-0.0116,0.807,0.013706314045155514,1.4515385959743488,0.09539201093420444,0.042171766860378525
0.07800000000000007,-0.008,0.807,0.013778412703284938,1.4454652588351629,0.09607084326522784,0.04180716436756157
0.07900000000000007,-0.0178,0.807,0.013770400210922499,1.4543846264087081,0.09599540304194466,0.042342623469721875
0.08000000000000007,-0.015,-1.193,0.013756125965294646,1.4652522975935525,0.09586100637376033,0.04299504567423666
0.08100000000000007,-0.0016,-0.193,0.013718619943957,1.4652522975935525,0.09550787497641387,0.04299504567423666
0.08200000000000007,-0.0038,-1.193,0.013745941867685975,1.4652522975935525,0.0957651197803281,0.04299504567423666
0.08300000000000007,0.0074,0.807,0.013907573760788968,1.4914954833008927,0.09728693665750039,0.04457051081128931
0.08400000000000007,0.0055,-1.193,0.013910105492281749,1.5001411946018806,0.09731077373346489,0.045089541423335724
0.08500000000000008,-0.0035,-1.193,0.013909080299229494,1.5001411946018806,0.09730112120722562,0.045089541423335724
0.08600000000000008,-0.005,0.807,0.013938669309978679,1.5106797336996163,0.09757971137326572,0.04572220474131488
0.08700000000000008,-0.0035,0.807,0.013945481274727358,1.5126196100954583,0.09764384823834987,0.04583866193008467
0.08800000000000008,-0.0025,0.807,0.013961262859112849,1.4965786778230281,0.09779243699150551,0.044875671771692126
0.08900000000000008,-0.0036,0.807,0.013957732655169804,1.4938130381623094,0.09775919897246578,0.04470964128607567
0.09000000000000008,-0.0003,-0.193,0.01394030539803379,1.4938130381623091,0.0975951156747746,0.04470964128607566
0.09100000000000008,-0.0069,1.807,0.013958477237722207,1.4938130381623091,0.09776620945952338,0.04470964128607566
0.09200000000000008,-0.0044,-0.193,0.013702910280788365,1.4839653829556605,0.09535996338492192,0.044118454010536524
0.09300000000000008,-0.0023,-0.193,0.013190375265072688,1.4732357597280736,0.09053427940582713,0.04347431928096193
0.09400000000000008,0.0061,-0.193,0.012912059366265032,1.4672522355197744,0.08791384463976908,0.04311510855509913
0.09500000000000008,0.0028,-1.193,0.012772588683154028,1.4507097492975503,0.08660068276710682,0.042122008456127596
0.09600000000000009,0.0177,-0.193,0.012729988082243177,1.4507097492975503,0.0861995842450317,0.042122008456127596
0.09700000000000009,0.0155,0.807,0.012382070418948366,1.4478564952287736,0.08292382621421408,0.041950718188145615
0.09800000000000009,-0.0025,-1.193,0.012152877545949304,1.4579480669588727,0.08076590072338709,0.04255654857840918
0.09900000000000009,-0.0047,0.807,0.011955088035116374,1.5016446653992679,0.07890364810767712,0.045179799742286614
0.10000000000000009,-0.0025,1.807,0.011822221464229905,1.5035961985043298,0.07765266610093795,0.045296956721820894
0.10100000000000009,-0.0043,-0.193,0.011801930414176653,1.505545201975439,0.07746161926090056,0.04541396183907189
0.10200000000000009,-0.0025,0.8069999999999862,0.01177086119358819,1.494970468311023,0.0771690924374847,0.04477912564167972
0.10300000000000009,0.0055,-0.193,0.011786316836927983,1.4890742829081092,0.07731461234961655,0.044425158152843515
0.10400000000000009,0.0069,-0.19300000000001388,0.011788675811892043,1.4791950800504081,0.077336822866639,0.043832076967588424
0.1050000000000001,0.008,-1.193,0.011764211190742032,1.493460278595167,0.07710648049642378,0.044688463963856014
0.1060000000000001,-0.0007,-1.193,0.011713998412224915,1.493460278595167,0.07663371084477856,0.044688463963856014
0.1070000000000001,0.00039999999999972246,0.807,0.011562051737701707,1.4819879995385072,0.07520308345261978,0.043999745151366294
0.1080000000000001,-0.002100000000000688,-1.193,0.011498297901969651,1.4839653829556605,0.07460282034031628,0.044118454010536524
0.1090000000000001,-0.008299999999999556,-1.193,0.011492213693551495,1.4752248746466239,0.07454553553793458,0.04359373242091814
0.1100000000000001,-0.004299999999999767,-1.193,0.011365924710487188,1.4965786778230272,0.07335648366123768,0.04487567177169207
0.1110000000000001,-0.0021999999999994337,-3.193,0.0113179865766548,1.5611989687475136,0.07290513052958944,0.04875504132053662
0.1120000000000001,0.002900000000000999,-0.193,0.01130666322690752,1.5380547993973146,0.07279851750649903,0.047365620373555996
0.1130000000000001,0.011899999999999002,-0.193,0.010811760408034577,1.5145570018589354,0.06813884639913245,0.04595496995816517
0.1140000000000001,0.002900000000000688,-0.193,0.010480487962293674,1.5126196100954576,0.06501980850882325,0.04583866193008463
0.1150000000000001,0.009099999999999634,-0.193,0.010470863758821284,1.5442016632250342,0.06492919350090343,0.04773463691639414
0.1160000000000001,0.005799999999999278,2.807,0.010457945649501461,1.5423015106237719,0.06480756529741802,0.047620564478247605
0.1170000000000001,-0.0007000000000002775,0.807,0.010328850797722262,1.5403990140991963,0.06359209525359162,0.047506351326641
0.1180000000000001,-0.003199999999999756,2.8069999999999724,0.009995531427776283,1.5377121891651122,0.060453784905713716,0.047345052349442925
0.1190000000000001,-0.0009999999999997559,0.8069999999999723,0.00973407919701732,1.5323244058766847,0.05799212706266787,0.047021605919136324
0.1200000000000001,0.0011999999999996003,-1.193,0.00992484296761323,1.5380547993973148,0.059788230047497046,0.047365620373556
0.12100000000000011,-0.00240000000000071,-1.193,0.00991650281842034,1.5063438764397348,0.05970970482851822,0.045461908905727
0.12200000000000011,-0.008799999999999922,-0.193,0.009690652050607066,1.5063438764397348,0.057583246345714045,0.045461908905727
0.12300000000000011,-0.008100000000000232,-1.193,0.009390854870688168,1.5121727266391451,0.05476055832684319,0.04581183403984305
0.12400000000000011,-0.010200000000001232,-0.193,0.00899396989846315,1.5179791949480212,0.05102375714588309,0.04616041551512776
0.1250000000000001,-0.02129999999999726,-2.193,0.0083963027430779,1.5207008851926982,0.04539652636527685,0.0463238075721045
0.1260000000000001,0.0034000000000012098,-0.193,0.008186254820109876,1.4775679500628356,0.04341885680977624,0.043734394978920545
0.127,0.0143,-1.193,0.008349344379234548,1.4281973739348903,0.044954398086944604,0.04077051618946298
0.128,0.0045,1.807,0.008359261651742675,1.4310898241708416,0.04504777243521613,0.040944159532851986
0.129,-0.0043,1.807,0.008348572747481102,1.429039277910421,0.044947132922855924,0.04082105846649392
0.13,0.0037,0.807,0.008237160315992026,1.429039277910421,0.0438981486208603,0.04082105846649392
0.131,0.0106,0.807,0.008131280797505799,1.4409331805382735,0.04290125849549041,0.04153508873487095
0.132,0.0218,2.807,0.00817091628269366,1.4575866275137674,0.04327443948802735,0.04253485017443989
0.133,-0.0028,1.807,0.008164501548549115,1.4527297077369732,0.04321404267836108,0.04224327323453886
0.134,-0.0046,-0.193,0.008171206809842858,1.4507097492975494,0.043277174895690024,0.04212200845612755
0.135,-0.01,1.807,0.008180155291022971,1.462427416890276,0.043361427758312115,0.042825458753122124
0.136,0.0048,0.807,0.008203461526524321,1.4923016771427884,0.043580863550644916,0.04461890929102335
0.137,0.0067,-0.193,0.008236451996161402,1.524304755442561,0.04389147955913006,0.046540159809231416
0.138,0.0013,0.807,0.008229609621267855,1.5556496004327045,0.043827056372634905,0.0484218944072714
0.139,0.006,-1.193,0.008232811213508584,1.569219933031267,0.04385720040554962,0.04923656630517533
0.14,0.0074,1.807,0.00828424884087849,1.57185290156346,0.04434150240777477,0.04939463210464366
0.14100000000000001,0.0009,-2.1929999999999445,0.008490360215565068,1.5737173733514098,0.04628210808004358,0.049506562505689126
0.14200000000000002,-0.0053,-0.19300000000002776,0.008533400325142746,1.5882226538563964,0.04668734471925635,0.05037736241518274
0.14300000000000002,-0.0064,-1.1929999999999723,0.008545262224886357,1.6124657141553225,0.046799028365835,0.05183275341619754
0.14400000000000002,-0.0017,-0.19300000000002776,0.008607632946657244,1.749599802402991,0.04738626901005532,0.060065365780605486
0.14500000000000002,-0.0024,-1.193,0.008587704342849264,1.915207060566907,0.04719863471937645,0.07000731660127706
0.14600000000000002,-0.0079,0.807,0.009069581563193634,1.9486770435396157,0.051735665577374516,0.07201663025318249
0.14700000000000002,-0.0129,2.807,0.009498248041096743,1.9486770435396157,0.05577169997768476,0.07201663025318249
0.14800000000000002,-0.0092,3.807,0.009830469704263722,1.9507979305784364,0.05889967505898626,0.07214395410885122
0.14900000000000002,-0.0106,0.807,0.009918264091102434,1.9595274274463517,0.05972628778403186,0.07266801464528082
0.15000000000000002,-0.0023,0.807,0.009917794911278801,1.9580303654131423,0.05972187030329631,0.07257814106561603
0.15100000000000002,0.0039,-0.193,0.009916865895409226,1.9535322958108843,0.059713123316533126,0.07230810708721791
0.15200000000000002,0.0094,-1.193,0.00991643698658275,1.961636583275641,0.05970908500034213,0.07279463423768523
0.15300000000000002,0.0028,-2.193,0.009978571750232257,1.9682182073845178,0.060294104022056344,0.07318975087650932
0.15400000000000003,0.0003,-2.193,0.010050436802317833,1.9762622715492777,0.06097073687614911,0.07367266262331944
0.15500000000000003,0.0112,-1.193,0.010091307119372232,1.9842737260817358,0.0613555442125894,0.07415361670617074
0.15600000000000003,0.0068,-1.193,0.010059577873448258,1.9807087234252514,0.061056803035832385,0.07393959781908035
0.15700000000000003,0.0057,0.807,0.01006937732441425,1.9807087234252512,0.06114906805593932,0.07393959781908033
0.15800000000000003,-0.003,0.807,0.010101799119180667,1.9827953482353395,0.06145432980544013,0.07406486479996686
0.15900000000000003,-0.0019,2.807,0.010099734579960554,1.9827953482353395,0.061434891496772,0.07406486479996686
0.16000000000000003,-0.0067,4.807,0.010065721245123536,1.9827953482353395,0.061114644879534746,0.07406486479996686
0.16100000000000003,-0.0092,0.807,0.01010220351459018,1.9872271823038958,0.061458137319832455,0.07433092244045598
0.16200000000000003,-0.0038,0.807,0.010136320562929003,1.9627865860112896,0.06177936043344308,0.0728636727011452
0.16300000000000003,-0.015,-0.193,0.0101645329065101,1.9708528195415913,0.062044988830055,0.07334791534820924
0.16400000000000003,-0.0165,-3.193,0.010095390240726008,1.972340148992976,0.061393988128999884,0.07343720464883378
0.16500000000000004,0.0002,-0.193,0.010096971073960483,1.9738263577032877,0.06140887218838961,0.07352642666766913
0.16600000000000004,-0.002,-0.193,0.010058765945129685,1.9774037684119128,0.061049158466468405,0.07374119045112175
0.16700000000000004,0.0038,0.807,0.010051237362577046,1.96129201170842,0.060978274411534444,0.07277394846815138
0.16800000000000004,0.0092,1.807,0.010055164448528484,1.9633992719572029,0.0610152492038497,0.07290045426259559
0.16900000000000004,0.0204,1.807,0.010051184932616582,1.943538582076079,0.06097778076639319,0.07170815143570317
0.17000000000000004,0.0037,0.807,0.010050729913743018,1.9420291946785209,0.06097349661561126,0.07161753792369749
0.17100000000000004,0.0015,0.807,0.010057594762709739,1.9383864991322803,0.061038131402819606,0.07139885487576271
0.17200000000000004,-0.0123,1.807,0.010055836710238485,1.9362520171939097,0.061021578766639044,0.07127071487336085
0.17300000000000004,-0.0177,1.8069999999999167,0.01001963658472255,1.9377659046236926,0.060680742803461904,0.07136159853716763
0.17400000000000004,-0.0098,-1.193,0.010005447701958426,1.9341151796510647,0.06054714985442118,0.07114243345624022
0.17500000000000004,0.0069,-1.1929999999999723,0.009954411198705108,1.9465538456686688,0.06006662456630081,0.07188916767062699
0.17600000000000005,0.0181,-0.193,0.00973241007829936,1.9356307383360245,0.05797641176671835,0.07123341745101656
0.17700000000000005,0.0123,-1.193,0.009728754969610325,1.9356307383360243,0.057941997728844466,0.07123341745101656
0.17800000000000005,0.0068,-0.193,0.009625206217760867,1.9356307383360243,0.056967052529915095,0.07123341745101656
0.17900000000000005,0.0115,0.807,0.009630971979458539,1.9398987208235614,0.057021339052783934,0.0714896385397842
0.18000000000000005,0.0072,-2.193,0.00976175353647837,1.9317032362616426,0.05825268997539441,0.07099763652628838
0.18100000000000005,0.0082,-2.193,0.009758478308301484,1.9301845937498079,0.05822185263617572,0.07090646739919675
0.18200000000000005,0.002,-0.193,0.009701187902727403,1.928664755449873,0.0576824448223532,0.07081522648499497
0.18300000000000005,-0.0081,-0.193,0.009453345584755714,1.9099785561218565,0.05534892873758843,0.06969343220614442
0.18400000000000005,0.0067,-2.193,0.009449523919907644,1.9016541301656686,0.055312946519271024,0.06919368941476974
0.18500000000000005,-0.0071,-3.193,0.00945552091522269,1.9031955385116734,0.055369410181903146,0.06928622525009759
0.18600000000000005,-0.0089,-3.193,0.009449361656018266,1.898567559163212,0.055311418751943224,0.06900839236045488
0.18700000000000006,-0.001,-3.193,0.009563675625776645,1.9053670522346995,0.0563877219810591,0.06941658839287344
0.18800000000000006,0.0034,-2.193,0.009593550619591844,1.9053670522346995,0.05666900477073983,0.06941658839287344
0.18900000000000006,0.0099,-1.193,0.00960788014918883,1.9164626588164364,0.0568039219554859,0.07008269431228889
0.19000000000000006,0.0186,0.807,0.009625840258036405,1.9143037315710774,0.05697302222545968,0.06995308677734906
0.19100000000000006,0.011,2.807,0.009620023601974597,1.9075360939369819,0.05691825651558876,0.06954680313207727
0.19200000000000006,0.0063,2.807,0.009639586520578109,1.8985675591632112,0.05710244776105417,0.06900839236045482
0.19300000000000006,0.0106,6.807,0.009626663705695147,1.9001114713988616,0.056980775253160365,0.06910107851255014
0.19400000000000006,-0.0017,7.807,0.009624672424010845,1.8979339445330372,0.056962026688033775,0.06897035438094662
0.19500000000000006,-0.0293,3.807,0.009626149045401268,1.9182668581077327,0.056975929558995685,0.07019100635623932
0.19600000000000006,-0.0333,-0.193,0.009724501024182906,1.95168436845907,0.0579019454481854,0.07219716990333117
0.19700000000000006,-0.0297,-1.193,0.009696384870530707,1.958299441127958,0.05763722271105939,0.07259429456971599
0.19800000000000006,-0.0134,-2.193,0.009649476620706303,1.9398987208235605,0.05719556627252528,0.07148963853978414
0.19900000000000007,-0.0046,-0.193,0.009630261961352827,1.9062746160718607,0.05701465400124103,0.0694710724483171
0.20000000000000007,-0.0021,-1.193,0.009581349086809401,1.908442626282156,0.05655412336856593,0.06960122526364924
0.20100000000000007,-0.0042,1.807,0.00957858566765937,1.906905459317829,0.05652810487790494,0.06950894405247567
0.20200000000000007,0.0114,1.807,0.009592008988010948,1.9195204548811022,0.05665448980767685,0.07026626391202503
0.20300000000000007,0.0132,1.807,0.00957448536472683,1.9195204548811022,0.056489499191338596,0.07026626391202503
0.20400000000000007,0.0114,1.8069999999999444,0.009629991816449848,1.906905459317829,0.05701211049905998,0.06950894405247567
0.20500000000000007,0.0001,-0.19300000000002776,0.009648598950159955,1.8957539164880868,0.05718730271869079,0.06883948009529708
0.20600000000000007,0.0045,-1.193,0.009592193885481081,1.9003887478575796,0.056656230677533614,0.0691177243343992
0.20700000000000007,0.0081,-1.193,0.009582222340165808,1.9003887478575796,0.05656234533311956,0.0691177243343992
0.20800000000000007,-0.0005,-1.193,0.00963300716432633,1.9025634651476184,0.057040500980671496,0.06924827979788635
0.20900000000000007,0.0006,-1.193,0.009635833148061278,1.9047356994725873,0.05706710853726133,0.06937868620077747
0.21000000000000008,0.0096,1.807,0.009634370423368465,1.8880039133187603,0.05705333650823014,0.06837422180152576
0.21100000000000008,0.0086,0.807,0.009625642833254167,1.826262478816774,0.056971163406882394,0.06466767951453915
0.21200000000000008,-0.0081,1.807,0.009584296109104027,1.8285253587152686,0.0565818705425875,0.06480352767067281
0.21300000000000008,-0.0012,0.807,0.009580018010648577,1.826920950788569,0.05654159085330885,0.06470720976238552
0.21400000000000008,-0.0034,0.807,0.009468637856249304,1.8307854416603864,0.0554929104506184,0.06493920791645504
0.21500000000000008,0.0024,-1.193,0.009325450181581056,1.802600847248052,0.05414475189273811,0.06324719360105194
0.21600000000000008,0.0043,-1.193,0.009334018512572673,1.8159405718332882,0.05422542551761443,0.06404802133806121
0.21700000000000008,0.0029,-1.193,0.009333809239232667,1.8246560811559518,0.054223455141009604,0.06457124215593903
0.21800000000000008,-0.0015,-0.193,0.009338445763590003,1.826920950788569,0.05426710952680535,0.06470720976238552
0.21900000000000008,-0.0003,-0.193,0.009296140243600148,1.8220992506793994,0.05386878928763643,0.06441774717548644
0.22000000000000008,-0.0039,-0.193,0.009140942211198268,1.8266325222080264,0.05240754930288532,0.06468989444182033
0.22100000000000009,0.0015,0.807,0.009148236132091382,1.838203440885768,0.05247622394192346,0.06538453491663715
0.2220000000000001,0.0022,0.807,0.009156181009745894,1.836607487475123,0.0525510275507261,0.06528872456087963
0.2230000000000001,-0.0061,-0.193,0.00909709230554933,1.82794896235658,0.05199468817011096,0.06476892469303265
0.2240000000000001,0.0015,-2.193,0.008952200129350147,1.823129981070116,0.05063048117558153,0.06447962532604269
0.2250000000000001,0.0041,0.807,0.009059358035742048,1.8192492283662829,0.05163940773913869,0.06424665092047341
0.2260000000000001,-0.0021,-0.193,0.009068454286191217,1.8153601796739702,0.05172505189752091,0.06401317847930843
0.2270000000000001,0.002,-1.193,0.00889219277652554,1.8192492283662829,0.05006549241915629,0.06424665092047341
0.2280000000000001,0.0056,-2.193,0.008908070436945706,1.8192492283662829,0.05021498575944663,0.06424665092047341
0.2290000000000001,0.0165,-0.193,0.009018000398488046,1.8231299810701163,0.05125001212441924,0.06447962532604272
0.2300000000000001,0.0027,-0.193,0.008963180901387285,1.849417102694346,0.05073386871803796,0.06605772808133638
0.2310000000000001,0.0009,-0.193,0.008934291952853803,1.849417102694346,0.05046186986559613,0.06605772808133638
0.2320000000000001,-0.0005999999999998445,0.807,0.009025469804521508,1.8401653313691524,0.051320339013165954,0.06550231368380957
0.2330000000000001,0.0007999999999992784,-0.193,0.009072056600968367,1.8417582017755572,0.051758968863532456,0.06559793895663732
0.2340000000000001,-0.005700000000000411,0.807,0.009065261029990234,1.8455916251362166,0.0516949863511334,0.06582807202537498
0.2350000000000001,-0.009400000000000677,-1.1929999999999168,0.009090304697064388,1.8363205803474325,0.05193078062717671,0.06527150057815552
0.2360000000000001,-0.0154999999999994,1.8069999999999444,0.009095189913215474,1.8098432478935589,0.05197677652714813,0.06368197883836296
0.2370000000000001,-0.010099999999999477,-0.19300000000005552,0.009070737522248589,1.8029757469676255,0.05174654930808742,0.06326970006976596
0.2380000000000001,-0.0053999999999984685,-2.192999999999917,0.009081355237561066,1.8143250352116127,0.05184651855332321,0.06395103533744889
0.2390000000000001,0.0083999999999998,0.807,0.009080305449925965,1.8403706951598566,0.051836634461082054,0.06551464235062145
0.2400000000000001,0.006599999999998579,0.807,0.009190443560721072,1.857531588894667,0.05287362061901229,0.06654486749559295
0.2410000000000001,-0.006199999999999112,-1.193,0.009114742637436266,1.857531588894667,0.05216087178918244,0.06654486749559295
0.2420000000000001,0.0018000000000004774,0.807,0.009126038200595056,1.8496214392595534,0.05226722319249898,0.06606999508040803
0.2430000000000001,0.006099999999999589,0.807,0.009117991010159842,1.8323864659045617,0.052191456275568024,0.0650353226911018
0.2440000000000001,0.002399999999998179,2.807,0.009084755755436729,1.7019360655406703,0.051878535535831806,0.05720395419111108
0.2450000000000001,-0.013999999999998756,3.807,0.009128596049787718,1.5131648141928595,0.05229130617510796,0.045871392333230565
0.2460000000000001,-0.002800000000000655,1.807,0.008676221611339697,1.5240568029553776,0.0480320536104371,0.04652527440227056
0.2470000000000001,-0.0086999999999998,0.807,0.008015804626399402,1.557290806988466,0.04181401276244088,0.0485204214588321
0.2480000000000001,-0.006899999999998756,-1.193,0.007447097003706296,1.5853785047936033,0.036459445407102116,0.05020661875078996
0.2490000000000001,0.004299999999999512,-1.193,0.007325659849796524,1.5719476723368944,0.03531607508093821,0.049400321507265074
0.2500000000000001,-9.999999999927836e-05,-0.193,0.00732268795194767,1.576437330670264,0.03528809369547775,0.04966985052940369
0.2510000000000001,0.006400000000000111,-2.193,0.007356011564165832,1.5820079451869282,0.035601846349786075,0.050004272922356895
0.2520000000000001,0.007400000000000366,-1.193,0.007409134911535939,1.712329779513144,0.036102019954435995,0.05782792317836514
0.2530000000000001,0.010699999999999477,-0.193,0.007491702304061848,1.9165403890995054,0.03687941882688483,0.07008736071797736
0.254,0.006,0.807,0.007891898485220546,1.9674149394963594,0.04064739611759888,0.07314152805144455
0.255,-0.0041,1.807,0.007957709777592147,1.9608306191812876,0.04126703085376945,0.07274624955045517
0.256,-0.0052,-1.193,0.007981024006011356,1.9623255448965304,0.04148654190202521,0.07283599487989473
0.257,-0.0114,-1.193,0.007975162965639057,1.958720595487794,0.041431358299426006,0.07261957785729545
0.258,-0.0038,-1.193,0.007955838815556423,1.956608296327409,0.041249415137292626,0.07249276956034079
0.259,0.0009,-1.193,0.008027356506526258,1.952992793712214,0.04192277747343092,0.07227571899389341
0.26,-0.0053,-0.193,0.008042056036879247,1.9493705854265966,0.042061178335712664,0.07205826586389717
0.261,0.0023,-1.193,0.007990594434301074,1.9536085511657801,0.041576650599098874,0.07231268494809547
0.262,-0.0025,-0.193,0.00803578656139107,1.955724090233301,0.04200214918357098,0.07243968774737909
0.263,0.0036,-1.193,0.007995327671862442,1.9475951999965717,0.04162121557118619,0.07195168361123061
0.264,-0.0018,-0.193,0.00803944754009972,1.9497172638566083,0.04203661848958994,0.07207907811536475
0.265,-0.004,-2.193,0.008089366385796893,1.9482126634292023,0.04250662066807405,0.07198875198099192
0.266,-0.0019,1.807,0.008108021219246218,1.9445815511262314,0.04268226199627362,0.07177076431341795
0.267,-0.0048,-1.193,0.008096848473469465,1.9409436457597353,0.04257706695858026,0.07155236883579845
0.268,0.0024,-1.193,0.008109641683559021,1.9454708214514227,0.04269751919516386,0.07182415014890217
0.269,0.0114,-2.193,0.00810864609445178,1.946977540741923,0.04268814539970158,0.07191460348562662
0.27,0.0052,-2.193,0.008213780880574688,1.9551089990644135,0.04367802362749533,0.07240276179244746
0.271,0.0041,-0.193,0.0082142621721466,1.956608296327409,0.04368255514428274,0.07249276956034079
0.272,0.0066,-0.193,0.008217023600914966,1.956608296327409,0.04370855489485257,0.07249276956034079
0.273,-0.0072,-1.193,0.008214827889488272,1.956608296327409,0.043687881557169066,0.07249276956034079
0.274,-0.017,-0.193,0.008192123647467367,1.96469989548695,0.04347411372937532,0.07297853498992793
0.275,-0.008,-0.193,0.008191490497464494,1.953878235824897,0.04346815241603761,0.07232887500913357
0.276,-0.0033,-1.193,0.008184206578887165,1.952376842055759,0.04339957195205787,0.07223874138105034
0.277,0.0134,-1.193,0.008182884409174699,1.953878235824897,0.04338712329391071,0.07232887500913357
0.278,0.0156,-1.193,0.008190237968079462,1.9538782358248967,0.0434563594442379,0.07232887500913357
0.279,0.0058,-3.193,0.008171093683159516,1.945123386180117,0.04327610977114892,0.07180329246175135
0.28,0.0003,-2.193,0.008003138584825552,1.9487534888821136,0.04169475785882005,0.07202121951964345
0.281,0.0152,-1.193,0.008003837445288042,1.9523768420557586,0.04170133785752072,0.07223874138105031
0.28200000000000003,0.0094,0.806999999999889,0.008015402678427682,1.9559934832102646,0.0418102282914719,0.07245586029777391
0.28300000000000003,-0.0073,-1.193,0.008017204016445937,1.9559934832102648,0.04182718847516489,0.07245586029777394
0.28400000000000003,-0.0095,-1.192999999999889,0.008085234221151727,1.959603449508709,0.04246771499311384,0.07267257850083655
0.28500000000000003,-0.0077,0.8070000000001111,0.008220265799802414,1.9617125236020807,0.043739081252561714,0.07279919318636381
0.28600000000000003,-0.0059,2.8070000000000555,0.00817109264556219,1.9661918793345237,0.043276100001832414,0.07306810370933232
0.28700000000000003,-0.0045,3.807,0.008039525304390876,1.9778208547276523,0.04203735066569981,0.07376622952057457
0.28800000000000003,-0.0031,3.8069999999999444,0.00813084545442874,1.9778208547276526,0.04289715959873614,0.07376622952057457
0.28900000000000003,0.0173,2.807,0.00820413931823289,1.9655800638653242,0.043587245180170535,0.07303137440547484
0.29000000000000004,0.0144,0.807,0.008168573725811788,1.967682731894455,0.04325238355259202,0.07315760451380214
0.29100000000000004,0.0119,-2.193,0.008217254945393757,1.978428884820439,0.043710733078412174,0.07380273157578032
0.29200000000000004,0.005,-1.193,0.008218788973743443,1.9784288848204388,0.04372517645457882,0.0738027315757803
0.29300000000000004,0.0072,-0.193,0.008226090984105998,2.0026785923241586,0.043793927258604495,0.0752585216304591
0.29400000000000004,0.0091,-0.193,0.008203467576416107,2.01323795489994,0.04358092051234503,0.0758924350506194
0.29500000000000015,0.007299999999998957,-4.193,0.00820787920215487,2.029529967771917,0.043622457404452954,0.07687049840689224
0.29600000000000004,0.0026,-3.193,0.008218328362212866,2.001814735687368,0.043720839647110966,0.07520666146264819
0.29700000000000015,-0.0016999999999997334,-3.193,0.00836991692500588,1.9938737627908898,0.04514809530078138,0.07472993862525341
0.29800000000000004,-0.0005,0.807,0.008379753542884083,1.9924025082576335,0.04524071025946286,0.07464161435507048
0.29900000000000015,-0.004100000000000711,-1.193,0.008419579753688462,1.9903259554606865,0.04561568699575156,0.07451695203040751
0.30000000000000004,-0.0073,1.807,0.00842925953866011,1.98677181276942,0.04570682532157606,0.07430358510290701
0.30100000000000016,-0.009800000000001355,6.807,0.00852583455284009,1.988247233884579,0.04661611051072246,0.07439215950676659
0.30200000000000005,-0.0159,8.807,0.008503121901804715,1.9760710303829832,0.046402263509320744,0.0736611817843075
0.30300000000000016,-0.02809999999999716,4.807,0.008717852493759332,1.992063258347294,0.04842402191731948,0.07462124806218028
0.30400000000000005,-0.0153,0.807,0.008734847918523513,1.9935347632514036,0.04858403937268865,0.07470958736295268
0.30500000000000016,0.0060999999999993785,0.807,0.008765905734873947,1.9935347632514038,0.048876458821491935,0.07470958736295268
0.30600000000000005,0.0033,-0.193,0.00878670114832367,1.989116982781066,0.04907225440705374,0.07444437340639318
0.30700000000000016,0.005899999999996314,0.807,0.008780381690612312,2.0111829148833937,0.04901275465601393,0.07576906420923518
0.30800000000000005,-0.0107,-0.193,0.008886053818364704,2.033009361279401,0.05000769213012878,0.07707937789394305
0.30900000000000016,0.0048999999999996,-0.193,0.009524573194346275,2.0413873312076487,0.056019559863132964,0.07758233510685253
0.31000000000000005,0.0031,-2.193,0.011713978819914598,2.0497310577196446,0.07663352637680054,0.07808323657435519
0.31100000000000017,0.012099999999997512,-1.193,0.012512313422222579,2.049731057719644,0.08415010647803554,0.07808323657435516
0.31200000000000006,0.0009,-0.193,0.012587152674488233,2.0810385734419863,0.08485474239478655,0.07996273017312513
0.31300000000000017,0.008500000000000245,-1.193,0.012599454467666048,2.259093842111212,0.08497056778121292,0.0906519761886516
0.31400000000000006,0.0096,-0.193,0.01270724683040999,2.2875377860568253,0.08598546795781035,0.09235956011334485
0.31500000000000017,0.005999999999998801,-0.193,0.012778580128142102,2.294462633539049,0.08665709417160414,0.09277528158517054
0.31600000000000006,0.0006,-0.193,0.012781716246237305,2.28520311084392,0.08668662174412997,0.09221940184729849
0.31700000000000017,0.005399999999998624,1.807,0.01278405007288822,2.2782501187844897,0.08670859548159955,0.09180199076352248
0.31800000000000006,-0.0008,0.807,0.012785998659511204,2.2782501187844897,0.08672694205882858,0.09180199076352248
0.31899999999999995,-0.0131,1.807,0.012784416640253874,2.275145804289504,0.08671204683264769,0.09161562850873231
0.32000000000000006,-0.004,0.807,0.01275276196381887,2.267631640679484,0.08641400775189818,0.09116452844284414
0.32099999999999995,-0.0026,0.807,0.012743178247791854,2.256963205699179,0.08632377394645332,0.09052406704590016
0.32200000000000006,-0.0011,0.807,0.012752644362865191,2.2582621058934915,0.0864129005006457,0.09060204431571303
0.32299999999999995,-0.0,1.807,0.012744981435177136,2.2595602594197617,0.08634075154253877,0.09067997676057656
0.32400000000000007,0.0011,0.807,0.012725618954605349,2.2577294390644522,0.08615844748637523,0.090570066566206
0.32499999999999996,-0.0022,-0.193,0.012622241864875962,2.264745432512774,0.0851851185421743,0.09099125983149349
0.32600000000000007,-0.0015,0.807,0.012624841242965569,2.264745432512774,0.08520959253286373,0.09099125983149349
0.32699999999999996,-0.004,-1.193,0.012667530303439924,2.264745432512774,0.08561152393051867,0.09099125983149349
0.32800000000000007,-0.0,-1.193,0.012613268927710924,2.2647454325127745,0.08510063541849487,0.09099125983149352
0.32899999999999996,0.0007,-1.193,0.012560461622652714,2.272269140540548,0.08460343745506843,0.09144293288031112
0.33000000000000007,0.0029,-1.193,0.012547331593105565,2.2496225301495936,0.08447981395367263,0.09008338204142863
0.33099999999999996,0.0044,-1.193,0.012559330508303504,2.2496225301495936,0.08459278764534589,0.09008338204142863
0.3320000000000001,-0.0018,0.807,0.012473781469487783,2.2571966465334974,0.08378731560269234,0.0905380812703977
0.33299999999999996,0.0105,-1.193,0.012508148158672197,2.2558971328691992,0.08411088916611059,0.0904600671719549
0.3340000000000001,0.0159,-1.193,0.012494902251594893,2.2558971328691997,0.08398617464005569,0.09046006717195493
0.33499999999999996,0.0028,1.807,0.012463339068212044,2.254063337210528,0.08368899699616893,0.09034997836029408
0.3360000000000001,-0.0052,2.807,0.012452123532846558,2.2558971328691997,0.08358339908057165,0.09046006717195493
0.33699999999999997,-0.0158,-0.193,0.01243826540817061,2.241787805736551,0.08345292032657738,0.08961303765150527
0.3380000000000001,-0.0122,-0.193,0.012432836340492566,2.2095595166934805,0.08340180388748145,0.08767826698835322
0.33899999999999997,-0.0035,-1.193,0.01242896693653759,2.176854140651679,0.08336537218993567,0.0857148552165254
0.3400000000000001,-0.0111,-2.193,0.012310358005781976,2.1603157860838706,0.08224863050522228,0.08472200315441812
0.34099999999999997,-0.0064,-1.193,0.012227062706181003,2.1603157860838706,0.08146437815076207,0.08472200315441812
0.3420000000000001,-0.0039,-3.193,0.01217140899378489,2.1524007811366745,0.08094038033587705,0.08424683925880849
0.34299999999999997,0.0,-2.193,0.012184232841150937,2.1603157860838706,0.08106112103238983,0.08472200315441812
0.3440000000000001,-0.0036,3.806999999999889,0.012163368941398004,2.1635848651182092,0.08086468062599421,0.08491825676883466
0.345,-0.0146,1.806999999999889,0.012129341768085401,2.1635848651182092,0.08054430371500555,0.08491825676883466
0.3460000000000001,-0.0161,-0.193,0.01210744176051117,2.12985643431104,0.08033810801626788,0.08289342763959809
0.347,-0.0096,-0.1929999999999445,0.012116710786236965,2.109032499712919,0.0804253789101098,0.08164329805009371
0.3480000000000001,-0.0107,0.8069999999999445,0.012174829287498478,2.0860195092528966,0.08097258351433584,0.08026175220526323
0.349,0.0059,-0.1929999999999445,0.012227084258950355,2.0880008953337423,0.08146458107709995,0.08038070135755844
0.3500000000000001,0.0128,0.8069999999999445,0.012243827964681668,2.084613289305502,0.08162222851585191,0.08017733217612291
0.351,0.0015,-0.19299999999983347,0.012233964865655768,2.07698890509312,0.08152936422854648,0.07971961520334159
0.3520000000000001,-0.0206,2.807,0.01219462730657797,1.975120114972398,0.08115898830729677,0.07360409519069154
0.353,-0.012,0.807,0.012090745213153922,1.7726960253305268,0.08018090458895558,0.061451908345434084
0.3540000000000001,-0.0095,0.807,0.011791760858690199,1.7109243805659817,0.0773658695862818,0.057743552436581094
0.355,-0.0073,-1.193,0.011756590653272326,1.718466485867467,0.07703473065601864,0.05819632993451826
0.3560000000000001,0.004,-3.193,0.011742656064071714,1.7392115216726423,0.07690353196363903,0.05944172296882587
0.357,0.0178,-3.193,0.011791371414954196,1.7613776421377239,0.07736220284676165,0.06077242841007409
0.3580000000000001,0.0345,-2.193,0.011819027106873808,1.7613776421377245,0.07762259018681665,0.060772428410074145
0.359,0.0682,-2.193,0.011772915842045404,1.7832682578138432,0.07718843762140117,0.062086594388661744
0.3600000000000001,0.0443,-0.193,0.011784156688689935,1.7832682578138435,0.0772942738509283,0.06208659438866177
0.361,0.0139,3.807,0.011799106255631488,1.7983828436380893,0.07743502888906656,0.06299397290941922
0.3620000000000001,-0.0061,8.807,0.011747143878216097,1.7983828436380893,0.07694578619438161,0.06299397290941922
0.363,-0.0169,3.807,0.011750623347021226,1.8023085266560839,0.07697854652558596,0.06322964463018292
0.3640000000000001,-0.0136,1.807,0.011728108239131972,1.8000126886570575,0.07676655945719602,0.06309181789039138
0.365,-0.0049,0.807,0.01179246394491798,1.8000126886570573,0.07737248937193798,0.06309181789039135
0.3660000000000001,0.0031,-0.193,0.011808540648484881,1.8016410592459868,0.07752385676823406,0.06318957435645724
0.367,0.0053,-1.193,0.011950834424619907,1.801641059245987,0.07886359898050198,0.06318957435645726
0.3680000000000001,-0.0013,-0.193,0.011943762821627926,1.7967515201766833,0.07879701753685706,0.06289603917266323
0.369,-0.007,-1.193,0.011943908494431154,1.8085136284124161,0.07879838909370912,0.06360215738827506
0.3700000000000001,-0.0016,-0.193,0.011898048058561898,1.8130808685811755,0.0783665981645771,0.06387634390429756
0.371,0.0064,0.807,0.01193325657944431,1.824737722225112,0.07869809784740878,0.06457614333903654
0.3720000000000001,0.0049,0.807,0.011937795376101935,1.8270024906502191,0.07874083209510596,0.06471210486966185
0.373,-0.0016,0.807,0.011939494602666209,1.834067318251077,0.07875683086622721,0.0651362298104584
0.3740000000000001,-0.0052,1.807,0.011973392687408177,1.834067318251077,0.07907599236631106,0.0651362298104584
0.375,-0.0084,-0.193,0.011982125012259183,1.8340673182510772,0.07915821004674585,0.0651362298104584
0.3760000000000001,-0.0109,-1.193,0.012008839544599114,1.8356654801219343,0.07940973606305482,0.06523217274737853
0.377,-0.0065,-1.193,0.012007964036975892,1.8340673182510772,0.07940149287384547,0.0651362298104584
0.3780000000000001,-0.0105,-2.193,0.01200210146871938,1.8340673182510772,0.07934629488571915,0.0651362298104584
0.379,0.0008,-0.193,0.012002303650332552,1.8302097570801255,0.0793481984914078,0.06490464766922537
0.3800000000000001,0.0055,-2.193,0.012050565064331845,1.8302097570801252,0.07980259541104001,0.06490464766922534
0.381,0.0041,-2.193,0.012048277823559115,1.830209757080125,0.07978106029477505,0.06490464766922534
0.3820000000000001,0.0132,-0.193,0.01205189770972555,1.830209757080125,0.07981514270113538,0.06490464766922534
0.383,0.0045,-1.193,0.012070881728201536,1.83246776256558,0.07999388341349525,0.06504020319824075
0.3840000000000001,0.0034,0.807,0.012027362161557116,1.83246776256558,0.07958413252995832,0.06504020319824075
0.385,-0.0056,-1.193,0.01192218782694069,1.830209757080125,0.07859388194022691,0.06490464766922534
0.3860000000000001,0.0006,-1.193,0.011918923450803923,1.830209757080125,0.07856314677649777,0.06490464766922534
0.387,-0.0026,-0.193,0.011972955111523175,1.8176366325194642,0.07907187244694332,0.0641498414642911
0.3880000000000001,-0.0001,-0.193,0.012056001949102781,1.8308668094122826,0.0798537854506096,0.06494409269141424
0.389,0.0024,0.807,0.012026295376269194,1.8586228215277387,0.0795740883992839,0.06661037779563772
0.3900000000000001,0.0017,0.807,0.012027833536321234,1.8822192057872924,0.07958857067677287,0.06802694669759947
0.391,0.0024,-1.193,0.011982198686230256,1.8965453623891921,0.07915890371116092,0.06888699320742302
0.3920000000000001,0.0075,-2.193,0.012008502785340902,1.905523414856233,0.07940656536503939,0.06942597535761587
0.393,0.001,-1.193,0.012020308626215693,1.8912652673805312,0.07951772119912355,0.06857001166031823
0.39400000000000013,0.0003,-0.193,0.012032900182250748,1.8868872832626555,0.0796362747971551,0.0683071868102714
0.395,-0.0004,1.807,0.01203258544997073,1.8868872832626578,0.0796333114903081,0.06830718681027152
0.39600000000000013,-0.0054,-1.193,0.01203372160897106,1.886887283262659,0.07964400879706274,0.0683071868102716
0.397,-0.012,0.807,0.011969857668111589,1.9467069001036863,0.07904270900915054,0.07189835603400369
0.39800000000000013,-0.0113,-1.193,0.011939767668718357,1.9548394841982526,0.0787594018719784,0.07238658192464144
0.399,-0.0076,-0.193,0.012031731361755735,1.9533388292730727,0.07962526997179824,0.07229649265180191
0.40000000000000013,-0.0054,-0.193,0.012018480234203526,1.9614439161023913,0.07950050629327308,0.07278306779076471
0.401,0.0001,-2.193,0.011988631317093596,1.9599483179360857,0.0792194690242592,0.07269328209186629
0.40200000000000014,0.0008,-1.193,0.011993707819015735,1.9599483179360861,0.07926726594201965,0.07269328209186632
0.403,-0.0087,-1.193,0.011827311842184864,1.9436918739455902,0.07770059366606338,0.07171735405305693
0.40400000000000014,-0.0123,1.807,0.011808690521772554,1.9421826056804048,0.07752526787401423,0.07162674769296115
0.405,-0.0021,2.807,0.01178419781104165,1.9530690701313527,0.07729466103125308,0.07228029811932705
0.40600000000000014,-0.0112,2.807,0.01177054959319333,1.9494470035726388,0.07716615861835575,0.07206285349766504
0.40700000000000003,-0.01,0.8070000000001111,0.011782807704528171,1.949447003572639,0.07728157272601414,0.07206285349766507
0.40800000000000014,-0.0024,2.8069999999998334,0.011653840568386465,1.9230023663121478,0.0760673051664802,0.07047529455834566
0.40900000000000003,-0.0071,-0.19300000000016654,0.011134833802469038,1.9119447120525999,0.0711806875529845,0.06981146704221347
0.41000000000000014,0.0067,-3.192999999999889,0.00891110825449361,1.9029969545378922,0.05024358780032741,0.06927430359809394
0.41100000000000003,0.0049,-1.193,0.007739591843048921,1.9113155320484578,0.039213379512877664,0.06977369528795653
0.41200000000000014,0.003,-1.192999999999889,0.007627673499355243,1.9113155320484576,0.03815963188282498,0.06977369528795653
0.41300000000000003,0.0044,0.8069999999999445,0.00773658520687494,1.7634250068861181,0.03918507105478044,0.06089533847975453
0.41400000000000015,-0.0156,-0.1929999999999445,0.0075759384055589995,1.7446498009275997,0.037672529137384475,0.05976820083882569
0.41500000000000004,0.0086,0.8069999999999445,0.007500033028879403,1.7446498009275997,0.036957855312302675,0.05976820083882569
0.41600000000000015,0.0184,-0.19300000000005552,0.00748615978961775,1.7446498009275997,0.03682723424956489,0.05976820083882569
0.41700000000000004,0.0035,-1.193,0.007983273688256748,1.7486961144927726,0.041507723392531726,0.06001111440986101
0.41800000000000015,0.001,-2.193,0.008325270505369258,1.7446498009275997,0.04472773472958499,0.05976820083882569
0.41900000000000004,0.0079,-2.193,0.008325270505369258,1.8516516858386607,0.04472773472958499,0.06619187748983325
0.42000000000000015,0.009999999999998713,-2.193,0.00840644712008184,1.8949985447396431,0.045492038976288326,0.06879413263373282
0.42100000000000004,0.0042,-1.193,0.008677949281519355,1.9076922787745876,0.04804832018745427,0.06955617942386319
0.42200000000000015,0.0022999999999974907,1.807,0.008708494895026434,1.918774439425435,0.04833591707978933,0.07022147813962631
0.42300000000000004,-0.009,1.807,0.008759133434858887,1.9187744394254351,0.04881269541278382,0.07022147813962631
0.42400000000000015,-0.0047000000000008,0.807,0.00876153441563209,1.918774439425435,0.048835301428170254,0.07022147813962631
0.42500000000000004,-0.0083,0.807,0.008759249888069667,1.9104883394889396,0.048813791857663366,0.06972403618583062
0.42600000000000016,0.00040000000000022206,-0.193,0.008742280604015005,1.9141841260152095,0.0486540205255819,0.06994590646069204
0.42700000000000005,0.0014,-1.193,0.008674226312066467,1.9104883394889394,0.04801326721840321,0.06972403618583062
0.42800000000000016,0.0007000000000022427,-0.193,0.008670574795243555,1.9104883394889391,0.04797888699911788,0.06972403618583059
0.42900000000000005,0.0108,-1.193,0.008607698832878001,1.9015337289561276,0.04738688935026662,0.06918646133239413
0.43000000000000016,0.0017000000000007992,-1.193,0.008611872364604806,1.9015337289561276,0.047426184509763505,0.06918646133239413
0.43100000000000005,0.0053,-1.193,0.008595987401892009,1.888798606635176,0.04727662241601148,0.0684219298667212
0.43200000000000016,-0.006999999999998957,-1.193,0.008590773320028972,1.8797406745244345,0.047227530138331655,0.06787815227762034
0.43300000000000005,-0.0023,-1.193,0.008490503770831994,1.8797406745244345,0.046283459699602195,0.06787815227762034
0.43400000000000016,-0.0008999999999997557,0.807,0.008482263132902543,1.8775395222286966,0.046205871411554904,0.06774600983340831
0.43500000000000005,0.0002,1.807,0.008483546548523242,1.8759770335737507,0.04621795518731543,0.06765220847749216
0.43600000000000017,0.012500000000001933,1.807,0.008509577368587139,1.8722058267003558,0.04646304383002922,0.06742581047002827
0.43700000000000006,0.0212,-2.193,0.008774253120910227,1.8813000373401818,0.04895505217770653,0.06797176597908264
0.43800000000000017,0.008799999999998935,-3.193,0.008927907305051913,1.8850530505695524,0.050401756328637644,0.06819707176198982
0.43900000000000006,0.004,-3.193,0.00917377310438702,1.888798606635176,0.05271666284717478,0.0684219298667212
0.44000000000000017,-0.0037000000000014435,-3.193,0.00919223327069479,1.888798606635176,0.05289047132088159,0.0684219298667212
0.44100000000000006,-0.0102,-2.193,0.009266150987467466,1.8909866531411046,0.05358643068104957,0.06855328552707365
0.44200000000000017,-0.006599999999999755,-2.193,0.009449987477277664,1.888798606635176,0.05531731106277595,0.0684219298667212
0.44300000000000006,-0.0055,1.807,0.009425315446133195,1.8775395222286966,0.0550850158599607,0.06774600983340831
0.4440000000000002,0.003500000000002487,3.807,0.00944854965459005,1.8737714600679976,0.05530377349422815,0.06751980061343665
0.44500000000000006,0.0147,1.807,0.009467555721045564,1.8737714600679978,0.05548272179549089,0.06751980061343668
0.4460000000000002,0.010299999999996715,4.807,0.009497156706944745,1.8781800170449539,0.05576142471146557,0.067784460853217
0.44700000000000006,-0.0045,1.807,0.009486850473523203,1.8781800170449536,0.05566438816960569,0.067784460853217
0.44799999999999995,-0.0183,-0.193,0.009412739454620038,1.8850530505695524,0.05496660880696837,0.06819707176198982
0.44900000000000007,-0.0017,1.807,0.009349776274868334,1.8813000373401816,0.05437378997804134,0.06797176597908261
0.44999999999999996,0.0096,-0.193,0.009380075875422493,1.8897141277360856,0.054659070578358976,0.06847689162299592
0.45100000000000007,0.0038,-0.193,0.009383723328224711,1.8897141277360858,0.05469341253356684,0.06847689162299592
0.45199999999999996,-0.0053,-1.193,0.00938652846211286,1.8784605307722426,0.0547198237820634,0.06780130101899323
0.45300000000000007,-0.01,-0.193,0.009417693759207738,1.8746943198035588,0.05501325519705556,0.06757520293219402
0.45399999999999996,-0.0057,-2.193,0.009392376092748591,1.8709205273710376,0.05477488112762858,0.06734864970507391
0.45500000000000007,-0.0046,-0.193,0.009380929901891601,1.8624215327549065,0.05466711151551123,0.06683842698032416
0.45599999999999996,0.0067,-3.193,0.009387986263099961,1.8453061148575762,0.05473354945280287,0.0658109319001141
0.4570000000000001,-0.0038,-0.193,0.00933709112835582,1.8257669630764974,0.05425435519520522,0.06463793206762579
0.45799999999999996,0.0027,0.807,0.009310487476923925,1.83283655313183,0.05400387315873196,0.06506234291429808
0.4590000000000001,0.0139,-1.193,0.009316396457041739,1.8115450172138692,0.05405950812963733,0.06378414167275943
0.45999999999999996,0.0034,1.807,0.009295880943346158,1.8154422387831024,0.05386634789135502,0.06401810475872653
0.4610000000000001,0.0046,3.807,0.009298899083683783,1.7886558725747619,0.053894764664897024,0.06241003070170524
0.46199999999999997,-0.0143,4.807,0.009286436966407656,1.786342488036762,0.05377742977490705,0.06227115058521098
0.4630000000000001,-0.0063,2.807,0.009320470995472993,1.7863424880367627,0.054097871235038925,0.06227115058521104
0.46399999999999997,-0.0084,1.807,0.009356462715923039,1.7886558725747628,0.054436744996694646,0.062410030701705296
0.4650000000000001,-0.0018,0.807,0.009353148197111461,1.7926028571497907,0.054405537723363075,0.06264698122531118
0.46599999999999997,-0.0279,-1.193,0.009408089275969053,1.792602857149791,0.054922825861554087,0.0626469812253112
0.4670000000000001,-0.0242,-0.193,0.009262867825317328,1.8060164310970173,0.05355551864089057,0.06345224238349527
0.46799999999999997,-0.0013,-6.193,0.009267213963346285,1.8060164310970173,0.05359643894489748,0.06345224238349527
0.4690000000000001,0.0136,-4.192999999999889,0.009365993258988781,1.792602857149791,0.0545264781614038,0.0626469812253112
0.47,0.0216,-2.193,0.009342075617227748,1.7830563172530998,0.054301285780151996,0.062073870896616916
0.4710000000000001,0.0097,-2.1929999999998335,0.009795155314738051,1.773458389004597,0.058567178588423016,0.06149767555539279
0.472,-0.0106,0.807,0.010165117387962956,1.7734583890045967,0.06205049191315497,0.06149767555539276
0.4730000000000001,-0.0026,0.8069999999999445,0.010448930194279614,1.764490012287288,0.06472268185239609,0.0609592742724219
0.474,-0.0048,-0.19300000000005552,0.010416280559452618,1.7554758185154267,0.06441527491457366,0.06041812244030144
0.4750000000000001,0.0064,-1.1929999999999445,0.010406234349211195,1.757829825473223,0.06432068657557996,0.06055944125485948
0.476,0.0006,-0.19300000000005552,0.010378291699776412,1.7698506191821506,0.0640575974371284,0.061281089214040754
0.4770000000000001,0.006,-1.193,0.010392761807805006,1.7698506191821506,0.06419383821355974,0.061281089214040754
0.478,0.0013,-1.1929999999999445,0.01040072971851656,1.7698506191821504,0.06426885868609061,0.061281089214040727
0.4790000000000001,0.0028,-0.193,0.010403272836767563,1.773839447972913,0.06429280297208964,0.06152055178415701
0.48,0.0017,-0.193,0.010384421952593757,1.773839447972913,0.06411531576251375,0.06152055178415701
0.4810000000000001,0.0028,-1.193,0.010413071614143484,1.7787919688059723,0.06438506165012682,0.06181786797130076
0.482,0.0017,-0.193,0.01040513754526589,1.7748142706557273,0.06431035980947662,0.06157907361030681
0.4830000000000001,0.0025,0.807,0.010382770004713339,1.7724828206198242,0.06409976213558799,0.06143910896229084
0.484,-0.0037,-0.193,0.01043943009427385,1.7774391214599132,0.06463323531900443,0.06173665207574453
0.4850000000000001,0.0087,-0.193,0.010676733423947982,1.7893281838143633,0.06686752339900082,0.062450391766518516
0.486,0.0214,-2.193,0.010742864828546635,1.7804397477374014,0.06749017209597062,0.06191678958428583
0.4870000000000001,0.0167,-1.193,0.010827479320307306,1.7731612640390688,0.06828684507394961,0.061479838162106844
0.488,0.0211,-1.193,0.01065276953067295,1.7814109586116265,0.06664189554469202,0.06197509458163376
0.4890000000000001,0.0063,0.807,0.010619562738211904,1.7541049887620657,0.0663292427864163,0.06033582700142679
0.49,-0.0118,-1.193,0.010619943788559074,1.747018395383267,0.06633283049944894,0.059910395389073307
0.4910000000000001,-0.0187,0.807,0.010641355397900584,1.7266723513685192,0.06653442776987481,0.05868895515008555
0.492,-0.0031,0.807,0.010918703844076083,1.7351430903972895,0.0691457536545406,0.05919748159857866
0.4930000000000001,0.0067,-0.193,0.010977125212813292,1.7228801540609946,0.0696958098546195,0.0584612970175152
0.494,-0.006,-0.193,0.010980259706069173,1.7153574549412853,0.06972532212875429,0.058009684536781826
0.4950000000000001,-0.0075,-2.193,0.010986549848694679,1.7033488805821582,0.06978454586872011,0.05728877014553787
0.496,-0.0031,-1.193,0.010893125649513339,1.7239702067633087,0.06890492662822856,0.05852673648241848
0.4970000000000001,-0.002,1.807,0.010845537385355042,1.6603867957798166,0.06845686763342806,0.05470961426194951
0.498,-0.0031,-0.193,0.01101373982534452,1.6508042456726297,0.07004054834794173,0.05413434212135301
0.4990000000000001,-0.0107,1.807,0.010871619727081606,1.655080007279463,0.06870244136936375,0.05439103021635169
0.5,-0.006,-0.193,0.0108727111772409,1.6454665528132137,0.06871271772782939,0.05381390278498263
0.5010000000000001,0.0023,0.807,0.01084005519884586,1.645466552813214,0.06840525106324928,0.053813902784982645
0.502,0.0077,-0.193,0.010835064541046635,1.6550800072794631,0.06835826239584432,0.05439103021635171
0.5030000000000001,-0.0053,-0.193,0.010850898453764881,1.652579645452943,0.06850734383728325,0.05424092523551479
0.504,0.0114,-0.193,0.010815332117489761,1.652579645452943,0.06817247520607708,0.05424092523551479
0.5050000000000001,-0.0042,-1.193,0.010818623173578675,1.642219325059831,0.06820346157023875,0.05361896097515146
0.506,0.0055,0.807,0.010819462998571252,1.6440039959302288,0.06821136879586755,0.05372610066347973
0.5070000000000001,-0.0071,1.807,0.010814806193675712,1.6169349995295872,0.06816752346220425,0.052101059382295395
0.508,0.0041,-0.193,0.010821614475917871,1.6267170764373662,0.06823162565529103,0.05268830977590378
0.5090000000000001,-0.0035,-1.193,0.011039750427227475,1.6346477522107095,0.07028544662990188,0.05316441444297839
0.51,-0.0071,0.807,0.011061123497310851,1.6346477522107095,0.0704866810406697,0.05316441444297839
0.5110000000000001,-0.0009,0.807,0.011075569479963802,1.639699352219532,0.07062269466883768,0.053467678680368926
0.512,-0.0085,-1.193,0.011068025423534751,1.5997780566366657,0.0705516649223213,0.05107107141941478
0.5130000000000001,-0.0093,-1.193,0.010985287689643906,1.5264225153355218,0.06977266223048346,0.046667295932003076
0.514,-0.0154,-1.193,0.010988270064826553,1.5007901966029233,0.06980074226345147,0.0451285031575521
0.5150000000000001,-0.0133,0.807,0.010993021381292267,1.4921482457131552,0.06984547745430704,0.04460969829541439
0.516,-0.0082,-2.193,0.011015120504897766,1.4901817205127208,0.07005354789528204,0.044491641290865844
0.5170000000000001,-0.0045,-1.193,0.010657200848599092,1.487404186567806,0.06668361784515299,0.04432489675207422
0.518,-0.0136,-0.193,0.010398458593711933,1.4874041865678065,0.06424747530691034,0.044324896752074246
0.5190000000000001,0.0042,-1.193,0.010399768966398036,1.3570907668215872,0.06425981289221493,0.03650175165110226
0.52,0.0311,-1.193,0.010310992660235904,1.295874156890317,0.0634239550771706,0.03282671631694724
0.5210000000000001,0.0275,-1.193,0.01008562534430312,1.2771137320400936,0.06130204845116216,0.03170046603478138
0.522,0.0243,-0.193,0.010071501647931023,1.2580735823609723,0.0611690692532175,0.030557422947015953
0.5230000000000001,0.0036,-0.193,0.01001945230581315,1.2613562084381142,0.060679007757555754,0.030754489835167053
0.524,0.0011,-1.193,0.010024885603691082,1.2715676590728304,0.06073016402536035,0.031367516952116106
0.5250000000000001,0.0033,-2.193,0.010018179367020746,1.2771137320400892,0.060667022624543335,0.03170046603478111
0.526,0.0055,-0.193,0.010002226997243428,1.2771137320400876,0.060516825871341,0.03170046603478102
0.5270000000000001,-0.0043,-1.193,0.010004936044988658,1.2794077972249323,0.06054233243753045,0.031838186346680425
0.528,-0.0024,-1.193,0.010043009411812626,1.2761716051022056,0.060900805577275,0.03164390704221572
0.5290000000000001,0.0088,-1.193,0.010080626823066954,1.270621419898049,0.06125498574693921,0.03131071108838423
0.53,-0.0079,1.807,0.01008507066526068,1.2729271855602453,0.06129682596745555,0.03144913381859367
0.5310000000000001,0.0034,-0.193,0.010083689002373428,1.2729271855602453,0.06128381716170554,0.03144913381859367
0.532,0.0016,0.807,0.010098839379948656,1.2729271855602453,0.061426462897314314,0.03144913381859367
0.5330000000000001,-0.0111,1.807,0.010097414043174336,1.2729271855602453,0.061413042887703766,0.03144913381859367
0.534,-0.0224,-2.193,0.010122871615673918,1.2830465489501621,0.06165273421803431,0.0320566326340108
0.5350000000000001,-0.0119,-0.193,0.010139577003455535,1.3017214727827664,0.06181002088081918,0.03317775000762113
0.536,-0.0184,0.807,0.010111345888170975,1.3138525209371563,0.06154421574250986,0.033906016905408724
0.5370000000000001,-0.0086,2.807,0.009917131166584978,1.2953525006121334,0.05971562093098617,0.03279539956718339
0.538,0.0026,0.807,0.009780179255622657,1.289884850626869,0.05842617411784607,0.03246715847521181
0.5390000000000001,0.0041,2.807,0.009580951399909127,1.2843939251301733,0.05655037901697141,0.032137520077394205
0.54,0.0077,1.807,0.009580342611851315,1.2843939251301733,0.05654464707927511,0.032137520077394205
0.5410000000000001,0.0265,2.807,0.009511765493156714,1.2843939251301733,0.05589897118812664,0.032137520077394205
0.542,0.0131,0.807,0.009369361387352117,1.3214418060485753,0.05455819018611257,0.034361626763203125
0.5430000000000001,0.0061,0.807,0.00951190887421026,1.3245673983243489,0.05590032116740958,0.03454926639346893
0.544,-0.0051,-3.193,0.00962055071158441,1.3298924639493004,0.05692321942411463,0.03486894767523809
0.5450000000000002,-0.0033999999999996,-3.193,0.00963180604538043,1.3320956394732828,0.05702919205488792,0.03500121158052574
0.546,-0.0016,-1.193,0.00960606373293858,1.313852520937156,0.05678681980533141,0.03390601690540871
0.5470000000000002,0.019699999999996713,-0.193,0.009815452911108895,1.313852520937156,0.05875828706417104,0.03390601690540871
0.548,0.0049,-1.193,0.009849321970811451,1.3017214727827662,0.05907717528406253,0.03317775000762112
0.5490000000000002,0.0022999999999984678,-0.193,0.009870701868777603,1.3039722465368377,0.05927847398156884,0.03331287139191026
0.55,-0.0046,-0.193,0.009834692753566566,1.2940165349421677,0.05893943644257721,0.032715197134414675
0.5510000000000002,0.001899999999997824,1.807,0.00985225567294095,1.2940165349421677,0.05910479704439434,0.032715197134414675
0.552,-0.0079,0.807,0.00989824479205144,1.2940165349421677,0.05953779956812296,0.032715197134414675
0.5530000000000002,0.004800000000000333,-0.193,0.009870735086665831,1.306219141940938,0.05927878673879737,0.033447759946037804
0.554,0.0063,-1.193,0.009865838535034225,1.3183088032938666,0.059232684111587684,0.034173542257404994
0.5550000000000002,0.004800000000000244,0.807,0.009800040031369407,1.3205313051483103,0.058613169785253605,0.034306966386158225
0.556,0.0059,-1.193,0.0097944820055894,1.3151683371003473,0.05856083916365789,0.03398500969671828
0.5570000000000002,-0.005400000000003687,1.807,0.009792353429907792,1.3249651248036252,0.0585407979308639,0.0345731432279802
0.558,-0.022,1.807,0.009770024828849456,1.3151683371003473,0.058330566884986286,0.03398500969671828
0.5590000000000002,-0.015499999999995092,-1.193,0.009773243041972027,1.3151683371003473,0.058360867408912866,0.03398500969671828
0.56,0.0066,-2.193,0.009767703207416599,1.3151683371003475,0.05830870806361693,0.03398500969671829
0.5610000000000002,-0.002100000000000577,-1.193,0.009747783278140658,1.3785295135536009,0.05812115544648036,0.03778879044414565
0.562,-0.0047,-0.193,0.00978703767501054,1.3815259554815251,0.05849074836847714,0.03796867675235888
0.5630000000000002,-0.006800000000000488,-0.19299999999988898,0.009773043857269799,1.3785295135536009,0.058358992020116095,0.03778879044414565
0.5640000000000001,-0.009,0.806999999999889,0.009732680931672557,1.3785295135536009,0.05797896193937707,0.03778879044414565
0.5650000000000002,-0.0071999999999987786,-0.19299999999988898,0.009744004560158646,1.3908554176131085,0.058085577586884075,0.03852875518565867
0.5660000000000001,-0.0017,0.806999999999889,0.009656813636155845,1.400122715956829,0.057264646660837464,0.0390851017214039
0.5670000000000002,-0.006399999999999045,-0.19300000000011103,0.009733499894145388,1.3827773768063727,0.057986672737592684,0.03804380370878285
0.5680000000000001,-0.0021,-1.193,0.009868798860812551,1.3891248161743037,0.059260556542237955,0.03842486146393694
0.5690000000000002,-0.0009999999999992007,-1.192999999999889,0.00980105105552499,1.3912341937811499,0.05862268890671942,0.038551494370380766
0.5700000000000001,0.0026,-0.193,0.009838069768507039,1.3882587064431011,0.05897123213730189,0.038372866035424995
0.5710000000000002,0.00809999999999758,-0.19300000000011103,0.009335409665282098,1.3831583651374362,0.05423852367312869,0.03806667569695944
0.5720000000000001,-0.0028,-1.192999999999667,0.00895356368564113,1.378039146789473,0.050643319501834816,0.03775935210728106
0.5730000000000002,-0.004199999999999755,1.8069999999996669,0.008618910938640248,1.378039146789473,0.04749245497503323,0.03775935210728106
0.5740000000000001,-0.0031,-1.193,0.00861140326544554,1.378039146789473,0.04742176778850923,0.03775935210728106
0.575,0.003,-1.192999999999778,0.008621418240804096,1.3729008402353216,0.047516062040915234,0.03745088258952391
0.5760000000000001,-0.0024,0.807,0.00861793013486442,1.3552071322082238,0.04748322038827814,0.036388670842339405
0.577,0.0106,0.807,0.00860672455303757,1.3668635722914062,0.04737771618848653,0.037088445449660064
0.5780000000000001,0.0088,-0.193,0.008598782895265479,1.363834916449352,0.04730294289592481,0.036906625233757206
0.579,0.0041,0.807,0.008608282110223173,1.3702701049173445,0.04739238109630086,0.03729295085728277
0.5800000000000001,-0.0003,-0.193,0.008594249302245793,1.3672489950624853,0.047260257642172364,0.03711158365192075
0.581,0.0062,-1.193,0.008641509822650387,1.3555958691402796,0.047705230822866526,0.03641200800463246
0.5820000000000001,0.0,-0.193,0.008647631640326083,1.3555958691402794,0.047762869728648,0.03641200800463244
0.583,0.0076,1.807,0.008670530879491732,1.353430948883465,0.047978473518021945,0.03628204068941598
0.5840000000000001,0.0069,-2.193,0.008599425425563976,1.3416578100717078,0.04730899252779866,0.03557526027188393
0.585,0.0043,1.807,0.008315782315949647,1.3235464983881742,0.044638400338238286,0.03448797839757548
0.5860000000000001,0.0083,-0.193,0.008236774924758715,1.3257602198098228,0.04389452003697188,0.034620875407940295
0.587,-0.003,-0.193,0.008042315971418265,1.3288756549658827,0.04206362570399403,0.034807905272753834
0.5880000000000001,-0.0077,-0.193,0.008007701582628991,1.2993521559828283,0.041737719968181396,0.03303551209266054
0.589,-0.0062,0.807,0.008013463117475436,1.3025307563309352,0.041791966693870294,0.03322633397263014
0.5900000000000001,0.0029,-1.193,0.00800303973027632,1.277938599092173,0.0416938271110665,0.03174998552901302
0.591,0.009,-3.193,0.008004987917982934,1.2710360270054843,0.041712169932368086,0.03133560132277204
0.5920000000000001,0.0167,-1.193,0.00755503857778263,1.2424986631287374,0.037475750456955316,0.029622409090983456
0.593,0.0159,-1.193,0.007456145344123035,1.240136323491134,0.03654463847693653,0.029480590038128123
0.5940000000000001,0.0076,0.807,0.007435736980049714,1.2377694752285313,0.03635248708721999,0.02933850031761903
0.595,-0.0026,-0.193,0.00743063635512045,1.1956871475897417,0.03630446304349656,0.02681215916299327
0.5960000000000001,-0.0204,-1.193,0.007422845562593698,1.1581871217469477,0.03623111019631927,0.02456090872363176
0.597,-0.0084,-0.193,0.00742154854574184,1.1520686767788944,0.03621889836054082,0.024193598258826145
0.5980000000000001,0.0072,0.807,0.007169560589991325,1.1520686767788944,0.03384634974687756,0.024193598258826145
0.599,-0.0066,0.807,0.007172452877315543,1.148473721982466,0.03387358157333908,0.023977781245822685
0.6000000000000001,-0.0084,-0.193,0.007291167406454042,1.148473721982466,0.03499131750119465,0.023977781245822685
0.601,-0.0098,0.807,0.007277312808793102,1.1622054655496354,0.03486087195519455,0.024802143177422003
0.6020000000000001,-0.0022,1.807,0.007275010324276108,1.1546112172717125,0.034839193314116224,0.024346235364345662
0.603,0.0043,1.807,0.007242479414658579,1.1520686767788944,0.034532904212780414,0.024193598258826145
0.6040000000000001,0.0007,0.807,0.007232013250142558,1.1520686767788941,0.03443436186761595,0.02419359825882613
0.605,-0.0026,-0.193,0.007206562977132643,1.148473721982466,0.034194739264356254,0.023977781245822685
0.6060000000000001,-0.0051,1.807,0.007301816371896912,1.148473721982466,0.03509158097657854,0.023977781245822685
0.607,-0.0026,0.807,0.00727880414871842,1.1423032509447095,0.03487491340595269,0.023607347484175402
0.6080000000000001,-0.0048,-0.193,0.0073026361606195545,1.1283293238455099,0.035099299554205036,0.02276844647505186
0.609,-0.0012,-1.193,0.00702637871124297,1.120505502862831,0.03249824575946936,0.02229875665407468
0.6100000000000001,-0.0034,-4.193,0.0068540962982843665,1.1205055028628312,0.030876150771611353,0.02229875665407469
0.611,-0.0088,-1.193,0.006822277981583358,1.1014204751363874,0.030576570964500185,0.02115301938886586
0.6120000000000001,-0.0067,0.807,0.006819927424199938,1.0976596545008164,0.030554439701739,0.020927244901571315
0.613,0.0028,-1.193,0.006860406977475123,1.1040796574904632,0.0309355678700227,0.021312658890663857
0.6140000000000001,-0.0161,-2.193,0.006826654357108343,1.1104625446405954,0.030617775964373085,0.021695844693291538
0.615,0.0028,1.807,0.00679186248345546,1.107818683727204,0.030290199150806565,0.02153712498819494
0.6160000000000001,0.0147,-0.193,0.006814632997366111,1.129394785690942,0.030504590950010665,0.022832409669576247
0.617,0.0169,1.807,0.006843474516988855,1.1267953473951238,0.030776143243822007,0.022676356800970594
0.6180000000000001,0.0072,0.807,0.0068158195262349825,1.1267953473951235,0.03051576250547064,0.02267635680097058
0.619,-0.0095,0.807,0.0068140185693580406,1.120505502862833,0.030498805910347156,0.022298756654074797
0.6200000000000001,0.0018,-0.193,0.00685661490968867,1.1283293238455128,0.03089986431767287,0.022768446475052034
0.621,0.0076,-0.193,0.006853330685518679,1.134575795623668,0.03086894227825132,0.023143442812227445
0.6220000000000001,-0.0015,-0.193,0.006822218252225088,1.1345757956236677,0.030576008593152963,0.02314344281222743
0.623,-0.0,-0.193,0.006820324132262008,1.1283293238455163,0.03055817483725327,0.022768446475052245
0.6240000000000001,0.0043,-0.193,0.00681395189337937,1.1168089523347753,0.030498178134308065,0.022076840513662026
0.625,-0.0022,-0.193,0.006841730229909784,1.1131001258127162,0.03075972021328884,0.021854187404773424
0.6260000000000001,-0.0033,1.807,0.006835164438313785,1.1067324505583467,0.030697901148554998,0.021471914822503577
0.627,-0.0022,0.807,0.006881137862425983,1.1067324505583467,0.031130755898766706,0.021471914822503577
0.6280000000000001,-0.0047,1.807,0.006801719864471473,1.1067324505583467,0.030383009601187963,0.021471914822503577
0.629,0.0073,0.807,0.006760929443499659,1.1067324505583467,0.02999895451236763,0.021471914822503577
0.6300000000000001,0.012,-0.193,0.006760370397528987,1.1040796574904777,0.029993690912610487,0.02131265889066472
0.631,-0.0047,-0.193,0.006766533939695944,1.1040796574904777,0.030051722668056557,0.02131265889066472
0.6320000000000001,0.0065,-0.193,0.006740769150447195,1.1003279257355403,0.02980913879204795,0.02108743003890135
0.633,0.0007,-0.193,0.006754491536909643,1.1003279257355403,0.0299383395265857,0.02108743003890135
0.6340000000000001,-0.0047,-0.193,0.006712703133365656,1.0885112388574054,0.02954488810705179,0.020378035287075855
0.635,-0.0033,0.807,0.006681871829894541,1.0661080485523358,0.02925460135072663,0.01903309776013068
0.6360000000000001,-0.0047,-1.193,0.006684610103134083,1.0738375403429035,0.029280383084456556,0.01949712468807213
0.637,0.0043,-0.193,0.006640653603171382,1.0738375403429035,0.028866518331526654,0.01949712468807213
0.6380000000000001,0.004,-1.193,0.006685621455520737,1.0738375403429037,0.02928990529632471,0.019497124688072145
0.639,0.0003,-1.193,0.006641215754967438,1.0885112388574054,0.028871811173640596,0.020378035287075855
0.6400000000000001,0.0079,-1.193,0.0066131010949591635,1.1003279257355383,0.02860710249965823,0.02108743003890123
0.641,0.0014,0.807,0.0066943915688935166,1.096563358052174,0.02937247876799039,0.020861430603948617
0.6420000000000001,-0.0048,-0.193,0.006639555147361694,1.0638493001340097,0.028856176012582554,0.018897497630400616
0.643,-0.0026,-0.193,0.006427947422914548,1.0599551818189328,0.026863820418513696,0.018663720843032687
0.6440000000000001,0.0043,-0.193,0.0062284832321114585,1.0532662600213676,0.024985800145854827,0.0182621627694796
0.645,-0.0001,-1.193,0.006189733751348728,1.053266260021366,0.024620961173333424,0.018262162769479506
0.6460000000000001,-0.0008,-0.193,0.006187809791466206,1.0599551818189297,0.024602846464880684,0.018663720843032503
0.647,-0.0045,-0.193,0.005859805487326209,1.0532662600213647,0.021514579191370963,0.018262162769479427
0.6480000000000001,-0.0053,0.807,0.005868607864026686,1.056046704238966,0.021597456432767115,0.01842908202155504
0.649,-0.0133,-0.193,0.0058465715178782586,1.0599551818189277,0.02138997706198156,0.01866372084303238
0.6500000000000001,-0.001,1.807,0.00581798688887146,1.0638493001340015,0.0211208434769252,0.01889749763040012
0.651,0.0005,-1.193,0.005773040586540614,1.0666021565842607,0.020697659412564937,0.01906276069766108
0.6520000000000001,-0.0039,-0.193,0.005691744604428379,1.0638493001340006,0.019932231282945367,0.018897497630400068
0.653,-0.0028,-0.193,0.005692553908340973,1.0488306247084969,0.01993985114267294,0.0179958769277362
0.6540000000000001,-0.0017,0.807,0.005700973882831373,1.0364269642824906,0.020019127942807215,0.01725124421466026
0.655,0.0127,0.807,0.0057330569999656375,1.040409149432392,0.02032120093217762,0.01749030794506718
0.6560000000000001,-0.0011,-0.193,0.005737807522593861,1.040409149432392,0.02036592864879486,0.01749030794506718
0.657,0.008,-0.193,0.005764025820087644,1.02504709362714,0.020612782452526155,0.01656807298378875
0.6580000000000001,0.0094,-1.193,0.005770040478189385,1.02907331618513,0.020669412416043427,0.016809780425288655
0.659,-0.0011,-1.193,0.005754232657329128,1.02907331618513,0.020520576637939127,0.016809780425288655
0.6600000000000001,-0.0,0.807,0.005764247892189878,1.02504709362714,0.020614873333642744,0.01656807298378875
0.661,-0.0011,0.807,0.0058422171504593475,0.9349763913018442,0.02134897927558995,0.011160831158583807
0.6620000000000001,-0.0088,-1.193,0.005788684995624848,0.9443385692618927,0.020844956615615102,0.011722873631148932
0.663,0.0003,-1.193,0.006104375122339806,0.9443385692618927,0.02381728190098034,0.011722873631148932
0.6640000000000001,-0.0058,-0.193,0.006109814762010608,0.9368245088756975,0.02386849787882877,0.011271779762127995
0.665,-0.0091,-2.193,0.005895962009694772,0.9106974330145979,0.021855004616724825,0.009703285082734745
0.6660000000000001,-0.0065,-0.193,0.00588935834068831,0.8931070263021067,0.02179282892384415,0.008647274854740379
0.667,0.0018,-0.193,0.0057267242573066255,0.8931070263021067,0.020261576099032022,0.008647274854740379
0.6680000000000001,-0.0014,-0.193,0.0055114825777940095,0.9023197062526227,0.018235005635339672,0.009200342467899945
0.669,0.0077,1.807,0.005468735502816717,0.9068909516709455,0.017832528012258562,0.009474769432285783
0.6700000000000002,0.0015000000000007327,-1.193,0.0054295094344542945,0.9114392706886437,0.017463201812379123,0.00974782004910068
0.671,0.0048,-0.193,0.005427120736216477,0.9191608766254434,0.017440711441060727,0.010211373563188115
0.6720000000000002,0.0023000000000001552,-0.193,0.0056513607474402506,0.9268181537304179,0.019552004126348957,0.010671065204979317
0.673,0.003,0.807,0.00567701542296174,0.9525031422599478,0.019793551245778557,0.012213019921344156
0.6740000000000002,0.006899999999998468,0.807,0.006239781593814023,0.9555768221601377,0.025092177898371797,0.012397543080201896
0.675,0.0,-0.193,0.006650135240250776,0.9720374052056091,0.02895579103045774,0.013385726260891219
0.6760000000000002,0.008299999999997735,0.807,0.006681144934353782,0.9882238467007562,0.029247757392639944,0.014357451818639112
0.677,-0.0019,0.807,0.006730792298115868,0.9882238467007562,0.029715203480350557,0.014357451818639112
0.6780000000000002,0.004699999999998069,-0.193,0.007093590115676413,1.0238730513385075,0.033131063006373036,0.0164975913465442
0.679,-0.004,-0.193,0.007371755736379265,1.0111632895940363,0.03575008285516587,0.015734582360060555
0.6800000000000002,-0.002899999999998934,-0.193,0.00744303779991945,1.0111632895940363,0.03642122668236832,0.015734582360060555
0.681,0.0019,0.807,0.007348731413155023,1.0267330969106914,0.03553330135867128,0.01666928933091266
0.6820000000000002,-0.004299999999998779,-0.193,0.0074737675380711,1.0295851977016823,0.03671055716815597,0.01684051036381911
0.683,0.0012,0.807,0.00751633869805527,1.0448805354659445,0.03711137849432474,0.01775874002068199
0.6840000000000002,-0.0025000000000004884,-0.193,0.007809191910672219,1.05162279661531,0.039868686801111754,0.018163500231739703
0.685,-0.0047,-2.193,0.007997822761200955,1.05162279661531,0.04164470764934295,0.018163500231739703
0.6860000000000002,-0.0032000000000011325,-0.193,0.008259706573652081,1.0488306247084953,0.04411042897448013,0.017995876927736108
0.687,-0.0083,-0.193,0.00825332453379824,1.1647258781310046,0.04405033999220129,0.02495345187131374
0.6880000000000002,-0.00040000000000015544,1.807,0.008242139268504487,1.1707781788850724,0.04394502707918086,0.025316791480434607
0.6890000000000001,-0.0011,1.806999999999889,0.008486185896099337,1.1707781788850724,0.046242805503728335,0.025316791480434607
0.6900000000000002,0.010799999999998224,0.8070000000001111,0.008510965690564776,1.1647258781310046,0.04647611533328243,0.02495345187131374
0.6910000000000001,0.0028,1.806999999999889,0.008597354022845002,1.1722546021627807,0.04728948959705499,0.02540542604742286
0.6920000000000002,-0.001499999999999778,0.806999999999889,0.008599844343290301,1.1832352595010058,0.04731293677453011,0.026064631183994994
0.6930000000000001,-0.0005,-0.19299999999988898,0.008595747163540123,1.1965681482454724,0.04727436049374215,0.02686504854289946
0.6940000000000002,0.003099999999999778,0.806999999999778,0.008871565343221012,1.2097541020656988,0.049871278421331156,0.02765664491287608
0.6950000000000001,0.0021,-1.192999999999889,0.00918839386057327,1.2414102740708104,0.05285432202503938,0.029557069500148875
0.6960000000000002,0.004600000000000977,-0.19299999999988898,0.009562988283187796,1.2380747645589707,0.056381250426887276,0.029356827844703018
0.6970000000000001,0.009,0.806999999999778,0.00987658043581618,1.257417778054917,0.05933382260343516,0.030518052847957045
0.6980000000000002,0.005099999999998157,-1.193,0.009866559041322602,1.263025986088161,0.05923946791278379,0.03085473210390741
0.6990000000000001,-0.0032,-1.192999999999778,0.009908124676569562,1.266295774084706,0.05963082189630054,0.031051028279667395
0.7000000000000002,-0.004299999999999422,0.806999999999889,0.009847804522967718,1.2718648357550388,0.059062888018755616,0.03138535745012521
0.7010000000000001,-0.0017,-0.193,0.01006879285989323,1.2993521559828292,0.06114356513225809,0.0330355120926606
0.702,-0.0024,-0.19299999999988898,0.010077862384023792,1.332886480983298,0.06122895765365247,0.03504868840905784
0.7030000000000001,0.0053,0.806999999999778,0.010196562223471817,1.3381784425678986,0.06234655527329143,0.03536638234591963
0.704,0.0061,-1.193,0.010360967712669476,1.343449558829379,0.06389448646037055,0.03568282486916828
0.7050000000000001,0.0035,-0.193,0.010488524353060682,1.3465240670146477,0.06509547374336326,0.03586739775271568
0.706,0.0075,-0.193,0.010576173649461097,1.3465240670146477,0.06592072039471215,0.03586739775271568
0.7070000000000001,-0.0037,-1.193,0.010586470376020682,1.348700074176709,0.06601766742637266,0.03599803065148169
0.708,-0.0022,-0.193,0.010585769548312583,1.353930228279754,0.06601106890541433,0.036312014081033676
0.7090000000000001,-0.0036,0.807,0.010585828853654503,1.3861448008705588,0.06601162728450963,0.03824596130024148
0.71,-0.0101,-0.193,0.010597071906275365,1.381036652668956,0.06611748428402185,0.03793930228802131
0.7110000000000001,-0.0039,1.807,0.010622162936251688,1.3903693980556633,0.06635372449720349,0.038499577825973005
0.712,-0.0205,0.807,0.010648768922155109,1.3903693980556633,0.06660422851348592,0.038499577825973005
0.7130000000000001,-0.0038,-0.193,0.010613850010762248,1.413006146903841,0.06627545559825268,0.039858536643863234
0.714,-0.0016,-0.193,0.010613813582573177,1.419218394853949,0.06627511261499691,0.040231478411576455
0.7150000000000001,0.0002,-0.193,0.010598856443116285,1.4212831101952956,0.06613428627916224,0.040355430094672594
0.716,-0.0052,-0.193,0.010563392596166244,1.409223369931469,0.06580038261830715,0.03963144404513384
0.7170000000000001,-0.0066,-2.193,0.01054985668803801,1.4113027079247027,0.06567293763797598,0.039756273574331306
0.718,-0.0022,-1.193,0.010551049050504633,1.4113027079247027,0.06568416411865735,0.039756273574331306
0.7190000000000001,0.0069,-1.193,0.010550912554950852,1.4163017003311849,0.06568287896859559,0.04005637960355476
0.72,0.0008,-1.193,0.010530014697590013,1.4221291074380809,0.06548611884026993,0.04040621810405966
0.7210000000000001,0.0175,-1.193,0.010599358231250846,1.4340803224324778,0.06613901077775765,0.04112368902314197
0.722,0.0056,-2.193,0.010598471978153908,1.4390001890734576,0.06613066641641613,0.04141904487125625
0.7230000000000001,0.0259,0.807,0.010595988323873144,1.4439032921628971,0.06610728200304963,0.041713394347990186
0.724,0.0234,1.807,0.010591918091054066,1.446764342610664,0.06606895943638795,0.04188515265835968
0.7250000000000001,0.0068,1.807,0.010619542248979123,1.446764342610664,0.06632904987362138,0.04188515265835968
0.726,-0.0088,1.807,0.010636497463813387,1.4576888272600752,0.06648868873941394,0.04254098556284582
0.7270000000000001,-0.0225,2.807,0.010606813513717754,1.4576888272600754,0.0662092046885287,0.042540985562845836
0.728,-0.0206,0.807,0.010622653784186172,1.4576888272600756,0.06635834599025466,0.04254098556284585
0.7290000000000001,-0.0126,0.807,0.010615967893626328,1.4576888272600756,0.06629539615468963,0.04254098556284585
0.73,-0.0021,1.807,0.010608493478651499,1.4576888272600756,0.06622502210512977,0.04254098556284585
0.7310000000000001,-0.0144,0.807,0.010633880410783761,1.4625292783682182,0.06646404833341188,0.042831573834160544
0.732,0.0103,1.807,0.010785097618808989,1.4605228731689441,0.06788780756108499,0.04271112270153097
0.7330000000000001,0.0212,-1.193,0.010778970130488072,1.4605228731689441,0.06783011526433323,0.04271112270153097
0.734,0.0179,-0.193,0.010834325630651622,1.4633514304433097,0.06835130531399455,0.04288093033935419
0.7350000000000001,0.0209,-0.193,0.010835596211760383,1.46335143044331,0.06836326824864816,0.0428809303393542
0.736,-0.0034,-5.193,0.010825681724326167,1.4467643426106642,0.06826992012275392,0.041885152658359695
0.7370000000000001,-0.0001,-1.193,0.010835925913150649,1.4467643426106642,0.06836637249453986,0.041885152658359695
0.738,0.0206,-1.193,0.010914637001439588,1.4516412215196546,0.06910746300755129,0.042177927810905014
0.7390000000000001,0.0065,-0.193,0.010917893287379294,1.4406708791205187,0.06913812199944211,0.04151934191420365
0.74,0.0145,1.807,0.011005425572641968,1.446400108478812,0.06996226695284753,0.04186328648011224
0.7410000000000001,0.0025,1.807,0.010970423536712435,1.4492562298428566,0.06963271139304837,0.04203474888130178
0.742,-0.004,1.807,0.010970440582768458,1.4431732878052295,0.06963287188721352,0.041669569774699905
0.7430000000000001,-0.0221,1.807,0.010970892699140119,1.4431732878052301,0.0696371287099954,0.04166956977469994
0.744,-0.0243,2.807,0.010974618303339225,1.4541247514239433,0.06967220648603958,0.042327022315843114
0.7450000000000001,-0.0265,0.807,0.010976497667888357,1.4541247514239444,0.06968990131491477,0.04232702231584318
0.746,-0.0247,-2.193,0.011004371053218527,1.4512782113616043,0.06995233830927917,0.0421561351118485
0.7470000000000001,-0.0007,-1.193,0.011042937897040334,1.4561399725776174,0.07031545769556201,0.042448002699340404
0.748,-0.0105,-1.193,0.011018521941177755,1.4541247514239466,0.07008557352486626,0.042327022315843316
0.7490000000000001,-0.0076,-1.193,0.011041877290685172,1.4492562298428626,0.0703054717415505,0.04203474888130214
0.75,-0.021,-3.193,0.011048116022193166,1.4492562298428644,0.07036421142911303,0.04203474888130224
0.7510000000000001,-0.0043,-3.193,0.011040493360110428,1.4472314233403594,0.07029244158478472,0.04191319305764773
0.752,0.016,-1.193,0.011039548913127214,1.449256229842865,0.07028354930906452,0.042034748881302285
0.7530000000000001,0.0186,-1.193,0.011062363175089029,1.4492562298428653,0.07049835301040827,0.0420347488813023
0.754,0.0164,-1.193,0.011049680523229449,1.4492562298428666,0.07037894171554142,0.042034748881302375
0.7550000000000001,0.0186,0.807,0.011033068490375044,1.4464001084788212,0.07022253401977889,0.04186328648011279
0.756,0.0048,0.807,0.01108025328098662,1.4464001084788212,0.07066679417982527,0.04186328648011279
0.7570000000000001,-0.0079,-1.193,0.01105632368622943,1.4629913259272453,0.07044148925722452,0.0428593120755854
0.758,-0.0094,-3.193,0.011071662349075424,1.4746114039650466,0.07058590775993558,0.043556903749193326
0.7590000000000001,-0.005,-0.193,0.011070490523065564,1.479396486973378,0.07057487463667829,0.04384416809055797
0.76,0.0073,1.807,0.011064848247491725,1.4774129885155942,0.07052175077585428,0.04372509212529656
0.7610000000000001,-0.0076,0.807,0.011095008966583803,1.4821890269462885,0.070805723762007,0.04401181349078527
0.762,-0.0018,2.807,0.011099878562963926,1.4714464507860283,0.07085157259675132,0.04336690115386997
0.7630000000000001,-0.0001,1.807,0.010912732410704255,1.4802092705308239,0.06908953066592309,0.043892962172686775
0.764,0.0014,0.807,0.01111982579037304,1.4821890269462894,0.07103938223469597,0.044011813490785326
0.7650000000000001,0.0028,-1.193,0.011131758985072696,1.4928543015542979,0.07115173714648895,0.04465208516013949
0.766,-0.0037,0.807,0.011172233703793558,1.4948173108121827,0.07153281979587028,0.04476993109104125
0.7670000000000001,0.0024,-0.193,0.011224475937938077,1.5053931203419737,0.07202469743274023,0.04540483187618619
0.768,0.0013,-1.193,0.011216651010947383,1.4892743537851347,0.07195102319847575,0.04443716906856116
0.7690000000000001,0.0039,-2.193,0.011238242768033823,1.4845211106200955,0.07215431661854979,0.04415181617817794
0.77,0.0122,-2.193,0.011218068528987641,1.4904353085526691,0.07196436959216049,0.044506865018677226
0.7710000000000001,0.0046,-1.193,0.011243478437382836,1.490435308552668,0.0722036121494358,0.044506865018677164
0.772,-0.0001,-1.193,0.011110026513719042,1.4856857797041338,0.07094711885579319,0.04422173511098465
0.7730000000000001,0.0006,-1.193,0.011119234788280703,1.4741529985214123,0.07103381775765313,0.04352938415598788
0.774,-0.0103,0.807,0.010819116336268305,1.4721624353362222,0.06820810485746297,0.04340988407180067
0.7750000000000001,-0.006,1.807,0.01057310426916286,1.4721624353362195,0.06589182118026479,0.04340988407180051
0.776,-0.0024,0.807,0.01057931955717893,1.4613461540462895,0.0659503401397211,0.042760546972453115
0.7770000000000001,-0.0061,0.807,0.01056145517087025,1.452469536655171,0.06578214112860421,0.042227654304976735
0.778,-0.0028,-0.193,0.010449963188798156,1.425508075672498,0.06473240783197948,0.04060906873019548
0.7790000000000001,-0.0004,-0.193,0.010244859271120758,1.4284059716125241,0.06280128769533216,0.04078303899719094
0.78,0.0079,-1.193,0.010171754663516955,1.4263515670071407,0.06211298402261805,0.04065970630163803
0.7810000000000001,0.0181,-0.193,0.01018139381113305,1.4172557869591265,0.06220373973451447,0.04011365657582531
0.782,-0.0023,-0.193,0.01014787693520706,1.4172557869591265,0.06188816743949866,0.04011365657582531
0.7830000000000001,-0.011,-1.193,0.010109423730546322,1.4081012529766959,0.06152611800290151,0.03956407965722548
0.784,-0.003,-0.193,0.009884833364667127,1.4143350450788952,0.059411526614508464,0.03993831479156369
0.7850000000000001,-0.0008,-0.193,0.00973433922058162,1.4143350450788952,0.05799457526915124,0.03993831479156369
0.786,0.0057,-0.193,0.009507448445202227,1.4193233573445228,0.055858324776638324,0.04023777965664789
0.7870000000000001,0.0155,-1.193,0.009555912705746005,1.3258725809225034,0.0563146315625039,0.034627620816739466
0.788,0.0027,-0.193,0.009654990383501415,1.3205313051483079,0.0572474801437127,0.03430696638615807
0.7890000000000001,0.0139,-2.193,0.0094360628482938,1.317396137062,0.05518620614907861,0.03411875188835049
0.79,0.0063,-1.193,0.009425414053894313,1.317396137062,0.05508594428412383,0.03411875188835049
0.7910000000000001,-0.0028,-1.193,0.009325133371211786,1.3052980226280484,0.054141769020004504,0.03339246211060323
0.792,-0.0018,0.807,0.009335172490333589,1.2953525006121307,0.05423629059379914,0.032795399567183234
0.7930000000000001,-0.0029,1.807,0.009326720306250834,1.2830465489501595,0.05415671052987013,0.03205663263401064
0.794,-0.0037,0.807,0.009061570995119221,1.2729271855602426,0.05166024347188936,0.03144913381859351
0.7950000000000002,-0.008100000000000489,0.807,0.008755278034116047,1.2420745302253569,0.04877639556003768,0.029596946991594892
0.796,-0.0103,-1.193,0.008350265304003008,1.2420745302253569,0.04496306889335751,0.029596946991594892
0.7970000000000002,-0.0052000000000007995,-0.193,0.007987556667784064,1.2224887699703944,0.04154804903869056,0.028421149098439936
0.798,-0.0088,-0.193,0.00799366802460975,1.2166937247057374,0.041605589452164686,0.028073253386237763
0.7990000000000002,-0.004899999999998623,-1.193,0.007928315974690148,1.2132902677461428,0.040990278633141586,0.02786893262102667
0.8,0.0013,-0.193,0.007908256901993023,1.2074510759621278,0.0408014159354099,0.027518386647421535
0.8010000000000002,-0.0008999999999981348,0.807,0.0076297718438815675,1.1642734137417547,0.03817938847945315,0.024926288939230327
0.802,0.0075,-0.193,0.007634701815984831,1.11943158033426,0.03822580577128029,0.022234285536790094
0.8030000000000002,-9.999999999982237e-05,0.807,0.0075793611413036525,1.127262854951514,0.037704755308360496,0.02270442282407523
0.804,0.0007,0.807,0.0073476842760506365,1.127262854951514,0.035523442222039424,0.02270442282407523
0.8050000000000002,0.010799999999998002,-0.193,0.007164927523435437,1.1423032509447066,0.0338027279174078,0.02360734748417523
0.806,0.0018,-2.193,0.0069272612945923415,1.1459175638106167,0.03156502302362893,0.023824326626042502
0.8070000000000002,-0.006899999999998801,-2.193,0.006948006099278753,1.1433556909444522,0.03176034211121338,0.02367052893428306
0.808,-0.0015,-1.193,0.0069525899355566394,1.1397332539170084,0.031803500421593606,0.023453062072159303
0.8090000000000002,-0.0006999999999969579,-0.193,0.00692619651423024,1.093885904099706,0.03155499776998363,0.020700694197735653
0.81,0.013,-1.193,0.006919082580271416,1.093885904099706,0.03148801776650914,0.020700694197735653
0.8110000000000002,-0.005099999999999512,-0.193,0.00689583817070489,1.0858139297707743,0.03126916408547415,0.02021610691156411
0.812,-0.0029,1.807,0.006856999070009902,1.0858139297707743,0.030903481312123452,0.02021610691156411
0.8130000000000002,0.021699999999996382,0.8070000000001111,0.0068674620877192056,1.0494748253200135,0.03100199402907854,0.01803455041867707
0.8140000000000001,0.0054,1.806999999999889,0.006870356269824077,1.034247434084942,0.03102924369551657,0.017120399816434973
0.8150000000000002,-0.009500000000000555,0.8070000000001111,0.006868944275088787,1.0314082256200467,0.031015949305545687,0.01694995275245615
0.8160000000000001,-0.012,1.806999999999778,0.0068634332407473625,1.0314082256200467,0.03096406112363773,0.01694995275245615
0.8170000000000002,-0.005100000000000489,-0.193,0.006865707724980208,1.035409713015822,0.030985476132928014,0.01719017526045129
0.8180000000000001,-0.0073,-0.19299999999977796,0.006861707968583089,1.0422132443856746,0.03094781712471584,0.017598613725261943
0.8190000000000002,-0.0014999999999979795,1.8069999999996669,0.00686466771088082,1.0837337277688313,0.030975684061706414,0.020091225513069425
0.8200000000000001,0.0076,-1.192999999999889,0.006862513351204994,1.0678687277649441,0.030955400064215384,0.019138797149981124
0.8210000000000002,0.002800000000000977,-0.19300000000011103,0.006764491394377035,1.0450230972602983,0.03003249143912623,0.017767298476175343
0.8220000000000001,0.0072,-1.192999999999889,0.006780052870736325,1.053407686943325,0.03017900780358034,0.01827065309483375
0.8230000000000002,0.0035000000000002442,-0.19299999999977796,0.006784640247257693,1.0494748253200135,0.030222199446505126,0.01803455041867707
0.8240000000000001,0.0046,1.806999999999778,0.006836222960414104,1.045527169924177,0.030707867478628845,0.017797559623481864
0.8250000000000002,-0.00769999999999969,-0.19299999999988898,0.00677885701965068,1.0494748253200135,0.03016774847641549,0.01803455041867707
0.8260000000000001,-0.0063,0.806999999999889,0.006761269704705021,1.034247434084942,0.030002158182355194,0.017120399816434973
0.8270000000000002,0.016499999999996382,-0.19300000000011103,0.006759946313287863,1.0466769233846132,0.029989698021460752,0.017866583122127307
0.8280000000000001,0.0002,-1.192999999999889,0.006741411796260819,1.0466769233846132,0.029815189511534314,0.017866583122127307
0.8290000000000002,0.0030999999999982235,-0.19299999999988898,0.006739843152197433,1.0617260644888895,0.0298004202171574,0.018770032780136697
0.8300000000000001,-0.0049,0.807,0.0067407966254395164,1.064484411839675,0.02980939747804248,0.018935625484296413
0.831,-0.0118,0.807,0.006694391192534101,1.0605926254311053,0.029372475224444004,0.018701988688979983
0.8320000000000001,-0.0053,0.8070000000001111,0.006449606343721149,1.0633539129346532,0.027067746206871694,0.018867757900223343
0.833,0.0005,1.807,0.006453414186493331,1.0699797741634396,0.02710359828584619,0.019265530239500814
0.8340000000000001,-0.005,-0.193,0.006359697573212214,1.0699797741634396,0.026221225871438138,0.019265530239500814
0.835,-0.0003,-1.193,0.006357934138386797,1.0699797741634396,0.02620462255864143,0.019265530239500814
0.8360000000000001,0.0102,-1.193,0.006411335176826739,1.0727168984188877,0.026707410715089277,0.01942984885113315
0.837,0.0138,-0.193,0.006409646383382929,1.079285280692202,0.026691510175192674,0.019824170538821656
0.8380000000000001,-0.0025,0.807,0.006262227199285154,1.0874057192339135,0.025303510578875338,0.020311667291796533
0.839,-0.0047,-0.193,0.006256806139617251,1.0874057192339135,0.025252469537801126,0.020311667291796533
0.8400000000000001,-0.0047,-0.193,0.006120957234769077,1.0677292162933467,0.023973407886202534,0.019130421815440123
0.841,0.005,0.807,0.006090339761104033,1.0610893017842549,0.023685134407093116,0.018731805811318402
0.8420000000000001,-0.0005,-0.193,0.006106095208365748,1.0905823281620557,0.02383347707072199,0.020502369620246638
0.843,0.001,0.807,0.006484554040575562,1.1098537441463132,0.02739679014659377,0.02165929638833885
0.8440000000000001,-0.0067,-0.193,0.00664267007010237,1.0954659644764888,0.02888550402394741,0.020795550442164978
0.845,-0.0031,0.807,0.006702847955848471,1.1072084295023215,0.029452098403329,0.02150048941099165
0.8460000000000001,-0.0042,-0.193,0.006668907728204697,1.1045567795846458,0.02913254011410911,0.021341302106235506
0.847,-0.0032,-0.193,0.006588866043729934,1.1045567795846458,0.028378921604961447,0.021341302106235506
0.8480000000000001,-0.0025,0.807,0.006860137467729818,1.1045567795846458,0.03093303034805786,0.021341302106235506
0.849,-0.0051,-0.193,0.006805533396905964,1.1045567795846458,0.03041891525018481,0.021341302106235506
0.8500000000000001,-0.0029,-0.193,0.006789739643055671,1.1008066739421551,0.030270211917557473,0.021116170875374464
0.851,-0.0051,-0.193,0.006803422064153395,1.1008066739421551,0.0303990363651795,0.021116170875374464
0.8520000000000001,-0.0131,1.807,0.006916771393364412,1.1124927687091648,0.03146625718959665,0.0218177257513348
0.853,-0.0001,-1.193,0.007031472759780242,1.1188276602746243,0.03254620788432188,0.02219803022045262
0.8540000000000001,-0.0019,-2.193,0.0071417671010682434,1.1162036133076245,0.03358466500318843,0.02204050001201681
0.855,-0.0033,-1.193,0.007172818940072059,1.1135733830001522,0.033877028173327946,0.021882598597224665
0.8560000000000001,0.0072,-0.193,0.007092294386546093,1.1199021619283585,0.03311886329491195,0.022262536104533985
0.857,0.0083,0.807,0.007090045593933899,1.1199021619283585,0.03309769018059153,0.022262536104533985
0.8580000000000001,0.0072,-0.193,0.007068865976953195,1.1199021619283585,0.03289827719374529,0.022262536104533985
0.859,0.0039,-0.193,0.007074077541189008,1.1135733830001524,0.032947345767145426,0.02188259859722468
0.8600000000000001,0.0046,-1.193,0.007247963236603142,1.1135733830001524,0.034584536181115566,0.02188259859722468
0.861,0.0021,0.807,0.007253402721699512,1.1098537441463132,0.034635750703595404,0.02165929638833885
0.8620000000000001,0.0042,-0.193,0.0072429642293194525,1.1240573773009883,0.034537468900596995,0.022511987410847478
0.863,0.002,-0.193,0.007258037232783535,1.1240573773009883,0.034679386133767684,0.022511987410847478
0.8640000000000001,-0.0001,-0.193,0.0070910555560923525,1.1555235356901914,0.03310719930300872,0.02440100485301344
0.865,-0.0005,-1.193,0.007196410528066784,1.155523535690193,0.03409915065225474,0.024401004853013535
0.8660000000000001,-0.0041,-1.193,0.007232018029320222,1.186155257798552,0.03443440686512905,0.026239928328531458
0.867,-0.0005,-1.193,0.007172125968998662,1.2323530134147211,0.0338705036251423,0.029013332220689088
0.8680000000000001,0.0024,-3.193,0.007164587271519117,1.2323530134147211,0.033799524334879594,0.029013332220689088
0.869,0.0035,-1.193,0.00713277717521876,1.2347302445096815,0.03350002192551592,0.029156045256926146
0.8700000000000001,0.0039,-0.193,0.0072653342467518065,1.2347302445096864,0.03474808989511509,0.02915604525692644
0.871,0.0065,1.807,0.007319570198569693,1.2313766405028717,0.03525873903274147,0.02895471732916884
0.8720000000000001,0.0025,0.807,0.007375619324591231,1.2313766405028717,0.03578645979559847,0.02895471732916884
0.873,-0.0084,0.807,0.007701245688610101,1.2280138781159304,0.038852337988959686,0.028752839593595907
0.8740000000000001,0.0053,-1.193,0.007825015262642931,1.2280138781159309,0.040017668809675645,0.02875283959359593
0.875,0.0035,-0.193,0.007870230614625042,1.2150261029196656,0.04044338606406563,0.0279731405411341
0.8760000000000001,0.002,1.807,0.007849660399003951,1.2280138781159342,0.04024971078935173,0.028752839593596133
0.877,0.0035,0.807,0.007825742612933163,1.2313766405028772,0.040024517049376616,0.028954717329169172
0.8780000000000001,0.0024,1.807,0.007663729943182989,1.2371029074986277,0.038499115036146184,0.029298484054667628
0.879,-0.0012,0.807,0.007805367284226905,1.2371029074986288,0.03983267669839243,0.029298484054667694
0.8800000000000001,-0.0001,0.807,0.007959712770439054,1.2371029074986293,0.041285889683303385,0.029298484054667718
0.881,0.0024,0.807,0.007957921044588073,1.2371029074986293,0.041269020001293594,0.029298484054667718
0.8820000000000001,0.0032,-1.193,0.007876416252761833,1.2404410303083235,0.040501625860258884,0.029498882595017283
0.883,0.001,-1.193,0.007858698723341115,1.2380747645589827,0.04033480955453719,0.029356827844703736
0.8840000000000001,-0.0026,-0.193,0.00788702298380439,1.2251936453347259,0.040601491685018525,0.028583531702598582
0.885,0.0083,0.807,0.007878462447664538,1.2251936453347259,0.04052089145120842,0.028583531702598582
0.8860000000000001,-0.0055,-1.193,0.007900440270141643,1.2251936453347259,0.04072781980258176,0.028583531702598582
0.887,-0.0073,1.807,0.007862931400904192,1.2607021117216421,0.04037466159133178,0.030715222248352155
0.8880000000000001,0.0007,-0.193,0.007790765312120403,1.2607021117216421,0.039695194378752,0.030715222248352155
0.889,0.005,0.807,0.007845655869980683,1.2639779113695842,0.04021200684531111,0.030911879323406062
0.8900000000000001,-0.0015,-0.193,0.007941953194854431,1.2662957740847172,0.041118677499264476,0.03105102827966806
0.891,-0.0052,2.807,0.008032225414189161,1.2965721995201758,0.04196861982367845,0.0328686221221259
0.8920000000000001,-0.0219,-2.193,0.008069324226642041,1.306508436866435,0.042317917216847425,0.033465127276152744
0.893,0.0147,-0.193,0.0080695671204015,1.308750978084742,0.04232020414064326,0.03359975443412228
0.8940000000000001,0.0097,1.807,0.008086317229004897,1.308750978084742,0.04247791186451975,0.03359975443412228
0.895,-0.0045,-0.193,0.008061776011951327,1.3109896832821981,0.04224684831894416,0.03373415130308718
0.8960000000000001,-0.0002,-1.193,0.00819986873455389,1.3141401354509996,0.04354703624495787,0.03392328335486054
0.897,0.0198,-0.193,0.00819322527490158,1.3195072824992577,0.04348448591019655,0.03424549092349428
0.8980000000000001,0.0017,-0.193,0.008189907188571533,1.319507282499258,0.04345324504751753,0.03424549092349429
0.899,-0.0016,0.807,0.008189045104371013,1.3226374463545867,0.04344512824420162,0.034433405000783825
0.9000000000000001,-0.0045,-0.193,0.00817374368916642,1.3345783860712583,0.04330106044015672,0.03515025906099808
0.901,-0.0125,1.807,0.008185098956297505,1.3367738386141286,0.043407973975803246,0.035282059330215325
0.9020000000000001,-0.0147,-1.193,0.00831115410017598,1.3547083234165025,0.04459482418046184,0.03635872570266864
0.903,-0.0125,-0.193,0.008254218306381105,1.345128177721125,0.04405875515195006,0.03578359790685646
0.9040000000000001,-0.0067,-0.193,0.008269361952650644,1.345128177721123,0.04420133751012504,0.03578359790685634
0.905,-0.0013,-1.193,0.008267320413290126,1.3292720923885863,0.04418211575262036,0.03483170472094042
0.9060000000000001,0.0002,-2.193,0.008261327569266666,1.3358737877160798,0.04412569117574956,0.035228026301326903
0.907,-0.0042,-2.193,0.008274768180177633,1.3380671148120706,0.044252238901765384,0.03535969897294619
0.9080000000000001,-0.0031,-0.193,0.008559240946033294,1.3380671148120713,0.04693064257485214,0.03535969897294623
0.909,0.0158,-0.193,0.009015045014088644,1.3498715708580142,0.05122218621845973,0.03606835946750851
0.9100000000000001,0.0133,0.807,0.009156571359059845,1.3520421904827062,0.05255470281655735,0.03619866893460755
0.911,-0.0033,1.807,0.00926728159018336,1.346804704431889,0.0535970756735779,0.03588424534400839
0.9120000000000001,-0.0055,1.807,0.009265690933096798,1.3563730087680383,0.05358209911942358,0.03645866226390607
0.913,-0.0152,2.807,0.009261053359715592,1.3563730087680383,0.0535384348567267,0.03645866226390607
0.9140000000000001,-0.0134,1.807,0.009272373427098989,1.3585332406492872,0.053645016975292885,0.03658834812044845
0.915,-0.0119,2.807,0.009276307596066572,1.3606900429501376,0.053682058456510334,0.03671782808794929
0.9160000000000001,-0.0076,3.807,0.009298199921974573,1.3576476151980061,0.05388818182986044,0.03653518109878654
0.917,-0.0039,-0.193,0.009301551942533988,1.3576476151980061,0.05391974219435296,0.03653518109878654
0.9180000000000001,-0.0028,0.807,0.009305619170358145,1.370161384661763,0.05395803646800947,0.03728642402116348
0.919,0.0139,1.807,0.009309900941592092,1.3344667579811094,0.053998350737692984,0.03514355765796314
0.9200000000000002,0.011699999999999511,0.807,0.009333487472305656,1.3471958659088958,0.054220425600671744,0.03590772805974477
0.921,0.0095,-0.193,0.009368647062613096,1.3471958659088958,0.05455146458621546,0.03590772805974477
0.9220000000000002,0.023299999999998003,0.807,0.009431942202252113,1.3471958659088958,0.05514740892551893,0.03590772805974477
0.923,0.0143,-0.193,0.009437104085823173,1.3502618438854121,0.05519600973929169,0.036091788846679705
0.9240000000000002,0.009599999999999023,-0.193,0.009539841921991497,1.3533208758397424,0.05616331990316813,0.03627543264095539
0.925,0.0052,1.807,0.009753801071700022,1.3502618438854124,0.05817781493135161,0.03609178884667972
0.9260000000000002,0.0014999999999986456,-1.193,0.009774803402475895,1.3502618438854124,0.05837555871088101,0.03609178884667972
0.927,-0.0046,-1.193,0.009774427622438894,1.3437308383560504,0.05837202061953385,0.03569971100841141
0.9280000000000002,-0.014800000000000245,-1.193,0.009768218319403936,1.3415467710499178,0.05831355801062253,0.03556859423256868
0.929,-0.0159,-0.193,0.009776597737490358,1.3296684116144424,0.05839245295901415,0.034855497073379746
0.9300000000000002,-0.004599999999999689,0.807,0.0098119082845555,1.3274612076481487,0.05872491325156098,0.03472299132739147
0.931,-0.0032,-1.193,0.009823169112006834,1.3252503275895042,0.05883093760688697,0.034590264893434745
0.9320000000000002,0.0005000000000013767,-0.193,0.009827225386730754,1.334973129995762,0.05886912875354003,0.03517395684289293
0.933,0.0067,-0.193,0.009826314985798374,1.334973129995762,0.058860557032468834,0.03517395684289293
0.9340000000000002,0.003400000000000555,-0.193,0.009866910960730535,1.334973129995762,0.05924278134854275,0.03517395684289293
0.935,0.0059,-1.193,0.009863979494862646,1.352931485235485,0.0592151806433418,0.03625205623656056
0.9360000000000002,0.006700000000000467,-3.193,0.009829108429499696,1.3559844946282789,0.05888685821405181,0.03643533847657061
0.937,0.0088,-0.193,0.009837940130950266,1.352931485235485,0.05897001155751392,0.03625205623656056
0.9380000000000002,0.009600000000000799,-1.192999999999778,0.00986792715903814,1.346413429314234,0.0592523491863338,0.035860755806048486
0.9390000000000001,0.0132,0.8070000000002221,0.009880869080127013,1.3581453444705034,0.059374201585374424,0.03656506143135191
0.9400000000000002,0.012899999999995092,2.806999999999889,0.00987166051670611,1.3581453444705034,0.059287499963810705,0.03656506143135191
0.9410000000000001,-0.0092,1.806999999999889,0.009930554322470394,1.3581453444705034,0.05984200431225562,0.03656506143135191
0.9420000000000002,-0.0007999999999986455,0.807,0.009933261356529905,1.3581453444705034,0.05986749191893867,0.03656506143135191
0.9430000000000001,0.0053,0.807,0.009769021635589842,1.3688984300815994,0.05832112149395462,0.03721060468532072
0.9440000000000002,-0.0023000000000028865,0.806999999999778,0.00965858091731381,1.3688984300815994,0.05728128618810691,0.03721060468532072
0.9450000000000001,-0.0153,-1.193,0.009692077933984543,1.3594182891388782,0.05759667150177121,0.03664148050519402
0.9460000000000002,-0.002599999999998934,-1.192999999999889,0.009690273490119002,1.3646073639734917,0.05757968207551522,0.03695299781054937
0.9470000000000001,0.0022,-0.19300000000011103,0.009693485127784602,1.3710389268414156,0.057609920689374414,0.03733910577732501
0.9480000000000002,-0.002199999999999734,-1.192999999999667,0.009568610023081252,1.3885309088548496,0.056434180937597084,0.038389207245471436
0.9490000000000001,-0.001,1.806999999999889,0.00967049910825523,1.3936115878574924,0.05739349983463308,0.03869421719092864
0.9500000000000002,0.005200000000002243,0.806999999999667,0.00972706215697857,1.3915058141366454,0.057926059346985304,0.03856780063766742
0.9510000000000001,0.0153,-2.192999999999667,0.009819795786853547,1.3965756706106172,0.0587991766527095,0.03887216087097435
0.9520000000000002,0.008799999999996937,0.806999999999778,0.009895776154310814,1.3965756706106143,0.05951455654036906,0.03887216087097418
0.9530000000000001,-0.005,-1.192999999999778,0.009789378442337812,1.3936115878574895,0.05851278745467348,0.038694217190928464
0.9540000000000002,0.0004999999999996669,0.8070000000001111,0.009724225218604582,1.3957141845110217,0.05789934864890369,0.038820443014342766
0.9550000000000001,-0.001,1.806999999999889,0.009702247597937058,1.3978136184341101,0.057692422197633236,0.038946478968599894
0.9560000000000002,-0.008600000000003286,0.807,0.009701627099599831,1.394852166342026,0.05768658000384511,0.0387686932158273
0.9570000000000001,-0.0234,0.8070000000001111,0.009702226974860536,1.3774404596998844,0.057692228024655935,0.03772341094342356
0.9580000000000002,-0.02919999999999718,1.806999999999889,0.009746601794679875,1.3598058221994103,0.05811003139517958,0.03666474539510229
0.9590000000000001,-0.0165,0.806999999999889,0.009757154922359795,1.3619606092402259,0.0582093925268346,0.036794104379885464
0.96,-0.015,-0.193,0.00963073038039347,1.3641119925272267,0.05701906431895715,0.036923259026082234
0.9610000000000001,-0.0012,1.807,0.009564125073193189,1.3641119925272267,0.05639195367475994,0.036923259026082234
0.962,-0.003,-0.193,0.009647724763629132,1.3524318371316963,0.057179071967996334,0.03622206071021357
0.9630000000000001,0.005,0.807,0.009636676057037514,1.3459113614884286,0.05707504479959996,0.03583061501579485
0.964,-0.0027,0.807,0.009516125454439575,1.316769878103177,0.05594002164256787,0.03408115549409426
0.9650000000000001,0.0064,0.807,0.009466106018883034,1.306911659158821,0.05546907237782054,0.033489334042481375
0.966,-0.0048,-1.193,0.009425863852798397,1.2824035155546318,0.05509017928719426,0.03201802921490169
0.9670000000000001,0.0028,-2.193,0.00940095325958639,1.2275847407014717,0.05485563794487237,0.02872707705687402
0.968,-0.0037,0.807,0.009393109627363635,1.2333286133745929,0.054781787594760364,0.029071900709348526
0.9690000000000001,0.0075,-2.193,0.009390118278760282,1.2333286133745929,0.054753623074115985,0.029071900709348526
0.97,0.009,-0.193,0.009300694006984826,1.2261749416232217,0.053911664451939775,0.028642442160684164
0.9710000000000001,0.0127,1.807,0.009231109219258665,1.2237810917113068,0.0532565010289101,0.028498731441962098
0.972,0.004,-1.193,0.009282349928187798,1.2261749416232215,0.053738948979927655,0.02864244216068415
0.9730000000000001,0.0163,-1.193,0.009032190314701668,1.2261749416232215,0.051383614803723325,0.02864244216068415
0.974,0.021,0.807,0.00894578025867389,1.2390458593344642,0.05057003600379748,0.029415125872260552
0.9750000000000001,0.0073,-0.193,0.008903617209510092,1.2390458593344642,0.05017305717382346,0.029415125872260552
0.976,-0.0018,-1.193,0.008912933719930145,1.226174941623215,0.050260775151515856,0.028642442160683766
0.9770000000000001,-0.0003,-0.193,0.00892254904929413,1.22279787435777,0.050351306606816935,0.028439705655995535
0.978,-0.0047,-0.193,0.008936549679229291,1.2484766516328023,0.05048312709420549,0.029981287490232888
0.9790000000000001,-0.0084,-0.193,0.008818204584094744,1.2555032579710945,0.04936886950773058,0.030403117882366885
0.98,-0.0047,-0.193,0.008674448127881236,1.2578367373433748,0.04801535568648992,0.030543204358149844
0.9810000000000001,-0.0037,1.807,0.008662275859654508,1.2680765295695757,0.04790074981963233,0.03115793291446723
0.982,-0.0029,-1.193,0.008692294388538597,1.274995123892244,0.048183384038700594,0.03157327898846637
0.9830000000000001,0.009,-1.193,0.008692985406309625,1.2772929941808935,0.04818989019590873,0.031711227733318026
0.984,0.001,-2.193,0.008697869295828118,1.2772929941808935,0.04823587360520253,0.031711227733318026
0.9850000000000001,-0.0004,-1.193,0.008696060239018059,1.3167698781031607,0.0482188407465726,0.03408115549409329
0.986,-0.0069,0.807,0.008676416953508903,1.3498715708579934,0.04803389282053489,0.036068359467507256
0.9870000000000001,-0.0106,-1.193,0.008733416288105967,1.3167698781031607,0.048570560106378835,0.03408115549409329
0.988,-0.0051,1.807,0.008725721373655519,1.3221263498036862,0.04849810998249377,0.03440272218633472
0.9890000000000001,-0.0026,0.807,0.008817272409017415,1.3221263498036884,0.04936009277599822,0.034402722186334854
0.99,-0.0109,-0.193,0.008826451872798841,1.3581453444704836,0.04944652041498568,0.03656506143135072
0.9910000000000001,0.0057,2.807,0.008877045996515008,1.3292720923885657,0.049922880555789965,0.034831704720939174
0.992,0.0125,2.807,0.009198348117556196,1.3464134293142178,0.05294804459417785,0.035860755806047515
0.9930000000000001,0.0012,-0.193,0.009249037922555482,1.3559844946282629,0.05342530560540247,0.03643533847656965
0.994,-0.0126,0.807,0.009234056342369868,1.355984494628263,0.05328424915215256,0.03643533847656966
0.9950000000000001,0.0041,-1.193,0.009307611814307186,1.3559844946282642,0.05397679785930193,0.036435338476569726
0.996,-0.0025,1.807,0.009182015538622098,1.3624567629015054,0.05279426804802417,0.03682389012330412
0.9970000000000001,-0.0123,-2.193,0.009280056609915231,1.368898430081586,0.0537173566420238,0.03721060468531992
0.998,-0.0141,-1.193,0.00932104064435023,1.371038926841402,0.05410323466461213,0.037339105777324196
0.9990000000000001,0.0106,-0.193,0.009319492757887354,1.3680195148402006,0.05408866080979964,0.037157840499726404
1.0,0.0142,-1.193,0.009376842382100473,1.3585332406492778,0.05462862618638159,0.036588348120447894
1.0010000000000001,0.0175,1.806999999999778,0.009371862187057413,1.3563730087680308,0.054581736029231054,0.036458662263905615
1.002,0.0026,0.807,0.009251390691535067,1.3437308383560485,0.05344745769106133,0.03569971100841129
1.0030000000000001,-0.0054,0.807,0.009212609713746704,1.3468047044318883,0.053082322163792786,0.03588424534400836
1.004,0.0015,0.807,0.009248935217247263,1.3594182891388795,0.05342433860149983,0.0366414805051941
1.0050000000000001,-0.0007,0.806999999999778,0.009250191506384411,1.3749267630464894,0.05343616697258933,0.03757250542887538
1.006,0.0011,-0.193,0.009249669695479518,1.3654884754939924,0.05343125395309476,0.03700589384603397
1.0070000000000001,0.0102,-0.19299999999977796,0.009217422031109717,1.3633392643330986,0.05312763169794936,0.036876869599743414
1.008,0.0055,0.807,0.0090026130054102,1.363339264333098,0.05110513481071588,0.03687686959974338
1.0090000000000001,-0.0021,0.807,0.008518131085040377,1.353820195830201,0.046543579854270364,0.036305408469575196
1.01,0.007,0.807,0.008394020658588111,1.3633392643331002,0.04537503979709393,0.03687686959974351
1.0110000000000001,0.0131,-0.19300000000022205,0.008262344782512185,1.365488475493994,0.044135268569511374,0.03700589384603407
1.012,0.003,-1.193,0.00827068447161669,1.3821807420672252,0.044213789456608324,0.038007985754302635
1.0130000000000001,-0.0005,-0.19299999999977796,0.008265378870674477,1.393611587857496,0.04416383549701289,0.03869421719092885
1.014,-0.0092,0.807,0.008251806768846274,1.391505814136649,0.04403604974121715,0.03856780063766763
1.0150000000000001,-0.0081,-1.192999999999556,0.008251784916156428,1.391505814136649,0.044035843991030235,0.03856780063766763
1.016,-0.0033,0.807,0.008231729389357945,1.3944743729114968,0.04384701467908829,0.03874601302808471
1.0170000000000001,-0.0007,-1.192999999999556,0.008220394663012482,1.3893968489029709,0.04374029454162344,0.03844119248734743
1.018,0.0015,0.807,0.008225843518633731,1.3740517038471602,0.04379159729064469,0.03751997273422563
1.0190000000000001,0.0051,-1.192999999999778,0.008217508612943854,1.377057889406287,0.04371312144095324,0.03770044398480977
1.02,-0.0028,-0.193,0.00818646413870777,1.3594182891388817,0.043420827612498804,0.03664148050519423
1.0210000000000001,-0.0136,0.807,0.008158945731788905,1.3594182891388817,0.043161732855405664,0.03664148050519423
1.022,0.0092,0.807,0.008084109282338369,1.3476974552087342,0.042457123328071195,0.035937840122503714
1.0230000000000001,-0.007,1.8069999999995559,0.008083145195164931,1.342443018459514,0.042448046133568076,0.03562239892547978
1.024,-0.0041,-0.193,0.007917675478091524,1.342443018459514,0.04089009489468248,0.03562239892547978
1.0250000000000001,-0.0066,-0.193,0.007655423359423352,1.342443018459514,0.038420905846645405,0.03562239892547978
1.026,-0.0044,0.807,0.007748042290895085,1.3603027617929417,0.0392929432295741,0.0366945783206305
1.0270000000000001,0.0068,2.807,0.007852571399092878,1.3603027617929417,0.040277118802583105,0.0366945783206305
1.028,-0.003,1.807,0.007895176368605606,1.3603027617929417,0.04067825845646668,0.0366945783206305
1.0290000000000001,-0.0012,0.807,0.007883452472666334,1.365488475493994,0.040567874160619646,0.03700589384603407
1.03,0.0003,1.807,0.00783894861000534,1.365488475493994,0.040148855809744415,0.03700589384603407
1.0310000000000001,0.0079,1.807,0.007837205833351056,1.3676343092148227,0.0401324470003522,0.03713471533343954
1.032,-0.0012,0.807,0.007834975076315002,1.358145344470507,0.04011144369685086,0.03656506143135212
1.0330000000000001,-0.0073,-0.193,0.00785181729323889,1.3550972034419146,0.040270018650541695,0.036382071455328596
1.034,0.0029,-3.193,0.007830593637395807,1.3615736894784203,0.04007019102347356,0.03677087630832589
1.0350000000000001,-0.0008,-3.193,0.007838246228116335,1.343730838356054,0.04014224265566704,0.03569971100841162
1.036,-0.012,-1.193,0.00787203211854673,1.340649924483737,0.04046034780979344,0.03551475357030839
1.0370000000000001,0.008,-1.193,0.007863099992055894,1.3384608298279246,0.04037624893189358,0.03538333498605563
1.038,0.0159,-1.193,0.007798278909001519,1.335367757231259,0.03976593733871143,0.03519764761956123
1.0390000000000001,0.0138,-3.193,0.007794010982281718,1.3234339397883284,0.039725753419634344,0.03448122113296934
1.04,0.016,-0.193,0.007790443312929248,1.3234339397883284,0.03969216265157163,0.03448122113296934
1.0410000000000001,0.0258,2.807,0.0077809549710375625,1.3256478491734711,0.03960282682465072,0.034614129427403675
1.042,-0.0097,1.807,0.007783985710846153,1.2983114287215773,0.039631362226312396,0.032973033796939666
1.0430000000000001,-0.0006,0.807,0.007683124045227147,1.2703869142430102,0.03868171681876338,0.03129663293918102
1.044,-0.0119,0.807,0.007738239730232057,1.2726931047642516,0.039200648930657514,0.031435081175082535
1.0450000000000002,-0.001400000000002731,1.807,0.00763493937458024,1.2726931047642516,0.03822804246277026,0.031435081175082535
1.046,-0.0137,1.807,0.007625612514422851,1.2694397949425,0.03814022703893248,0.031239774238593997
1.0470000000000002,-0.008999999999998311,0.807,0.007626295272112858,1.2624907571463158,0.038146655424789545,0.030822600542304245
1.048,-0.0014,0.807,0.007587332663721581,1.248898610342117,0.03777980978628231,0.030006619065568844
1.0490000000000002,-0.010399999999998622,0.807,0.007457049603939034,1.2455831537812547,0.03655315237739836,0.02980758125501866
1.05,-0.0042,-0.193,0.007406564934741335,1.2479351826189733,0.03607782278650777,0.029948781316493346
1.0510000000000002,-0.0030999999999998446,-1.193,0.007304836299787497,1.2422588486514567,0.03512001458051343,0.029608012235642436
1.052,-0.0024,-1.193,0.007118413413918872,1.2351568993245643,0.033364782438146216,0.029181658754993782
1.0530000000000002,0.009599999999997512,-2.193,0.007119197298806274,1.2351568993245643,0.033372162969478904,0.029181658754993782
1.054,-0.0016,-2.193,0.007101777931152855,1.2327804909692879,0.033208153953834016,0.029038995110538014
1.0550000000000002,-0.00020000000000079936,0.807,0.0071958994267328725,1.2713333279577415,0.03409433846685642,0.031353449281122714
1.056,-0.0038,-0.193,0.007263295438108115,1.2879029271153668,0.03472889384819806,0.0323481770591788
1.0570000000000002,-0.012499999999996781,0.807,0.007276375027900712,1.2879029271153668,0.034852042442888954,0.0323481770591788
1.058,0.002,0.807,0.007228666594138962,1.2933789555415451,0.03440285201216237,0.03267692113663812
1.0590000000000002,-0.00789999999999878,1.807,0.007221751000682816,1.2933789555415451,0.034337739449071134,0.03267692113663812
1.06,-0.0024,0.807,0.007293266884256837,1.3033395373701862,0.035011084767989614,0.033274887770368675
1.0610000000000002,-0.0038999999999990227,2.807,0.007310429790143881,1.3010876690821944,0.03517267911263779,0.03313970067759232
1.062,0.0005,1.807,0.007267011297825667,1.3010876690821942,0.03476387987677703,0.0331397006775923
1.0630000000000002,0.0016000000000002442,-0.193,0.007356143122930482,1.2956442218727833,0.035603085018371464,0.032812912558213385
1.064,0.0027,0.807,0.007357125462730098,1.2956442218727837,0.03561233406729043,0.03281291255821341
