time_sec,bts_raw,diy_raw,bts_rms,diy_rms,bts_norm_rms,diy_norm_rms
0.0,0.0040999999999997115,-0.718,0.008372791391954505,0.6487961326902503,0.0010942845663399728,0.0
0.0010000000000000009,0.0014999999999993228,-0.718,0.00835402558241473,0.6497793922617319,0.000929607984397554,0.00015976534936185352
0.0020000000000000018,-0.004600000000000078,0.282,0.00830971436631586,0.6507611661909664,0.0005407614710932553,0.0003192893035117805
0.0030000000000000027,-0.0053000000000009324,-0.718,0.008248091598504634,0.6517414611918037,0.0,0.00047857295335253865
0.0040000000000000036,-0.013699999999999157,1.282,0.0082486738022804,0.6549024342333485,5.109042995662834e-06,0.000992185001435472
0.0050000000000000044,-0.006099999999999478,0.282,0.008400559395700634,0.6580482235316066,0.0013379585700958418,0.0015033299125373106
0.006000000000000005,-0.0013999999999998445,0.282,0.008734940823044539,0.7091294587377653,0.004272273255711269,0.00980328612476086
0.007000000000000006,-7.771561172376089e-17,-1.718,0.008779342421255509,0.71203571215077,0.004661912903852508,0.010275509945743473
0.008000000000000007,-0.0007000000000000777,1.282,0.008778922782624404,0.7149301514878165,0.004658230427203963,0.010745814151572986
0.009000000000000008,-0.0013999999999987566,1.281999999999995,0.00873894397464408,0.7158225746095138,0.004307402319608699,0.010890819901785753
0.010000000000000009,0.009800000000001655,-1.718,0.008426802567998276,0.7167138865229233,0.0015682516413402193,0.011035645096847605
0.01100000000000001,0.02469999999999798,0.282,0.008296382655548912,0.7195895088612201,0.0004237710180092633,0.01150289181463796
0.01200000000000001,0.006499999999999755,-1.718,0.008348602481113151,0.7322789555648826,0.0008820183622190543,0.013564741955353538
0.013000000000000012,0.004300000000000722,-0.718,0.008569722521266835,0.7331502612544009,0.002822424521319252,0.013706316430623675
0.014000000000000012,0.01079999999999848,-0.718,0.008848391611671782,0.7513274925223165,0.005267843846482115,0.01665985157859461
0.015000000000000013,-0.0028999999999998,-1.718,0.00884038640976464,0.7521767331113561,0.005197595382911543,0.01679784079663573
0.016000000000000014,-0.0011000000000016543,0.282,0.008857834617642365,0.7530250159511788,0.0053507095466375785,0.01693567439438827
0.017000000000000015,-0.01599999999999891,-0.718,0.008854554117210148,0.7557624896596887,0.005321922001016752,0.01738047397335394
0.018000000000000016,-0.006200000000000199,1.2819999999999965,0.008803707042421864,0.7734084536770247,0.004875721027903498,0.020247685936323517
0.019000000000000017,-0.007999999999999844,0.282,0.008822644940581948,0.7760740314863167,0.0050419077480429305,0.020680803479548687
0.020000000000000018,-0.006599999999999523,2.282,0.008807338537714001,0.7932683012637654,0.004907588676926669,0.02347462171197812
0.020999999999999908,-0.0023,-0.718,0.008913599414906407,0.804796872067706,0.005840065264902265,0.025347846438749988
0.02199999999999991,-0.0034,0.282,0.008861035322744607,0.8161626141829991,0.005378796860159852,0.02719461387684404
0.02299999999999991,0.0052,1.282,0.008790159414926326,0.8273722380465094,0.004756835829550309,0.02901601437444623
0.02399999999999991,0.0197,0.282,0.008803274322237572,0.8298644988300367,0.004871923756022648,0.029420970427079512
0.02499999999999991,0.0179,0.282,0.008818377680919625,0.8306334469744333,0.005004461042961396,0.029545913293128164
0.025999999999999912,0.0197,0.282,0.008907542131192095,0.8331159519304422,0.005786910468898697,0.02994928416598085
0.026999999999999913,-0.0017,0.282,0.008782271985089159,0.8355910815041678,0.004687620857334886,0.030351456646708675
0.027999999999999914,0.0012,-0.718,0.00876361249254792,0.836354764620556,0.00452387724446497,0.030475544022443714
0.028999999999999915,-0.0068,0.282,0.008602385243288683,0.8388203373976121,0.0031090514002765877,0.030876163663003
0.029999999999999916,-0.0046,-0.718,0.00857439505214354,0.8412786842421374,0.002863427623912041,0.03127560919484397
0.030999999999999917,-0.0112,0.282,0.008577989242266382,0.8437298683159913,0.0028949679069478636,0.031673890880848196
0.03199999999999992,0.0069,-0.718,0.008717032876380147,0.8461739518661976,0.004115124722361362,0.032071018835249786
0.03299999999999992,0.0047,-0.718,0.008771195152739698,0.8619710275057587,0.004590417755801098,0.03463781338437088
0.03399999999999992,0.0025,0.282,0.008804168853587794,0.8627113590729719,0.004879773583384622,0.034758106473713704
0.03499999999999992,-0.0074,-0.718,0.008747466522726037,0.8782110136613008,0.004382190677904777,0.03727657443692007
0.03599999999999992,-0.002,0.2819999999999861,0.008714962517761552,0.8789376663508115,0.004096956596974467,0.037394644908005814
0.03699999999999992,-0.0067,-1.718,0.008803477846617596,0.8796637187837243,0.004873709754072631,0.03751261784614315
0.03799999999999992,0.0038,0.282,0.008788823428472925,0.8803891724451249,0.004745112078320646,0.03763049349263684
0.038999999999999924,0.0002,0.282,0.00882578279542022,0.8827317605518394,0.005069443528383386,0.03801112991676665
0.039999999999999925,-0.0085,0.282,0.008872655428757186,0.8850681483452493,0.005480767379252264,0.038390758880353995
0.040999999999999925,-0.0074,1.282,0.008870723521402708,0.8954155653747324,0.005463814212425616,0.04007206333408756
0.041999999999999926,-0.0027,1.282,0.008872925451006224,0.8977189431240101,0.005483136919501818,0.04044632864662468
0.04299999999999993,-0.0052,-0.7179999999999931,0.008848741050380585,0.9000164259456757,0.005270910294110831,0.04081963611934336
0.04399999999999993,0.0024,0.282,0.008853279366947369,0.9023080588692345,0.005310735618907319,0.041191993068881945
0.04499999999999993,0.0017,0.282,0.008841192805401398,0.9030153209744377,0.005204671788375065,0.041306912852635415
0.04599999999999993,-0.0067,1.282,0.008860750790955023,0.9037220295692516,0.005376299993586449,0.04142174269901803
0.04699999999999993,-0.0099,0.282,0.008841894699664206,0.9044281859511943,0.005210831157510689,0.04153648281885758
0.04799999999999993,-0.0092,0.282,0.008855303696633676,0.9067086685762447,0.005328499824216935,0.041907028007404076
0.04899999999999993,-0.0031,0.282,0.008885450405834423,0.9074125007324436,0.005593047805345532,0.042021390474435844
0.04999999999999993,0.0024,0.282,0.00899871983387617,0.9081157873860072,0.006587026893162285,0.04213566430524006
0.050999999999999934,0.0045,0.282,0.00909395336598784,0.9206126832788287,0.007422734647800523,0.044166227745621185
0.051999999999999935,0.0038,0.28199999999999303,0.009420543895703053,0.9329421964559125,0.010288681465297227,0.04616959393429726
0.052999999999999936,0.0077,-0.718,0.009762435444660524,0.9344702088574678,0.013288900110700401,0.046417873678776006
0.05399999999999994,0.016,-0.718,0.010118210400262763,0.9329421964559124,0.01641095053464377,0.04616959393429724
0.05499999999999994,0.0246,-2.718,0.010058660254283591,0.9237069726066376,0.015888377049431895,0.04466900466213686
0.05599999999999994,0.01,-0.718,0.01003978352802832,0.9237069726066376,0.01572272713428211,0.04466900466213686
0.05699999999999994,0.0002,-0.718,0.01004026711435414,0.9252502367231563,0.015726970774453407,0.044919762588003474
0.05799999999999994,0.0056,0.282,0.010048104269982603,0.91281683334726,0.01579574457279718,0.04289951575621955
0.05899999999999994,-0.0056,0.28199999999999303,0.010060585587521927,0.9049538274798301,0.015905272526076125,0.04162189190603793
0.05999999999999994,-0.0013,-0.718,0.010118055285072144,0.8970218996761834,0.016409589344264834,0.040333069245758
0.06099999999999994,-0.0137,1.282,0.01020329607774646,0.8825765858385289,0.017157607294138875,0.03798591628752446
0.062000000000000055,-0.021600000000000334,0.282,0.01001402160246303,0.8922376368189457,0.015496657172453111,0.039555696262066876
0.06299999999999994,-0.0231,-1.718,0.010179308734637342,0.8874275816165763,0.016947109917795102,0.038774132398215144
0.06400000000000006,-0.0027999999999980684,0.282,0.010170849421004033,0.8858184256944014,0.016872876464036568,0.03851266801430217
0.06499999999999995,0.0059,0.282,0.010116189498142808,0.8842063412945932,0.016393216407434973,0.03825072779545634
0.06600000000000006,0.0032999999999995117,-0.718,0.010161835644193196,0.879352356022976,0.01679377740079316,0.037462025935632415
0.06699999999999995,0.0011,-1.718,0.010234959201792392,0.8890484445343917,0.0174354623491234,0.03903749899829028
0.06800000000000006,0.007599999999997824,-0.718,0.010376902909709045,0.8970508782119033,0.018681068332622508,0.040337777835450464
0.06899999999999995,-0.0022,-1.718,0.010582172893300257,0.8874422276491493,0.020482384668138513,0.03877651216504239
0.07000000000000006,0.014499999999999534,1.282,0.010809211455507265,0.8970508782119033,0.022474727940840246,0.040337777835450464
0.07099999999999995,0.0124,1.282,0.011152820442361813,0.866260432392604,0.02549001770811481,0.035334779160425975
0.07200000000000006,-0.001300000000001199,1.2819999999999723,0.011467117602218383,0.8744714278355508,0.028248085879364768,0.03666894624468256
0.07299999999999995,-0.0067,-0.718,0.011639698047037218,0.8842210406830464,0.029762540009501372,0.03825311623183646
0.07400000000000007,-0.005200000000001665,0.282,0.01168578274385845,0.9049825520265418,0.030166949440189023,0.04162655922621843
0.07499999999999996,-0.0127,-0.718,0.011536204575038001,0.9190757738623878,0.02885434837587843,0.04391650236589748
0.07600000000000007,-0.0035999999999997336,-0.718,0.011590648649368353,0.9283570696594117,0.029332114285669772,0.04542457765806866
0.07699999999999996,-0.0024,0.282,0.011994232981535909,0.9375464892326527,0.0328737088119279,0.046917724402970686
0.07800000000000007,0.005299999999998579,-0.718,0.012010360319712516,0.9466467082065702,0.03301523187924478,0.04839637735058097
0.07899999999999996,-0.0011,-0.718,0.012108562705877459,0.9451383818490274,0.03387699237286785,0.04815129630133027
0.08000000000000007,0.0033000000000027313,-0.718,0.013133730081251009,0.9451383818490273,0.042873196823178396,0.04815129630133025
0.08099999999999996,0.0156,-0.718,0.013643270918370594,0.9436276445346757,0.04734459696390164,0.0479058235067378
0.08200000000000007,0.010099999999999689,-1.718,0.013810893268205145,0.9451383818490273,0.048815542065918406,0.04815129630133025
0.08299999999999996,0.0087,0.282,0.014259347347020298,0.9571520204013233,0.0527508844075792,0.050103337467349573
0.08400000000000007,-0.0019000000000007993,-1.718,0.015007803910122448,0.9690167281695773,0.059318854112419085,0.052031179551627595
0.08499999999999996,-0.0055,0.282,0.01563008555911997,0.9821915689419998,0.06477959454811452,0.05417189915390025
0.08599999999999985,-0.0143,0.282,0.01599824884251781,0.9821915689419998,0.06801035690761481,0.05417189915390025
0.08699999999999997,-0.0111,0.2819999999999861,0.01600695134252839,0.9951920099804971,0.06808672440740526,0.056284281341285415
0.08799999999999986,-0.0086,-0.718,0.015992640532760245,0.9836430792797174,0.06796114201606471,0.05440774842802261
0.08899999999999997,-0.0129,-0.718,0.016062939308746717,0.9923206528641573,0.06857803851177152,0.05581772765989747
0.08999999999999986,-0.0006,1.282,0.01653833607798203,0.9923206528641572,0.07274981244234517,0.055817727659897454
0.09099999999999997,-0.0059,-0.718,0.01653991749272633,0.9923206528641572,0.07276368991318768,0.055817727659897454
0.09199999999999986,-0.0012,-0.718,0.016572308883676425,1.0108644067265442,0.0730479357665156,0.0588308173874048
0.09299999999999997,0.0032,-0.718,0.01657889631729772,1.0108644067265442,0.07310574281449975,0.0588308173874048
0.09399999999999986,0.0043,0.282,0.016572025891601106,1.017909617872988,0.07304545241147667,0.059975561514780625
0.09499999999999997,0.0079,0.282,0.016578642121277926,1.019310266539325,0.07310351215498069,0.06020314650861226
0.09599999999999986,0.0025,0.282,0.016683329392672284,1.0207089931937539,0.0740221797983649,0.06043041920352215
0.09699999999999998,0.005,-0.718,0.017164769733274278,1.0136832382035728,0.07824698819426659,0.05928883641796563
0.09799999999999986,0.0092,0.282,0.017436295049789545,1.0262848367013693,0.08062971838982765,0.06133641250561519
0.09899999999999998,0.0146,0.282,0.017579449730573547,1.0387335677022431,0.08188595108634958,0.0633591498530579
0.09999999999999987,0.0138,-1.718,0.017578470694401646,1.0387335677022431,0.08187735969944218,0.0633591498530579
0.10099999999999998,0.0247,-1.718,0.017628449970166354,1.0387335677022433,0.08231594543076623,0.06335914985305793
0.10199999999999987,0.0261,-0.7179999999999861,0.01787253306816562,1.046954629082509,0.08445786050260165,0.06469495250541783
0.10299999999999998,0.0272,0.282,0.018069513079763386,1.046954629082509,0.08618642941683613,0.06469495250541783
0.10399999999999987,0.0084,0.282,0.018103559605951714,1.0455910127976218,0.08648519966428128,0.064473384733825
0.10499999999999998,0.0004,0.282,0.018210883394979022,1.0564629644986585,0.08742700367762091,0.06623991842659549
0.10599999999999987,-0.0017,-0.718,0.018100434263194472,1.0318431460744142,0.08645777368185455,0.06223955676640045
0.10699999999999998,-0.0039,-0.718,0.01807844530714361,1.0564752671777662,0.08626481285513067,0.066241917432639
0.10799999999999987,-0.005,-0.718,0.018084631357648935,1.067236346585174,0.08631909762503526,0.06799043599365799
0.10899999999999999,-0.0108,-0.718,0.018262648897445773,1.067236346585174,0.08788126417678502,0.06799043599365799
0.10999999999999988,-0.0163,0.282,0.01839982996420851,1.0685723413913573,0.0890850763083012,0.06820751567754438
0.11099999999999999,-0.0149,1.282,0.018404186512967286,1.0672363465851742,0.08912330655662276,0.06799043599365802
0.11199999999999988,-0.0193,1.282,0.01836387881280307,1.0712393324625837,0.0887695923043847,0.06864086285523562
0.11299999999999999,0.0009,0.282,0.018235594136787082,1.072570341156709,0.08764384913209428,0.06885713236858512
0.11399999999999988,-0.002,0.282,0.018088782502696025,1.0605188721096597,0.08635552538351021,0.06689894429854769
0.11499999999999999,-0.01,1.282,0.018323395094216904,1.0685723413913573,0.08841433342855745,0.06820751567754438
0.11599999999999988,-0.0122,1.282,0.018396286264098675,1.069906667939192,0.08905397909289571,0.068424324293764
0.11699999999999999,-0.0234,1.282,0.018404817824050866,1.0685723413913573,0.08912884653352415,0.06820751567754438
0.11799999999999988,-0.0216,0.28200000000001385,0.018407365625164186,1.0645593270664606,0.08915120438480263,0.06755545933941472
0.119,-0.0234,1.2819999999999863,0.01840216901985744,1.0632182896894025,0.08910560234467722,0.06733756031125661
0.11999999999999988,-0.0282,0.282,0.018415120560758613,1.059184990257909,0.08921925667341651,0.06668220793896028
0.121,-0.0267,1.282,0.018365479676054796,1.0510595953140733,0.08878364044272334,0.06536194968818237
0.12199999999999989,-0.0202,1.282,0.018324591572776355,1.044238062670605,0.08842483294892826,0.06425355005742688
0.123,-0.0115,2.282,0.01832710904957749,1.0685723413913555,0.08844692469369693,0.06820751567754409
0.12399999999999989,-0.0061,-1.718,0.018362606539828182,1.0672363465851724,0.08875842766134821,0.06799043599365774
0.125,-0.021,1.282,0.018657682066653074,1.068572341391355,0.09134781923912111,0.06820751567754402
0.1259999999999999,-0.0365,1.282,0.019190054183988402,1.075239503626206,0.09601957189750844,0.0692908323668472
0.127,-0.0064,1.282,0.01959435808967822,1.1246004947988333,0.09956748093462478,0.07731127399617109
0.1279999999999999,0.0155,0.282,0.01965066175320464,1.1321982351106379,0.10006156539395575,0.07854579605980788
0.129,0.0514,0.282,0.019659301874946772,1.1384928567889079,0.10013738550249116,0.07956858033844363
0.1299999999999999,0.0373,0.282,0.019665139324179726,1.1447528669241647,0.10018861117356641,0.08058574074580283
0.131,0.0243,-0.718,0.02018503643992528,1.150978830258324,0.10475089130335452,0.08159736904421563
0.1319999999999999,0.0362,-1.718,0.0207719878765673,1.160864202659793,0.10990159669378997,0.08320359798019535
0.133,0.0471,-1.718,0.021056589131935727,1.160864202659793,0.11239907285389161,0.08320359798019535
0.1339999999999999,0.0438,-1.718,0.021269438784676128,1.1900277244498838,0.11426690345329253,0.08794224521288396
0.135,0.035,-0.718,0.021268690497095392,1.1900277244498838,0.11426033696646742,0.08794224521288396
0.1359999999999999,-0.0056,-1.718,0.021267118519778395,1.1912260130947048,0.11424654231237028,0.08813694965261566
0.137,0.0002,-0.718,0.02122691776666489,1.1912260130947048,0.11389376655813425,0.08813694965261566
0.1379999999999999,-0.0154,1.282,0.021256084570166676,1.191226013094705,0.11414971552194955,0.0881369496526157
0.139,-0.0393,0.282,0.021378885556801095,1.190027724449884,0.11522733739034012,0.08794224521288399
0.1399999999999999,-0.0088,0.282,0.021674661492400913,1.1960180292667393,0.11782287530156976,0.08891558243695676
0.14100000000000001,-0.0127,2.2819999999999725,0.022045451426872753,1.1888282279813311,0.12107668744849891,0.08774734451939988
0.1419999999999999,0.0055,1.282,0.022228257519064806,1.2102695020956364,0.12268087523249153,0.09123123905649909
0.14300000000000002,0.0023,1.2819999999999445,0.022349351917093817,1.2313374759830904,0.1237435211853627,0.0946544777475841
0.1439999999999999,0.0053,-0.718,0.02235680884965337,1.2301782596218611,0.12380895839248557,0.0944661219844577
0.14500000000000002,0.0188,-0.718,0.022394941498905044,1.2301782596218611,0.12414358580761867,0.0944661219844577
0.1459999999999999,0.041,-0.718,0.02303126759131921,1.2313374759830904,0.1297275711761924,0.0946544777475841
0.14700000000000002,0.0323,-1.718,0.02332422745779638,1.241732192700456,0.13229839708996474,0.09634346771120585
0.1479999999999999,0.0243,-1.718,0.02341637779910632,1.2405826893337442,0.13310704876041812,0.09615669016812164
0.14900000000000002,-0.0025,0.282,0.023833640574946045,1.2924624274349696,0.1367686764430104,0.10458639146261738
0.1499999999999999,-0.0134,0.282,0.023905399179230218,1.3023693734725832,0.1373983834457075,0.1061961258000349
0.15100000000000002,-0.0297,1.282,0.023893771569100705,1.2935658296527592,0.1372963470753485,0.10476567824092575
0.1519999999999999,-0.0268,0.282,0.023775824741781176,1.2835909383510609,0.13626132216300643,0.10314490378839637
0.15300000000000002,-0.0134,0.282,0.023635433185790106,1.283590938351061,0.13502933685881874,0.10314490378839641
0.15399999999999991,-0.0253,-1.718,0.023479261039916228,1.2847019601180245,0.13365887132560453,0.10332542863239062
0.15500000000000003,-0.0141,1.282,0.023545099976295395,1.285812021893259,0.1342366311594484,0.10350579749172076
0.15599999999999992,-0.0043,2.282,0.023556918395228773,1.2924624274349688,0.13434034194420227,0.10458639146261724
0.15700000000000003,0.0048,-1.718,0.023569942652475747,1.2924624274349688,0.1344546343844631,0.10458639146261724
0.15799999999999992,0.0261,0.282,0.0235748391670436,1.2913580824143838,0.13449760302276012,0.10440695149259596
0.15900000000000003,0.0232,-0.718,0.02357113556606785,1.2913580824143835,0.134465102620991,0.10440695149259593
0.15999999999999992,0.0043,0.282,0.023633139703853775,1.2968804256324789,0.13500921074780706,0.10530425177740843
0.16100000000000003,0.0065,-1.718,0.02358272841900159,1.3034743607277215,0.13456683398472694,0.10637567012381051
0.16199999999999992,0.0,-0.718,0.023535200176562174,1.2968804256324789,0.13414975693329118,0.10530425177740843
0.16300000000000003,-0.0018,0.282,0.02345582780224873,1.2968804256324789,0.13345323641948717,0.10530425177740843
0.16399999999999992,-0.0293,1.282,0.02356689590259656,1.2968804256324789,0.13442789808219624,0.10530425177740843
0.16500000000000004,-0.0173,-0.718,0.02356926756871274,1.3034743607277215,0.1344487102868972,0.10637567012381051
0.16599999999999993,-0.0064,0.282,0.023829440174635074,1.2979800721516552,0.13673181645226315,0.10548292830943144
0.16700000000000004,0.0033,1.282,0.02391291443812181,1.3012734361559941,0.13746433248691764,0.10601805195937071
0.16799999999999993,0.0062,0.282,0.023800095325708617,1.2946682914783099,0.13647430507719654,0.10494481221920149
0.16900000000000004,-0.0072,1.282,0.023701252835728395,1.295769815311926,0.13560692744735747,0.10512379378745909
0.16999999999999993,-0.005,0.282,0.02358718267710223,1.289136472057028,0.13460592166690488,0.10404597218948679
0.17100000000000004,0.0015,-0.718,0.02353952003970302,1.289136472057028,0.13418766525240663,0.10404597218948679
0.17199999999999993,0.0034,-2.717999999999917,0.023776470102481847,1.289136472057028,0.13626698543024152,0.10404597218948679
0.17300000000000004,-0.0132,0.2819999999999722,0.024207052490178713,1.2824688194657123,0.14004549739372693,0.10296257582440503
0.17399999999999993,-0.0334,-0.7179999999999445,0.02441962141226469,1.2611237574203622,0.141910864482853,0.09949431434622055
0.17500000000000004,-0.0466,1.2820000000000555,0.024425159351751383,1.2577252655439661,0.14195946185051464,0.09894210894931026
0.17599999999999993,-0.0397,3.282,0.024355207324421542,1.252030232149334,0.14134560819628217,0.09801674902776908
0.17700000000000005,-0.015,1.282,0.024406335221833858,1.252030232149334,0.14179427348673593,0.09801674902776908
0.17799999999999994,0.0079,1.282,0.024555992592967507,1.245163897456898,0.14310756957921422,0.096901069717046
0.17900000000000005,0.005,1.282,0.024626959469528052,1.2463091754633715,0.14373032889254683,0.09708716070067608
0.17999999999999994,0.0457,1.282,0.024177698131603254,1.2735175102002332,0.13978790256814408,0.10150811853405763
0.18100000000000005,0.0515,-1.718,0.023920603882475452,1.28357068656731,0.13753181006684886,0.10314161316870651
0.18199999999999994,0.036,-1.718,0.023861580856517562,1.2824586847539137,0.1370138622453044,0.10296092908145113
0.18300000000000005,0.0313,-2.718,0.023683036296865988,1.279116879006108,0.13544707090888392,0.10241793435423671
0.18399999999999994,0.0009,-1.718,0.02334525033786641,1.2757663195961535,0.13248288026001825,0.10187351728450768
0.18500000000000005,0.005,-0.718,0.02303507815517881,1.265651153986611,0.12976101021490494,0.10022995030145107
0.18599999999999994,-0.0059,0.282,0.022779034511973054,1.2645233941187102,0.12751413715025825,0.10004670576001225
0.18700000000000006,-0.01570000000000193,0.282,0.02278134592503015,1.2554544933845138,0.1275344206131642,0.09857314156989343
0.18799999999999994,-0.0244,0.282,0.022960558149884083,1.2645233941187106,0.12910707094667048,0.10004670576001233
0.18900000000000006,-0.03790000000000052,1.282,0.023124379529288922,1.2846918430230854,0.1305446611956977,0.10332378475191963
0.18999999999999995,-0.0402,0.282,0.022798271292480368,1.294658252265178,0.12768294666816404,0.10494318099338903
0.19100000000000006,-0.028999999999998714,2.282,0.02279905804086672,1.2957597846331173,0.12768985066209185,0.10512216394834979
0.19199999999999995,-0.0232,2.282,0.02279471765672279,1.2846817258484737,0.1276517622639535,0.10332214085850301
0.19300000000000006,-0.006499999999995492,0.282,0.022791700538521295,1.2791067177359703,0.12762528599008505,0.10241628329593978
0.19399999999999995,0.0138,0.282,0.022791218684627055,1.2723865075799201,0.12762105755261044,0.10132434709261494
0.19500000000000006,0.05439999999999613,-0.718,0.022821523003907426,1.2712647227691363,0.12788698861764689,0.10114207341087122
0.19599999999999995,0.037,-1.718,0.022755192222121662,1.2701419472024187,0.12730491266729171,0.10095963874572854
0.19700000000000006,0.021400000000005328,0.282,0.022391625539506035,1.269018178250026,0.12411448709708708,0.10077704266989225
0.19799999999999995,0.0454,-3.718,0.02216286371872273,1.2656408846061362,0.12210702162400565,0.10022828167680008
0.19900000000000007,0.023599999999997335,-1.718,0.022038632427091927,1.27688414961188,0.12101684832598236,0.10205514836969568
0.19999999999999996,0.0116,-0.718,0.022038632427091923,1.27688414961188,0.12101684832598233,0.10205514836969568
0.20100000000000007,-0.00659999999999929,0.282,0.022000497985681947,1.27688414961188,0.12068220518402951,0.10205514836969568
0.20199999999999996,-0.0034,-0.718,0.02181786802204362,1.27688414961188,0.11907956299007119,0.10205514836969568
0.20300000000000007,-0.0005000000000041966,-0.718,0.0216588604901729,1.283580812499126,0.11768421594703148,0.10314325848504119
0.20399999999999996,-0.0194,-0.7179999999999445,0.021630765900763398,1.284691843023086,0.11743767603916197,0.10332378475191974
0.20500000000000007,-0.007399999999996559,1.2819999999999445,0.0214894054806255,1.2746475092753207,0.1161971886111662,0.10169172691402782
0.20599999999999996,0.0081,-0.7179999999999722,0.021493879878836913,1.2679036644066914,0.11623645302990299,0.10059595041438471
0.20700000000000007,0.006299999999997979,0.2819999999999722,0.021578925765961494,1.253169234991848,0.1169827606149956,0.09820182038871621
0.20799999999999996,-0.0028,-0.7179999999999445,0.0217071723716804,1.253169234991848,0.11810816970703311,0.09820182038871621
0.20900000000000007,-0.020199999999996714,1.282,0.021602879015630457,1.259991945298031,0.11719295880940536,0.09931041137249842
0.20999999999999996,-0.0054,1.282,0.021482277574558093,1.259991945298031,0.11613463872728831,0.09931041137249842
0.21100000000000008,0.00039999999999960033,0.282,0.021481242002936465,1.259991945298031,0.1161255512219161,0.09931041137249842
0.21199999999999997,-0.0014,1.282,0.02155089149746368,1.2497491122571929,0.11673675004435162,0.09764610029260849
0.21300000000000008,-0.02279999999999405,0.282,0.021645057719386757,1.2486069895181207,0.1175630917765245,0.09746052199394313
0.21399999999999997,0.004,1.282,0.02167253354913153,1.2554544933845142,0.11780420185060957,0.09857314156989351
0.21499999999999986,0.0366,-0.718,0.021474677923124692,1.2486069895181209,0.11606794911182815,0.09746052199394316
0.21599999999999997,0.0235,-1.718,0.02140858167759906,1.2543175657086327,0.11548793129968322,0.09838840739327862
0.21699999999999986,0.0036,0.282,0.021398883090031108,1.2543175657086327,0.11540282278107791,0.09838840739327862
0.21799999999999997,-0.0,-0.718,0.021400502836054866,1.2543175657086327,0.11541703662238553,0.09838840739327862
0.21899999999999986,-0.0033,0.282,0.02141665182761345,1.261134063583683,0.11555874970574855,0.0994959889475479
0.21999999999999997,-0.0239,0.282,0.02149784467464561,1.2543175657086327,0.11627124550823928,0.09838840739327862
0.22099999999999986,-0.0428,1.282,0.02149190069447622,1.261134063583683,0.11621908499071118,0.0994959889475479
0.22199999999999998,-0.0497,0.282,0.0215354821395325,1.260002260718986,0.1166015275063281,0.09931208747805638
0.22299999999999986,-0.0341,0.282,0.021592775010030384,1.2324956020507938,0.11710429260491148,0.0948426563539036
0.22399999999999998,-0.008,1.282,0.021629257344293315,1.2394321198679705,0.11742443792531275,0.09596973939947831
0.22499999999999987,0.0102,-0.718,0.02137218384143018,1.2382804813313801,0.11516852747979006,0.09578261492240894
0.22599999999999998,0.0399,1.282,0.02086729460671601,1.2313374759830915,0.11073794678695982,0.09465447774758429
0.22699999999999987,0.0279,0.282,0.020583525777515214,1.1852224549437216,0.10824777545938963,0.0871614589549144
0.22799999999999998,0.0243,-0.718,0.020649405935939627,1.188828227981332,0.10882589703118556,0.08774734451940001
0.22899999999999987,0.0211,-2.718,0.02107033826755941,1.1815946787961475,0.11251972635697507,0.08657199820575492
0.22999999999999998,0.0123,-1.718,0.021078026415696612,1.185211488681148,0.11258719256215093,0.08715967709707942
0.23099999999999987,-0.0174,0.282,0.020580110626273178,1.1791662866322363,0.1082178063055323,0.0861774198729244
0.23199999999999998,-0.0213,1.282,0.019927705941414894,1.1755308773433584,0.1024927256305967,0.08558671884955604
0.23299999999999987,-0.0249,1.282,0.019608996438677157,1.1645453984106295,0.09969593759796862,0.08380173863629448
0.23399999999999999,-0.0217,0.282,0.019380382185023907,1.1422575312523973,0.0976897670783787,0.08018028506864701
0.23499999999999988,-0.0068,0.2819999999999722,0.019420270588186354,1.130948897640626,0.09803980185188584,0.07834279693001904
0.236,0.0066,-0.7180000000000277,0.019604575062664376,1.1296866732684818,0.09965713846768204,0.07813770386646027
0.23699999999999988,0.0287,-1.7180000000000277,0.01969097499569443,1.1296866732684818,0.10041532828205091,0.07813770386646027
0.238,0.0316,-2.7179999999999724,0.019802736215179893,1.137250434357478,0.10139607230908444,0.07936670480163774
0.23899999999999988,0.0073,-1.7179999999999722,0.019854697109270104,1.1447642207599507,0.10185204743849798,0.08058758557863595
0.24,-0.009,-0.718,0.0194986810966131,1.1608753989201421,0.09872788165407693,0.08320541720931662
0.24099999999999988,-0.0119,-1.718,0.019137755556040893,1.1608753989201421,0.09556063303465681,0.08320541720931662
0.242,-0.0039,-0.718,0.018998977022322554,1.1447642207599504,0.09434280256849555,0.0805875855786359
0.24299999999999988,-0.0016,0.282,0.01888724869131801,1.1284230370061903,0.09336234714945471,0.07793238139133082
0.244,-0.0128,0.282,0.018875852909357733,1.1284230370061903,0.09326234515285543,0.07793238139133082
0.24499999999999988,-0.0069,0.282,0.018835822806985543,1.1359952117558139,0.0929110669189223,0.07916274942373117
0.246,0.0059,0.282,0.01813222893400315,1.1460098387214106,0.08673678310597026,0.0807899803424969
0.2469999999999999,0.0045,1.282,0.018275703359752406,1.1460098387214108,0.08799582167707275,0.08078998034249694
0.248,-0.0061,2.282,0.01875021793062237,1.1571712963405845,0.09215985400656637,0.08260355452741722
0.2489999999999999,-0.0025,0.282,0.018712179494864627,1.1571712963405845,0.09182605334799393,0.08260355452741722
0.25,-0.0036,0.282,0.019140359393929295,1.1755419339133273,0.09558348262835462,0.08558851538102653
0.2509999999999999,-0.0092,1.282,0.019114795819900245,1.1755419339133273,0.0953591532710512,0.08558851538102653
0.252,0.0056,1.282,0.019103160806258356,1.176754973519476,0.09525705193226595,0.08578561663697881
0.2529999999999999,0.0078,-0.718,0.019163355841785634,1.186425596915778,0.09578528455018338,0.08735695198958464
0.254,0.0059,0.282,0.01927015981273849,1.1852224549437218,0.09672252697700838,0.08716145895491444
0.2549999999999999,0.0149,0.282,0.019627694181043025,1.2301782596218624,0.09986001686650883,0.0944661219844579
0.256,0.0197,1.282,0.020342430944726722,1.2451847738918664,0.10613208346627641,0.09690446183345443
0.2569999999999999,0.0241,-1.718,0.020779907237794902,1.2880494570767032,0.10997109187519233,0.10386934809842253
0.258,0.0151,1.282,0.021284016187536343,1.3089555169093086,0.11439482529282362,0.1072662781154913
0.2589999999999999,0.004,-0.718,0.021437517933876816,1.3284593547809074,0.11574185713048371,0.11043536750127537
0.26,-0.0036,0.282,0.021377878841914336,1.3634872198435268,0.11521850311297038,0.11612688504297265
0.2609999999999999,-0.0184,0.282,0.021431206357065875,1.3571848908644568,0.11568647082307768,0.11510284844029077
0.262,-0.0201,0.282,0.02150890171695688,1.3634872198435268,0.11636827494522432,0.11612688504297265
0.2629999999999999,-0.011,1.282,0.021651689708354828,1.3770417456861985,0.11762128981335457,0.11832929793525258
0.264,-0.0029,0.282,0.021614857583307303,1.3832536065553402,0.11729807495573565,0.11933863478864341
0.2649999999999999,-0.0042,1.282,0.021611632568778072,1.3780774284040176,0.11726977431843764,0.11849758128182715
0.266,-0.0005,0.282,0.021707508176160687,1.4017147560416507,0.11811111650950905,0.12233830250899674
0.2669999999999999,-0.0041,1.282,0.023568331799419973,1.416918376837227,0.13444049858207877,0.12480866929557205
0.268,0.0104,1.282,0.024308451450430337,1.4625564617735587,0.14093530894975712,0.1322241929228398
0.2689999999999999,0.0201,0.282,0.024647340472388483,1.4703485413974906,0.14390917936422515,0.13349029229220266
0.27,-0.0003,1.282,0.02489277116572299,1.471318545558325,0.14606292005931326,0.13364790383053193
0.2709999999999999,-0.0137,0.282,0.024853974386639822,1.4722879106404434,0.14572246467121772,0.13380541152788436
0.272,-0.016,0.282,0.024487508291123648,1.4664532454640822,0.14250659573257807,0.1328573634769448
0.2729999999999999,-0.0182,1.282,0.023989010004585646,1.4674258245125296,0.13813209785881256,0.13301539339698218
0.274,0.0039,0.282,0.023775398140703355,1.4858101129747376,0.13625757858843804,0.13600257232116794
0.2749999999999999,0.0068,0.282,0.023872099715595663,1.4858101129747379,0.13710616893504482,0.136002572321168
0.276,0.0202,0.282,0.023859807905212773,1.4848495757159599,0.13699830397374654,0.13584649901644286
0.2769999999999999,0.0224,-1.718,0.02354428566558789,1.479064465064996,0.13422948529645393,0.13490650285362338
0.278,0.0427,0.282,0.023397573485114,1.4848495757159599,0.13294203428835583,0.13584649901644286
0.2789999999999999,0.0076,-1.718,0.023415091033832908,1.4896547935262021,0.1330957569423626,0.1366272768745789
0.28,0.0029,-0.718,0.023400738459036306,1.4664621085910063,0.13296980804820124,0.13285880360588995
0.2809999999999999,-0.0015,1.282,0.023502823054731087,1.4761766150012778,0.13386563629650353,0.1344372693086711
0.28200000000000003,-0.0055,0.2820000000000555,0.023684125536734924,1.4761766150012776,0.13545662937201078,0.13443726930867106
0.2829999999999999,-0.0091,1.2819999999999445,0.02360613024032788,1.4761766150012776,0.13477219320139552,0.13443726930867106
0.28400000000000003,-0.0124,0.282,0.023474212011788433,1.4713273793771748,0.1336145643271532,0.13364933919734215
0.2849999999999999,-0.0272,0.282,0.023373587517144703,1.4771427920112423,0.13273154897934786,0.1345942589907647
0.28600000000000003,-0.0193,0.2820000000000555,0.023374375706152598,1.478108337472225,0.13273846561523664,0.13475114605535354
0.2869999999999999,-0.0262,1.282,0.02345528268606309,1.4781083374722248,0.13344845283314505,0.13475114605535352
0.28800000000000003,-0.0283,1.2820000000000555,0.023389623653265117,1.4781083374722246,0.13287227171652985,0.13475114605535346
0.2889999999999999,-0.0063,2.282,0.023358479790959775,1.4635405112229616,0.13259897336603457,0.13238408661585138
0.29000000000000004,-0.015,0.282,0.023373330512882675,1.4557119902908786,0.13272929367651504,0.13111206606504588
0.2909999999999999,-0.0177,1.282,0.02336236911835229,1.4557119902908786,0.13263310358246339,0.13111206606504588
0.29200000000000004,-0.0108,1.282,0.02336288354708764,1.447841140927586,0.132637617875631,0.12983316776110548
0.2929999999999999,0.0004,0.282,0.023400644693808932,1.447841140927586,0.13296898522533732,0.12983316776110548
0.29400000000000004,0.0062,1.282,0.023451782214631296,1.447841140927586,0.13341773496460052,0.12983316776110548
0.29499999999999993,0.0188,-1.718,0.02353375854346408,1.4537505081850721,0.13413710609557988,0.13079335381144533
0.29600000000000004,0.0435,-1.718,0.023533174829520855,1.4537505081850721,0.13413198380033337,0.13079335381144533
0.29699999999999993,0.0471,-1.718,0.02353038346629929,1.4537505081850723,0.13410748860585145,0.13079335381144538
0.29800000000000004,0.0438,-3.718,0.02352772321684254,1.4537505081850712,0.13408414398079155,0.1307933538114452
0.29899999999999993,0.0467,-2.718,0.02358563118427474,1.4359494517533562,0.13459230677141115,0.12790094159161028
0.30000000000000004,0.006,-0.718,0.02363272482224173,1.4359494517533564,0.13500557001567462,0.1279009415916103
0.30099999999999993,0.0001,-0.718,0.02363039799619155,1.4359494517533562,0.13498515129833094,0.12790094159161028
0.30200000000000005,-0.0155,-1.718,0.02362599559186372,1.4299665231413292,0.13494651865125548,0.12692880289331396
0.30299999999999994,-0.0202,0.282,0.02366019884443987,1.4299665231413292,0.13524666422790194,0.12692880289331396
0.30400000000000005,-0.042,3.282,0.0237259340969023,1.4289684489136787,0.1358235141988926,0.1267666303782482
0.30499999999999994,-0.0539,2.282,0.023745518392563236,1.434955538919805,0.13599537328455352,0.12773944524243336
0.30600000000000005,-0.0431,3.282,0.023727680496330818,1.4409177524628152,0.13583883946839323,0.12870821804393648
0.30699999999999994,-0.0464,2.282,0.023661001279827364,1.4438851260764833,0.13525370588078467,0.12919037300670028
0.30800000000000005,-0.0257,2.282,0.023600181322367318,1.4359494517533564,0.1347199893530124,0.1279009415916103
0.30899999999999994,-0.0124,3.282,0.023563785868985675,1.4299665231413292,0.1344006064429157,0.12692880289331396
0.31000000000000005,-0.016,0.282,0.02367809384124309,1.4299665231413292,0.13540369912166333,0.12692880289331396
0.31099999999999994,-0.0182,1.282,0.02369148381590366,1.4299665231413292,0.13552120086091549,0.12692880289331396
0.31200000000000006,-0.024799999999998712,2.282,0.02372226234266399,1.4299665231413292,0.1357912932634506,0.12692880289331396
0.31299999999999994,-0.019,1.282,0.023636372278786875,1.4299665231413292,0.1350375777303093,0.12692880289331396
0.31400000000000006,0.0013000000000090149,-0.718,0.023612184902400114,1.4428966795965552,0.13482532499156738,0.12902976486031503
0.31499999999999995,0.0419,-2.718,0.023634862962387884,1.4428966795965552,0.13502433294781652,0.12902976486031503
0.31600000000000006,0.0947999999999922,-2.718,0.02365816147716067,1.4369426771116869,0.1352287856131271,0.1280623262360838
0.31699999999999995,0.0597,-3.718,0.023676241407344815,1.4428966795965554,0.13538744336237962,0.12902976486031506
0.31800000000000006,0.04079999999999874,-1.718,0.02419007221447585,1.4557119902908773,0.1398964894994892,0.13111206606504566
0.31899999999999995,0.0351,-0.718,0.024253677973067517,1.4557119902908775,0.14045465241244695,0.1311120660650457
0.32000000000000006,0.01959999999999687,-0.718,0.024466636584523683,1.4566917408946771,0.14232343916291862,0.1312712612583024
0.32099999999999995,0.0055,0.282,0.02521875623394436,1.459627046862717,0.14892355373915436,0.1317482056960374
0.32200000000000006,-0.007699999999995582,-0.718,0.025497357917795085,1.4684066107728644,0.1513683815480852,0.13317475686933117
0.32299999999999995,0.0122,2.282,0.02553344088249066,1.4771339929707543,0.15168502226000455,0.13459282927493135
0.32400000000000007,0.02299999999999638,1.282,0.025513511539301918,1.471318545558324,0.15151013526087329,0.13364790383053174
0.32499999999999996,0.0067,0.282,0.02551066085378554,1.4771339929707545,0.15148511949238033,0.13459282927493138
0.32600000000000007,0.009599999999995825,0.282,0.025543356441326333,1.4771339929707548,0.151772034777831,0.13459282927493144
0.32699999999999996,-0.0092,1.282,0.025533711348279583,1.4858101129747368,0.15168739569247264,0.1360025723211678
0.32800000000000007,-0.025799999999998557,1.282,0.02543607784838384,1.4858101129747368,0.15083062737603903,0.1360025723211678
0.32899999999999996,-0.0193,0.282,0.025096079768688048,1.4915690605881655,0.14784702458967275,0.136938317371714
0.33000000000000007,-0.025000000000002,2.282,0.025507912987057832,1.4886967369351793,0.1514610059949374,0.13647160664220828
0.33099999999999996,-0.034,0.282,0.02570964694800507,1.5058743927097766,0.15323129248751235,0.1392627253413234
0.3320000000000001,-0.00929999999999758,1.282,0.025860851972186825,1.5368639588430606,0.15455816978006914,0.14429807816519266
0.33299999999999996,0.0016,-0.718,0.026052973344251693,1.5727016691185751,0.15624410242276562,0.150121183750495
0.3340000000000001,-0.0014999999999980682,1.282,0.026074278265809925,1.5727016691185758,0.15643106060612164,0.1501211837504951
0.33499999999999996,0.0072,-0.718,0.02628166713613909,1.5727016691185758,0.15825097091834775,0.1501211837504951
0.3360000000000001,0.020600000000000465,-0.718,0.02707206053310319,1.5736085820058592,0.16518695109687573,0.15026854387642732
0.33699999999999997,0.0227,-1.718,0.027756117994832716,1.573608582005859,0.171189796026697,0.1502685438764273
0.3380000000000001,0.029199999999995983,-1.718,0.027654353751335875,1.5690604921387719,0.1702967789816558,0.14952954556141534
0.33899999999999997,0.0111,-0.718,0.02752580306282552,1.564499180766496,0.16916870145612398,0.1487883989445136
0.3400000000000001,-0.005500000000001443,-0.718,0.027666329837168022,1.5525820802563628,0.1704018733489255,0.1468520438033042
0.34099999999999997,-0.012,-0.718,0.02765322193133503,1.558094248310749,0.17028684686288847,0.14774769077231692
0.34199999999999986,-0.0138,-0.718,0.02759789681368125,1.5699695083997336,0.16980134948791642,0.14967724745491365
0.34299999999999997,-0.0155,0.282,0.027576913238641327,1.5699695083997336,0.16961721123333257,0.14967724745491365
0.34399999999999986,-0.0234,1.2819999999999445,0.027615681768958605,1.5699695083997336,0.1699574187285674,0.14967724745491365
0.345,-0.0067,0.282,0.027628953288323172,1.5699695083997336,0.1700738809809156,0.14967724745491365
0.34599999999999986,-0.0045,0.2820000000000555,0.02757384703867422,1.5626742552402801,0.16959030424970017,0.14849187514478498
0.347,-0.0026,1.281999999999889,0.027248125365483742,1.559932863955482,0.16673198195393746,0.14804643901677114
0.34799999999999986,0.0177,-0.7179999999999445,0.026848635424830628,1.5516712542997237,0.16322631715393512,0.14670404786063462
0.349,0.0152,0.282,0.026490263860981456,1.5144030291997541,0.16008148057894178,0.14064850446610558
0.34999999999999987,-0.0015,0.282,0.02613571336576978,1.4973318996110525,0.15697017522578335,0.13787469471957983
0.351,-0.008,0.2820000000000555,0.02624051816831284,1.4973318996110523,0.15788987424635376,0.1378746947195798
0.35199999999999987,-0.0138,1.282,0.026336535014784834,1.4963787582957415,0.15873245586013307,0.13771982314787226
0.353,-0.0192,0.282,0.02632444618044154,1.4887229288771526,0.15862637208500457,0.1364758624510315
0.35399999999999987,-0.0112,1.282,0.02652094303293971,1.5068474044628053,0.16035070110812816,0.13942082556954855
0.355,0.0117,1.282,0.02621579288217346,1.4752274261836946,0.15767290116025529,0.13428303996023663
0.35599999999999987,0.0084,-1.718,0.02591448714891859,1.4567095858793688,0.15502883732880154,0.13127416080822424
0.357,0.0171,-0.718,0.025725955200266368,1.4239767119658653,0.15337440313958164,0.12595554587877247
0.3579999999999999,-0.0073,0.282,0.025303644523172436,1.4047834476706333,0.1496684783472503,0.1228369201725395
0.359,-0.0235,-0.718,0.02517501002213073,1.3853242918095625,0.1485396653372643,0.11967509096222612
0.3599999999999999,-0.0087,0.282,0.025159973205668637,1.3445012760946258,0.14840771198172029,0.11304194590382241
0.361,-0.022,0.282,0.025112175906212446,1.3445012760946258,0.14798827386028773,0.11304194590382241
0.3619999999999999,0.0001,0.282,0.025086609532273207,1.3391753208778718,0.1477639199327872,0.11217655580687363
0.363,-0.0028,2.282,0.024973917105916402,1.3187484212982494,0.14677500423778864,0.10885748234715603
0.3639999999999999,-0.0107,0.282,0.024905136976751212,1.3122312402891354,0.14617143440231337,0.10779853542105938
0.365,0.0114,0.282,0.024918104016131617,1.3111435461751033,0.14628522473566147,0.10762180098066608
0.3659999999999999,-0.0092,1.282,0.024578379745014277,1.2847323109248143,0.14330402471591766,0.1033303601961311
0.367,-0.0497,2.282,0.022679459103057974,1.2577666010797877,0.1266403278988695,0.09894882537141601
0.3679999999999999,-0.0203,1.282,0.02196581747881963,1.205577262082107,0.12037787153308775,0.090468818443678
0.369,0.038,-0.718,0.021620064576727355,1.2055772620821072,0.11734376815521064,0.09046881844367805
0.3699999999999999,0.0612,-1.718,0.021342332149791008,1.205577262082107,0.11490656838157377,0.090468818443678
0.371,0.0401,-1.718,0.021256595389450596,1.204393252029939,0.11415419814091081,0.09027643406714198
0.3719999999999999,0.0211,-1.718,0.02137885605927131,1.2043932520299392,0.1152270785391368,0.090276434067142
0.373,0.0153,0.282,0.021539319898269467,1.2103124583788178,0.11663520518965874,0.09123821882642844
0.3739999999999999,-0.0003,1.282,0.021726964075239264,1.1948680580805209,0.11828184886998015,0.08872872888002122
0.375,-0.0145,0.282,0.021654670920283947,1.188871958980188,0.1176474509970484,0.08775445016933499
0.3759999999999999,-0.0188,-1.718,0.021675943102399228,1.1900714113714044,0.11783412188027229,0.08794934370089437
0.377,0.0011,-1.718,0.021655668559621342,1.1912696560719005,0.117656205633279,0.08814404100031377
0.3779999999999999,-0.0099,1.282,0.021639397438376742,1.1840510220390847,0.11751342081894674,0.08697111818154032
0.379,-0.0462,1.282,0.021509531805890714,1.1779998647793113,0.11637380419733165,0.08598789332241744
0.3799999999999999,-0.0322,2.282,0.021517476169481062,1.1792103759440946,0.11644351878326484,0.08618458374349985
0.381,-0.0279,3.282,0.021399921834656766,1.1559601936755812,0.11541193813067697,0.08240676799617018
0.3819999999999999,-0.032,3.282,0.021129319918735668,1.1571937602133122,0.11303731110025192,0.08260720457932463
0.383,-0.0139,1.282,0.021135802820998976,1.1510014149882262,0.11309420084878771,0.08160103873365242
0.3839999999999999,0.0353,0.282,0.021139285791141906,1.1571937602133122,0.1131247651373642,0.08260720457932463
0.385,0.0705,-0.718,0.021138770794305595,1.1510014149882262,0.11312024585891074,0.08160103873365242
0.3859999999999999,0.0643,0.282,0.02118775521913732,1.1497612047685215,0.11355010142323406,0.08139952264900888
0.387,0.0113,-0.718,0.021272701411791935,1.148519655328817,0.11429553415427268,0.0811977889606345
0.3879999999999999,-0.0097,-0.718,0.021429367899184804,1.144786928093701,0.11567033770826278,0.0805912751894111
0.389,-0.0285,1.282,0.021372116810108845,1.1335035298162677,0.11516793925635867,0.07875788742480816
0.3899999999999999,0.0125,1.282,0.021504667122713452,1.1559714374341292,0.11633111489068776,0.0824085949430565
0.391,-0.0031,2.282,0.02154950506268381,1.202021733125894,0.11672458359130565,0.0898910968101122
0.3919999999999999,0.0016,1.282,0.021530670428635146,1.2020217331258938,0.11655930305008007,0.08989109681011216
0.393,0.0147,0.282,0.021707465928682612,1.2008342173642623,0.1181107457730231,0.08969814280688403
0.3939999999999999,0.0106,1.282,0.022131327887985098,1.2543590135401386,0.12183028361259289,0.09839514206179635
0.395,0.0069,-0.718,0.022329359774492786,1.2746882960574872,0.12356808309929104,0.10169835417166272
0.3959999999999999,0.0101,1.282,0.022468086412040497,1.2746882960574872,0.12478545815829406,0.10169835417166272
0.397,0.0072,0.282,0.0224862779392502,1.2847323109248145,0.12494509521071416,0.10333036019613114
0.3979999999999999,-0.0009,1.282,0.022500125470118797,1.2847323109248157,0.12506661216669462,0.10333036019613132
0.399,-0.0175,1.282,0.022472927754610655,1.2902830124069462,0.12482794264289762,0.10423226828552797
0.3999999999999999,-0.0241,-0.718,0.022455265516809986,1.2913882767859095,0.12467295029128583,0.10441185763788607
0.401,-0.0224,0.282,0.0224678079705458,1.2913882767859095,0.1247830147362013,0.10441185763788607
0.4019999999999999,-0.0133,-0.718,0.02250791844577745,1.2980101124821575,0.12513499827025748,0.10548780942530038
0.403,-0.038,2.282,0.022482257789582828,1.2924925960075042,0.1249098169827903,0.10459129341594745
0.4039999999999999,-0.0126,1.282,0.02253061818834833,1.2935959724923214,0.12533419649880295,0.10477057601302284
0.405,0.0367,0.282,0.022758856500942132,1.2869514246320612,0.12733706800331174,0.10369093382998625
0.4059999999999999,0.0299,1.282,0.022909198692302082,1.2802723923746187,0.12865637363424737,0.10260568843501744
0.40700000000000003,-0.002,0.282,0.02293601005251119,1.2713158417020107,0.12889165275434633,0.1011503794924051
0.4079999999999999,0.0039,0.282,0.0228763048719718,1.2713158417020107,0.12836771878631567,0.1011503794924051
0.40900000000000003,0.009,0.282,0.0228699707002076,1.28138629147918,0.12831213420024418,0.10278668080443415
0.4099999999999999,0.0043,0.28199999999994446,0.02280675495518822,1.28138629147918,0.12775739379361953,0.10278668080443415
0.41100000000000003,0.0144,-0.7179999999999445,0.022821630409710175,1.2824992231205847,0.1278879311413595,0.10296751597518866
0.4119999999999999,-0.0073,0.282,0.022768402144047843,1.282499223120585,0.12742083438044347,0.10296751597518869
0.41300000000000003,0.0046,0.282,0.023028774084461263,1.282499223120585,0.12970568977610963,0.10296751597518869
0.4139999999999999,0.0082,0.282,0.02376665147713966,1.262285445233096,0.13618082353792893,0.09968307168419507
0.41500000000000004,-0.0082,0.282,0.02384986429762042,1.26341520275856,0.13691104531821055,0.099866640815872
0.4159999999999999,0.0005,0.28199999999994446,0.02389032016070179,1.2645439509465815,0.13726605975218154,0.10005004594492566
0.41700000000000004,0.0193,-0.718,0.02387563289864895,1.2588797649115917,0.1371371738595784,0.09912969826972624
0.4179999999999999,0.0124,-1.718,0.02336475676373681,1.2382804813313808,0.13265405601086674,0.09578261492240905
0.41900000000000004,0.0059,-0.718,0.023304536449294318,1.2324956020507947,0.1321256015615733,0.09484265635390374
0.41999999999999993,0.0041,0.282,0.023249198580884024,1.2757866952660977,0.1316399922942261,0.1018768280338983
0.42100000000000004,-0.0234,0.282,0.022650764295177307,1.2656716924975908,0.12638852086271327,0.10023328751013656
0.42199999999999993,-0.0273,1.282,0.022305732418384423,1.255475198704236,0.12336074473554953,0.09857650588256836
0.42300000000000004,-0.0309,1.282,0.02240766550012912,1.2463404612092572,0.12425524339562577,0.09709224417839289
0.42399999999999993,-0.0145,-0.718,0.02259616737511698,1.2474846590485351,0.1259094136778587,0.0972781596505971
0.42500000000000004,-0.0116,-0.718,0.02267985033588313,1.2474846590485356,0.12664376110457556,0.09727815965059718
0.42599999999999993,0.0018,-0.718,0.022634704932179624,1.2690591459554443,0.12624759430151028,0.1007836993249186
0.42700000000000005,0.004,0.282,0.022624730512299126,1.258890089445813,0.1261600652573037,0.09913137585605716
0.42799999999999994,0.0105,-0.718,0.02264498763230699,1.2486382176902215,0.1263378286133594,0.09746559611675905
0.42900000000000005,0.0203,-0.718,0.02268408853592687,1.2486382176902202,0.12668095280127864,0.09746559611675883
0.42999999999999994,0.0112,0.282,0.022328396447634246,1.2429015477119998,0.12355962956713612,0.09653347085723758
0.43100000000000005,0.0032,-0.718,0.02228522571039651,1.2220329558761074,0.12318079115714499,0.09314262884353879
0.43199999999999994,0.0108,-0.718,0.022115213387342136,1.1767660185881665,0.12168887319915096,0.0857874112996592
0.43300000000000005,0.0042,1.282,0.02188241554441143,1.139756732410268,0.1196459902115483,0.07977394170593306
0.43399999999999994,0.0006,-0.718,0.021837959785721516,1.1334691295764547,0.11925587528614656,0.0787522978872219
0.43500000000000005,-0.016,0.282,0.021554365229999626,1.134727146505689,0.11676723326967633,0.07895670730263128
0.43599999999999994,-0.0279,0.282,0.020396036248285645,1.1334691295764547,0.10660248886740548,0.0787522978872219
0.43700000000000006,-0.03429999999999782,1.282,0.019754493983238426,1.1816056786256548,0.10097272974853272,0.08657378551772739
0.43799999999999994,-0.0245,0.282,0.020590957933777233,1.203175669558682,0.10831299524578344,0.09007859466182183
0.43900000000000006,-0.026199999999997493,2.282,0.02130260012312836,1.2474846590485325,0.11455790586687745,0.09727815965059668
0.43999999999999995,-0.0149,3.282,0.0214722917025202,1.2847221940688807,0.11604700918637086,0.103328716354495
0.44100000000000006,0.008100000000005084,-0.718,0.021516545328554355,1.2847221940688807,0.11643535032659276,0.103328716354495
0.44199999999999995,0.031,0.282,0.021577633577066605,1.2645439509465737,0.11697142120275318,0.10005004594492439
0.44300000000000006,0.04589999999999823,-3.718,0.022399305761130042,1.284712077133285,0.12418188374432051,0.10332707249991499
0.44399999999999995,0.0379,-2.718,0.024077938572791627,1.3348778365036513,0.13891247733661527,0.11147827723187854
0.44500000000000006,0.025899999999996513,0.282,0.02486953884710805,1.353998728081093,0.14585904828858062,0.11458514342630263
0.44599999999999995,0.0102,-1.718,0.02493754700146388,1.353998728081093,0.14645584377346463,0.11458514342630263
0.44700000000000006,0.008400000000001198,1.282,0.024955721820255898,1.347652026659462,0.14661533420364026,0.11355389694843275
0.44799999999999995,0.0138,1.282,0.024946156575607618,1.348710278107753,0.1465313958160752,0.11372584738476985
0.44900000000000007,0.012299999999995582,-0.718,0.02495435337951661,1.342338572636438,0.14660332565463208,0.11269053811326026
0.44999999999999996,-0.0076,0.282,0.024969230842029188,1.342338572636438,0.1467338806231963,0.11269053811326026
0.45100000000000007,-0.015599999999998468,1.282,0.02505168682898847,1.347652026659462,0.1474574609230157,0.11355389694843275
0.45199999999999996,-0.0087,-0.718,0.025037012344983924,1.347652026659462,0.14732868716228262,0.11355389694843275
0.45300000000000007,-0.024200000000002175,-0.718,0.02500204301310883,1.352944613179372,0.1470218189702233,0.11441386511849301
0.45399999999999996,-0.034,0.282,0.024877000703210042,1.3327287739669145,0.14592452870152087,0.11112908589223577
0.45500000000000007,-0.028599999999996715,0.282,0.025157260339527285,1.3273555829496593,0.14838390562673845,0.11025602066616712
0.45599999999999996,-0.0138,-0.718,0.02494464091379643,1.3273555829496593,0.1465180953503576,0.11025602066616712
0.4570000000000001,-0.003999999999997979,-0.718,0.024768960208340397,1.3273555829496593,0.1449764353422234,0.11025602066616712
0.45799999999999996,0.0051,-1.718,0.02492889156607986,1.333798865749065,0.14637988928233317,0.11130296021025224
0.4590000000000001,0.016399999999999047,-0.718,0.025050689346861485,1.3337988657490651,0.14744870766636176,0.11130296021025227
0.45999999999999996,0.0121,-0.718,0.025131841330681998,1.353998728081093,0.1481608448797915,0.11458514342630263
0.4610000000000001,0.015700000000004197,0.282,0.025203582548234224,1.3539987280810932,0.14879039930779783,0.11458514342630267
0.46199999999999997,0.0346,0.282,0.025164325308393718,1.3529446131793725,0.14844590321453172,0.1144138651184931
0.4630000000000001,0.058899999999991966,-0.718,0.025257848562328315,1.3529446131793725,0.14926660267636094,0.1144138651184931
0.46399999999999997,0.0227,-0.718,0.025338736163239083,1.3624118264898306,0.1499764198367278,0.1159521492968504
0.4650000000000001,0.017999999999995134,-0.718,0.02550905925978938,1.3718137058608326,0.15147106494150217,0.11747981766228796
0.46599999999999997,-0.0039,-0.718,0.025497340671216076,1.372853332625801,0.15136823020328577,0.11764874185903983
0.4670000000000001,-0.0079000000000008,-0.718,0.02550672437775211,1.372853332625801,0.15145057553003702,0.11764874185903983
0.46799999999999997,-0.0115,-0.718,0.02545862878327121,1.3718137058608326,0.15102851976479992,0.11747981766228796
0.46899999999999986,-0.0343,3.2819999999998335,0.025515874959431056,1.3634586221347142,0.1515308751041364,0.11612223833210208
0.47,-0.0314,0.282,0.025621566015981295,1.3624118264898308,0.152458351315471,0.11595214929685042
0.47099999999999986,-0.0071,0.28199999999994446,0.025640597820039142,1.368690087508936,0.1526253620929065,0.11697227520682843
0.472,-0.0299,-0.718,0.025533267786312437,1.378049133475833,0.1516835032801323,0.1184929837683956
0.47299999999999986,-0.0328,-0.717999999999889,0.025406125152436326,1.3718137058608326,0.15056778192947606,0.11747981766228796
0.474,-0.0194,1.2820000000000555,0.02529561515107185,1.3749302278770523,0.14959801778172735,0.11798620706662906
0.47499999999999987,-0.0027,2.281999999999889,0.02527743698669204,1.380118209756602,0.14943849799284165,0.11882917850724294
0.476,0.0177,0.282,0.02526056016481705,1.379084059652504,0.14929039794234641,0.1186611441880602
0.47699999999999987,0.0097,0.2820000000000555,0.02543127573251553,1.378049133475833,0.1507884871195471,0.1184929837683956
0.478,0.0167,1.281999999999889,0.025544733378127828,1.384256473692414,0.1517841178827746,0.1195015860816338
0.47899999999999987,0.0233,-0.718,0.025543672147186617,1.3894096323011016,0.15177480520784417,0.12033889924828162
0.48,0.0292,-0.718,0.025543672147186617,1.3894096323011016,0.15177480520784417,0.12033889924828162
0.48099999999999987,0.0053,-0.718,0.025571610674844255,1.390436102683334,0.15201997561892674,0.12050568572459311
0.482,0.0021,-1.718,0.02557546139984862,1.3955664430678119,0.1520537670858163,0.12133929126238234
0.4829999999999999,-0.0008,-0.718,0.025667919865822047,1.4006779923982065,0.15286512265861332,0.12216984352776257
0.484,-0.0032,-0.718,0.025820903825107294,1.4138760232334846,0.15420761073266717,0.12431433117725421
0.4849999999999999,-0.01,0.282,0.026017994512502668,1.4517684704586968,0.15593715086596976,0.13047130156910045
0.486,-0.0393,3.282,0.026302093059307072,1.4703485413974842,0.1584302155815312,0.13349029229220163
0.4869999999999999,-0.0591,2.282,0.026154395382435157,1.4790644650649896,0.15713411649576825,0.13490650285362235
0.488,-0.0554,3.282,0.0273302895731948,1.4742247286103494,0.16745300178818368,0.13412011621888073
0.4889999999999999,-0.0392,3.282,0.02771624173745607,1.4829178699693832,0.1708398678367341,0.13553262498722687
0.49,-0.0185,1.282,0.027909788838644225,1.4732478156546105,0.17253831175416673,0.13396138210207517
0.4909999999999999,0.0166,-0.718,0.027903428961164527,1.4359222971970422,0.17248250159139653,0.12789652937198678
0.492,0.0602,-2.718,0.027896962948177104,1.4359222971970422,0.17242576005219956,0.12789652937198678
0.4929999999999999,0.0896,-3.718,0.027755560365340735,1.4369155413251566,0.17118490263168867,0.12805791706627662
0.494,0.0632,-2.718,0.027385852179189124,1.390436102683334,0.16794058320691038,0.12050568572459311
0.4949999999999999,0.0197,-0.718,0.027123738749655475,1.371823180438598,0.16564044563142663,0.11748135714308292
0.496,0.0139,0.282,0.02700376927929243,1.371823180438598,0.16458767131465893,0.11748135714308292
0.4969999999999999,-0.0017,-0.718,0.027000542339053024,1.3634681547709624,0.16455935377857653,0.11612378724655428
0.498,-0.0064,0.282,0.0270231060743937,1.3582165761404943,0.16475735849581938,0.11527048226083852
0.4989999999999999,-0.0195,1.282,0.027049034033619114,1.377013429476763,0.16498488546143916,0.11832469696392796
0.5,-0.0315,1.282,0.02718773785187756,1.3852867624695957,0.16620206027314932,0.11966899299147148
0.5009999999999999,-0.0207,0.282,0.027244177794816516,1.3945344287258628,0.16669734063227867,0.12117160397342007
0.502,0.002,1.282,0.02721474705685951,1.389400277648613,0.16643907555074672,0.12033737925359624
0.5029999999999999,0.0288,0.282,0.027200669730606974,1.3883730414466804,0.1663155420594128,0.12017046834274529
0.504,0.0396,-0.718,0.027313107884454572,1.3873450446452638,0.16730222642367076,0.12000343384556392
0.5049999999999999,0.0167,0.282,0.0272639050060163,1.3883730414466804,0.16687045385208146,0.12017046834274529
0.506,-0.004,1.282,0.02732721246069828,1.40779005664468,0.16742599904326586,0.12332545030950957
0.5069999999999999,-0.0282,1.282,0.027557603058739513,1.4128573830926308,0.1694477576099126,0.12414881700104101
0.508,-0.0249,0.282,0.027690183525711426,1.4179066000026526,0.17061119785942538,0.12496924115660542
0.5089999999999999,-0.022,2.282,0.02768659346378301,1.4148847438532477,0.17057969380274826,0.12447823357586714
0.51,-0.0194,0.282,0.027645407859266197,1.4148847438532477,0.17021827563090303,0.12447823357586714
0.5109999999999999,-0.0027,0.282,0.02763635327599933,1.4229379001568576,0.17013881847664913,0.12578675410048623
0.512,0.023,0.282,0.027621930655725112,1.423940201348689,0.17001225490877442,0.12594961343562341
0.5129999999999999,0.0208,-1.718,0.02740819733226021,1.4299483444176604,0.16813666978782382,0.1269258491156726
0.514,0.0306,-1.718,0.02678573103767902,1.4289502574927768,0.1626743090221594,0.12676367453749152
0.5149999999999999,0.003,-0.718,0.02677455784827698,1.4664532454640717,0.16257626035358355,0.1328573634769431
0.516,0.007,0.282,0.026733036092007712,1.4713185455583138,0.1622118923318269,0.13364790383053007
0.5169999999999999,-0.0111,0.282,0.02673009576893362,1.4703485413974793,0.16218608996222375,0.13349029229220083
0.518,-0.021,-0.718,0.02671894105420562,1.4752009946313807,0.16208820341541336,0.1342787452182254
0.5189999999999999,-0.0239,0.282,0.026742584279712652,1.4752009946313807,0.16229568103871225,0.1342787452182254
0.52,-0.0106,1.282,0.026557387549486777,1.437926177457652,0.16067051456476558,0.12822213070778993
0.5209999999999999,0.0013,-1.718,0.02641958573933737,1.4389180383649764,0.15946125519160692,0.12838329364886183
0.522,-0.01,0.282,0.026471343635213453,1.4399092160432374,0.15991544894026133,0.12854434557516897
0.5229999999999999,-0.0199,-1.718,0.026318558548589083,1.4478231866358477,0.15857470604378512,0.12983025045038174
0.524,-0.0109,1.282,0.02611866212190278,1.446837430551976,0.1568205445609334,0.12967007945414316
0.5249999999999999,0.0072,0.282,0.026046825250674966,1.4418895273475412,0.1561901507382656,0.1288661172990898
0.526,-0.0294,0.282,0.026072838211476834,1.4229379001568534,0.15641842362262873,0.12578675410048556
0.5269999999999999,-0.0243,1.282,0.026014805474182476,1.4229379001568538,0.15590916593256524,0.12578675410048562
0.528,-0.0101,1.282,0.026045965674068364,1.4289502574927717,0.1561826076510786,0.12676367453749068
0.5289999999999999,0.0203,-0.718,0.026008625275907558,1.4229379001568547,0.1558549325180417,0.12578675410048576
0.53,0.0164,-0.718,0.025905838137192317,1.4219348924576898,0.15495293920752712,0.12562377996820426
0.5309999999999999,0.0055,1.282,0.025754797951388055,1.4219348924576898,0.15362750842973544,0.12562377996820426
0.532,-0.0242,1.282,0.025757607120914912,1.4219348924576898,0.15365215988081188,0.12562377996820426
0.5329999999999999,-0.0283,2.282,0.025761151578572627,1.4138760232334815,0.15368326374396657,0.1243143311772537
0.534,-0.0319,3.282,0.025805407197566164,1.412866582434586,0.1540716223731083,0.12415031176002837
0.5349999999999999,-0.0417,2.282,0.025829091977107005,1.412866582434586,0.1542794646476757,0.12415031176002837
0.536,0.0028,-1.718,0.025821645301705866,1.412866582434586,0.1542141174507272,0.12415031176002837
0.5369999999999999,0.0865,-0.718,0.02556698957541025,1.379093484281853,0.1519794238453411,0.11866267555296547
0.538,0.0523,-1.718,0.024926475130026805,1.360315818599149,0.14635868420568265,0.11561157856392038
0.5389999999999999,0.0421,-1.718,0.024302794305966362,1.3284300030117355,0.1408856655164745,0.11043059826658685
0.54,0.0138,-0.718,0.023987358353269605,1.3121916204528146,0.13811760403733847,0.1077920977751162
0.5409999999999999,0.0054,-0.718,0.024029280633734624,1.3154494048533356,0.1384854867998475,0.10832144025800763
0.542,0.0131,-0.718,0.024359699130571837,1.3143643739141966,0.14138502537580808,0.10814513854471867
0.5429999999999999,-0.0078,0.282,0.0237396575988733,1.2946582522651717,0.13594394275765392,0.10494318099338804
0.544,-0.0015,1.282,0.021991729355108,1.2497491122571853,0.12060525736527579,0.09764610029260726
0.5449999999999999,0.0043,0.282,0.021133225127260402,1.2231786398393931,0.11307158067920414,0.09332878578923402
0.546,0.0093,-0.718,0.021463430476295356,1.2231786398393931,0.11596924880819837,0.09332878578923402
0.5469999999999999,0.0139,-0.718,0.021418833730916534,1.2336421051454196,0.1155778966749917,0.09502894639650276
0.548,0.0182,-2.718,0.021425506161056616,1.24287017540118,0.11563644959733642,0.09652837331398065
0.5489999999999999,0.0301,-1.718,0.021438927274931144,1.2440175650753074,0.11575422459414819,0.09671480741282693
0.55,0.0192,-1.718,0.02135324132110493,1.2474534019987715,0.11500230019852488,0.09727308083558188
0.5509999999999999,0.0093,-0.718,0.021184776005741573,1.2474534019987715,0.11352395777737383,0.09727308083558188
0.552,0.0006,0.282,0.02117059711543068,1.2485965799538479,0.11339953302568992,0.09745883059146815
0.5529999999999999,-0.0346,0.282,0.02143420748966904,1.2417112582185053,0.11571280681769587,0.09634006616300882
0.554,-0.0298,-0.718,0.021341087979601596,1.2858019135326293,0.11489565035036853,0.10350415503044774
0.5549999999999999,-0.0341,2.282,0.02099092399782034,1.2846918430230785,0.11182283819606918,0.10332378475191852
0.556,-0.0381,1.282,0.02094484784451967,1.291348017466979,0.11141850373778071,0.10440531608533925
0.5569999999999999,-0.0273,1.282,0.021094757441175425,1.2858019135326295,0.1127340131979675,0.10350415503044778
0.558,0.0024,1.282,0.021094264442304077,1.28912638976424,0.11272968695939714,0.10404433396385811
0.5589999999999999,0.0063,-0.718,0.021171670952245234,1.2990587775057978,0.11340895632159462,0.10565820220735385
0.56,0.0098,-1.718,0.02183079273040902,1.3045385597925205,0.11919298185386736,0.1065485869611437
0.5609999999999999,0.0129,-0.718,0.021981403028571815,1.3056317563921618,0.1205146402163382,0.10672621547524978
0.562,0.004099999999997025,1.282,0.022046609265923462,1.3121817153068183,0.12108684789358422,0.10779048833325926
0.563,-0.0093,0.28200000000033304,0.022543710875548392,1.3186991410747966,0.12544908943598096,0.10884947502910398
0.5640000000000001,-0.02119999999999749,3.281999999999778,0.022810037908220403,1.3154494048533356,0.12778620286166809,0.10832144025800763
0.565,-0.0099,1.281999999999889,0.023081495807910288,1.3121916204528143,0.13016834145086406,0.10779209777511616
0.5660000000000001,-0.00010000000000039968,0.282000000000111,0.023086841521309062,1.3121916204528146,0.1302152519669645,0.1077920977751162
0.567,-0.0019,1.281999999999778,0.023101544694389436,1.3132784465225644,0.13034427748443297,0.10796869117096539
0.5680000000000001,0.01619999999999951,-0.718,0.023333517056729335,1.3197904563932046,0.13237991658938483,0.10902679786242934
0.569,0.014,-0.718,0.02333808480359659,1.3187089972668138,0.13242000017542377,0.10885107651665282
0.5700000000000001,0.016200000000000422,-0.718,0.02322358738993773,1.318708997266814,0.13141524508171862,0.10885107651665286
0.571,0.0181,-0.718000000000111,0.023525125193657334,1.3219507204940952,0.13406134541316034,0.10937780929298435
0.5720000000000001,-0.009499999999999134,-1.717999999999778,0.023668392126275875,1.3219507204940952,0.13531856315902904,0.10937780929298435
0.573,-0.0056,0.28199999999988895,0.023838166606576394,1.3230295298023378,0.1368083939631669,0.10955310008193288
0.5740000000000001,-0.0020000000000021984,-0.717999999999889,0.02399409473107777,1.3391267923699877,0.13817671812297222,0.11216867063164523
0.575,-0.0119,0.282,0.024163949757991667,1.3337793763105676,0.1396672557519849,0.11129979346055491
0.5760000000000001,0.0029999999999958033,0.282000000000111,0.024156462545740883,1.3348486258694443,0.1396015528299168,0.11147353092956477
0.577,-0.0159,1.282,0.024503519138896944,1.3412559131915902,0.14264709655561575,0.1125146217332291
0.5780000000000001,-0.008999999999998533,0.282,0.024759505935165512,1.3348486258694445,0.14489347076838555,0.1114735309295648
0.579,-0.0024,0.282,0.02474621453260252,1.3284104348053283,0.14477683403397476,0.11042741871825221
0.5800000000000001,-0.008199999999999602,-0.718,0.024953356845457797,1.3476327375651236,0.14659458071760995,0.11355076275174122
0.581,-0.0064,-0.718,0.02527923986212255,1.3465736392946106,0.14945431885913227,0.11337867471913547
0.5820000000000001,0.0048000000000023085,-0.718,0.025276841219185657,1.3497484410013385,0.14943326992333705,0.11389453372375792
0.583,0.0152,0.282,0.025181015631834173,1.3444432723673463,0.14859236667563966,0.11303252114354356
0.5840000000000001,0.0115999999999992,-0.718,0.025330089507410676,1.3251747056732672,0.14990054238928613,0.10990165989503008
0.585,0.008,0.282,0.025239711088226896,1.2835504344640218,0.149107439958986,0.10313832249709651
0.5860000000000001,0.015600000000000176,1.282,0.02491033307929669,1.2633534761717287,0.14621703203053177,0.09985661114517666
0.587,0.0164,-0.718,0.025011436752146926,1.2542761165074672,0.14710425233571034,0.09838167250221114
0.5880000000000001,0.0026000000000003997,-1.718,0.02439260812078406,1.2599609985284381,0.14167381334479173,0.09930538297348859
0.589,0.0044,-2.718,0.023963233502771398,1.2508590202331522,0.13790589998526992,0.09782644416179805
0.5900000000000001,-0.02330000000000442,-1.718,0.023620082376698655,1.247432563530482,0.13489462810746575,0.0972696948882054
0.591,-0.0432,0.282,0.024442905763265875,1.246288317863123,0.14211519285608387,0.09708377164463512
0.5920000000000001,-0.02509999999999336,1.282,0.026947155923730627,1.2667573892816577,0.1640908691987444,0.10040969741352161
0.593,0.0048,1.282,0.02945194434897531,1.3380609615144576,0.1860712690042511,0.11199548865210161
0.5940000000000001,0.01690000000000566,-0.718,0.030469178125725582,1.4067670096616731,0.19499785333500244,0.12315922008567622
0.595,0.0424,-0.718,0.03074832787464886,1.4199084442872747,0.19744749060779565,0.1252945116759849
0.5960000000000001,-0.00019999999999868994,-1.718,0.03079500049406136,1.4199084442872747,0.19785705926609734,0.1252945116759849
0.597,0.0057,-1.718,0.031153654233908104,1.4189032950994833,0.20100437203476024,0.12513118958301378
0.5979999999999999,-0.0099,-0.718,0.03549830718636744,1.4269337721696507,0.23913023047005003,0.1264360250627482
0.599,0.0041,-1.718,0.04009705133940778,1.4487903297138776,0.2794858285989373,0.1299873971044555
0.5999999999999999,0.0168,1.282,0.040789325796347045,1.4487903297138776,0.2855607805530843,0.1299873971044555
0.601,-0.0192,-0.718,0.040933832739773746,1.4635049876193054,0.2868288798301242,0.13237831454801363
0.6019999999999999,-0.0335,0.282,0.041012601845265846,1.4712920437835313,0.28752010644774534,0.13364359767839118
0.603,-0.0206,3.282,0.0410431124280892,1.4712920437835313,0.2877878475479506,0.13364359767839118
0.6039999999999999,-0.0089,0.282,0.04105517498637285,1.4896286179690714,0.2878937007414098,0.1366230237280538
0.605,0.0092,1.282,0.04119916228208746,1.5256407513618326,0.2891572399269247,0.14247447052769252
0.6059999999999999,0.0255,-0.718,0.04140910799371752,1.5442558961848776,0.2909995874212563,0.14549916024578385
0.607,0.0283,-1.718,0.04149160887045711,1.5744902077413774,0.2917235616446935,0.15041179520875783
0.6079999999999999,0.0309,-1.718,0.04147828629046296,1.569035641273844,0.29160665131735375,0.1495255076580658
0.609,0.0577,-2.718,0.04152265617039976,1.564474257447497,0.2919960126264783,0.14878434926843354
0.6099999999999999,0.0323,-0.718,0.04168014812342692,1.571761156006228,0.2933780599318705,0.14996836407771302
0.611,-0.0171,1.282,0.04187823457040877,1.571761156006228,0.2951163382059279,0.14996836407771302
0.6119999999999999,-0.0523,1.282,0.041867062835721225,1.5790144270538413,0.2950183023029836,0.15114691490655677
0.613,-0.0404,1.282,0.04198098508299465,1.574481952729991,0.29601801010926954,0.1504104538897243
0.6139999999999999,-0.0466,1.282,0.04223030045435427,1.575387840751153,0.2982058402209515,0.15055764748984923
0.615,-0.0057,-0.718,0.04230226750770069,1.5396126580179208,0.298837376437518,0.14474470171882914
0.6159999999999999,-0.0107,-0.718,0.04238356402404654,1.54239016616141,0.2995507819747151,0.1451960063099772
0.617,-0.0346,1.282,0.04250395282558045,1.5423901661614097,0.3006072360700595,0.14519600630997717
0.6179999999999999,-0.0215,0.282,0.042596075099679644,1.5543854075991868,0.3014156414408624,0.14714505821302504
0.619,0.0065,0.282,0.042568535541837614,1.553467272279385,0.30117397213029956,0.14699587460537547
0.6199999999999999,0.0391,-1.718,0.042711276926415936,1.5525485939992396,0.3024265780071878,0.14684660277458372
0.621,0.0261,-1.718,0.04288566809570214,1.5571449123638883,0.3039569218816754,0.1475934375175193
0.6219999999999999,0.0302,-0.718,0.042851900343482054,1.5644659495862725,0.3036605979738953,0.1487829993620716
0.623,0.0339,-2.718,0.04284912379965602,1.5571449123638903,0.3036362328248237,0.1475934375175196
0.6239999999999999,0.0307,-0.718,0.042847178161286775,1.5571449123638903,0.3036191591635109,0.1475934375175196
0.625,0.0039,-0.718,0.04296549964900105,1.5571449123638907,0.30465747185265074,0.1475934375175197
0.6259999999999999,-0.0505,1.282,0.04343240911586653,1.5571449123638907,0.3087547667184543,0.1475934375175197
0.627,-0.043,0.282,0.04411977858702166,1.5653776339046825,0.3147866756964006,0.1489311347760183
0.6279999999999999,0.0062,0.282,0.0446998200808155,1.5653776339046828,0.3198767439069029,0.14893113477601835
0.629,0.038,2.282,0.044731551885593135,1.56628878756223,0.32015520165947514,0.14907918396530923
0.6299999999999999,0.0437,0.282,0.04486812604748862,1.567199411484479,0.32135368798722613,0.14922714708033505
0.631,-0.0041,-1.718,0.04520705539878442,1.5835257204778472,0.32432791230582303,0.15187993433587602
0.6319999999999999,-0.0102,-0.718,0.04581335970254617,1.5826244905538231,0.3296484459150363,0.15173349760864427
0.633,-0.0394,-0.718,0.04603403451310364,1.581722747129411,0.33158494502776426,0.15158697744508373
0.6339999999999999,-0.0237,-0.718,0.0460474235222528,1.6165662871791553,0.33170243829431406,0.15724854485872503
0.635,0.0097,-0.718,0.04624118859367497,1.6156834874226023,0.3334027949772486,0.15710510276508768
0.6359999999999999,0.0227,-0.718,0.046749850870447134,1.6156834874226023,0.3378664854417792,0.15710510276508768
0.637,0.0665,1.282,0.046747577628124315,1.611254166839713,0.33784653694049793,0.15638540272769608
0.6379999999999999,0.0256,-0.718,0.046857012269462435,1.6183304419902858,0.3388068644256224,0.15753519430298515
0.639,-0.0115,1.282,0.04698588688901134,1.611254166839712,0.33993778456000096,0.15638540272769594
0.6399999999999999,-0.0643,0.282,0.048056551379122146,1.589836375925499,0.34933324220145645,0.15290532386834418
0.641,-0.1135,2.282,0.048352077287999555,1.5988014213651975,0.35192658604021865,0.15436201308679756
0.6419999999999999,-0.1195,4.282,0.0484239063087629,1.6156915319240555,0.35255691097229835,0.15710640987932525
0.643,-0.0784,4.282,0.048383188520125624,1.6271464891081373,0.3521995980494091,0.15896767346578827
0.6439999999999999,-0.0413,2.282,0.04905311692588237,1.6428692626844994,0.35807845554139883,0.16152239501259175
0.645,-0.0174,0.282,0.0512773939984596,1.7709150149451809,0.37759726952214195,0.18232796348867952
0.6459999999999999,0.0481,0.282,0.052337490470393475,1.806848161329749,0.38689998908546697,0.18816657605072218
0.647,0.1708,-1.718,0.05244287917825426,1.818668113597096,0.3878248120806625,0.19008714601841403
0.6479999999999999,0.1874,-3.718,0.05244046641379856,1.8123742102834839,0.3878036392235707,0.18906447846356506
0.649,0.0807,-1.718,0.052435231504015495,1.8123742102834834,0.3877577010481872,0.18906447846356497
0.6499999999999999,0.0394,-2.718,0.052530438020413954,1.8052682403101228,0.3885931717304358,0.18790986191237483
0.651,0.0271,-1.718,0.05265117444564911,1.8155274688525795,0.389652676346079,0.1895768370223134
0.6519999999999999,0.0159,0.282,0.05261771836010367,1.81552746885258,0.3893590874230369,0.18957683702231348
0.653,-0.036,2.282,0.052529813334738586,1.822593440344426,0.38858768989382275,0.1907249544032352
0.6539999999999999,-0.0455,3.282,0.05249021737806194,1.7989202304041203,0.38824022144113335,0.18687840282486573
0.655,-0.0538,3.282,0.05248277865232805,1.7997131506635577,0.3881749440053122,0.18700724081021503
0.6559999999999999,-0.0462,3.282,0.05247830024172871,1.7957378102884687,0.3881356443764595,0.18636130593983144
0.657,-0.0252,0.282,0.05245081876465285,1.795737810288469,0.387894484745057,0.18636130593983147
0.6579999999999999,0.0194,-0.718,0.0523749158662606,1.7893632537820505,0.3872284101032854,0.18532553341667138
0.659,0.0368,-1.718,0.05235154957068401,1.7869696600790612,0.3870233626375711,0.18493660932655326
0.6599999999999999,0.0419,-1.718,0.052043492755892436,1.768489102995775,0.38432005569009176,0.18193378815455702
0.661,0.0085,-1.718,0.05194382524327694,1.7725255565961602,0.38344543819632276,0.18258965303332622
0.6619999999999999,-0.0311,-0.718,0.052085611710441015,1.7725255565961604,0.38468966433688884,0.18258965303332628
0.663,-0.0467,-0.718,0.052312176196986755,1.7725255565961602,0.3866778474288473,0.18258965303332622
0.6639999999999999,-0.0325,0.282,0.05257851639750755,1.7725255565961602,0.38901507640704097,0.18258965303332622
0.665,-0.028,-1.718,0.05292055375256752,1.7676821767785817,0.39201657455229916,0.18180267440520917
0.6659999999999999,-0.0319,0.282,0.053855260873897054,1.7717204687738952,0.40021895844261535,0.18245883799635962
0.667,-0.028,2.282,0.05418408305479541,1.7861783593835132,0.4031044887845078,0.18480803449673086
0.6679999999999999,-0.005,0.282,0.054107249186013666,1.7813721006134893,0.4024302445499826,0.18402708749780228
0.669,-0.0375,0.282,0.05496556359780137,1.786178359383513,0.4099622555333371,0.1848080344967308
0.6699999999999999,-0.0418,1.282,0.05516608639773702,1.790971720104994,0.4117219136618573,0.18558688575076016
0.671,-0.0059,-1.718,0.0553205272551981,1.790971720104994,0.413077186530051,0.18558688575076016
0.6719999999999999,0.0083,-0.718,0.05527705811012024,1.7885802789568683,0.4126957294862604,0.18519831141943388
0.673,0.004,0.282,0.05525041867214748,1.787782421034308,0.41246195904428057,0.18506867113579353
0.6739999999999999,0.032,-0.718,0.05515623130009907,1.7685038018101291,0.41163543171231565,0.1819361764976544
0.675,0.0647,0.282,0.0554909546366881,1.7676968823027162,0.4145727467718666,0.18180506383854805
0.6759999999999999,0.0777,-1.718,0.05567124676614457,1.7861856360219162,0.41615487364825227,0.18480921684441434
0.677,0.0736,1.282,0.05547286372703546,1.8005201591727782,0.41441399267391454,0.1871383679308179
0.6779999999999999,0.0192,-0.718,0.05564596466594447,1.8013123751592068,0.4159330143228417,0.18726709148206805
0.679,-0.035,-0.718,0.05590273223363975,1.8163202950673178,0.4181862400796153,0.1897056597267698
0.6799999999999999,-0.0558,2.282,0.055870660766929856,1.8163202950673178,0.4179048016740687,0.1897056597267698
0.681,-0.0745,0.282,0.055756249709641735,1.8210343173480534,0.4169008043879035,0.19047161964053544
0.6819999999999999,-0.0452,0.282,0.055962920687379146,1.8444237144399889,0.4187144149400281,0.19427205576761578
0.683,-0.0187,3.282,0.056224452121803575,1.8506086208873942,0.42100944530363854,0.195277012920335
0.6839999999999999,0.0439,0.282,0.056133844825321626,1.8567729255395986,0.42021433439451067,0.19627862258160517
0.685,0.0693,0.282,0.056086784709381006,1.8567729255395986,0.41980136531782414,0.19627862258160517
0.6859999999999999,0.0149,-0.718,0.05616430664694469,1.8629168329077432,0.4204816475980255,0.19727691798150596
0.687,0.035999999999984274,-1.718,0.05674582540909939,1.9188206908378818,0.425584679358209,0.20636048009667135
0.688,-0.0348,-0.717999999999889,0.05656939340267202,1.9483685457731688,0.42403642641968686,0.21116157586380047
0.6890000000000001,-0.10089999999999053,0.282000000000222,0.056518395765169135,1.9483685457731688,0.4235889042057736,0.21116157586380047
0.69,-0.0582,2.282,0.05670474793870883,1.9439633277076989,0.4252242101013714,0.21044579213419545
0.6910000000000001,-0.050599999999992186,2.282,0.05675275101799595,1.9439633277076989,0.42564545401322923,0.21044579213419545
0.692,-0.0154,2.281999999999445,0.055724288829622125,1.9343853930348336,0.4166203364194769,0.20888951734821035
0.6930000000000001,0.0810000000000154,-2.718000000000444,0.054691322372490615,1.8850094339400736,0.4075556922824335,0.20086664364969728
0.694,0.1504,-6.717999999999667,0.054128772881800354,1.8412987649829942,0.40261912255417465,0.19376429702697864
0.6950000000000001,0.11309999999998228,-3.717999999999889,0.05472449449579867,1.8272770533967506,0.4078467893369232,0.19148597326059844
0.696,0.0333,-2.717999999999778,0.0547000853563563,1.8280576739218182,0.4076325905493353,0.1916128127183812
0.6970000000000001,0.0025999999999979572,-0.718,0.054661112179897275,1.8288379612471373,0.40729058721219663,0.19173959803606125
0.698,-0.0066,-0.717999999999889,0.05193478684180192,1.822579177754549,0.3833661230429864,0.19072263694025737
0.6990000000000001,-0.03180000000000167,0.282000000000222,0.04843859762495491,1.7933454771895385,0.3526858324413992,0.18597258667949962
0.7,-0.0393,2.281999999999667,0.04852963619070826,1.7933454771895385,0.35348472789013685,0.18597258667949962
0.7010000000000001,-0.00429999999999587,-0.718000000000111,0.04933363100270119,1.7813575079814934,0.3605400652715492,0.1840247164077905
0.702,0.0143,-1.718,0.049320067974803664,1.774127310148221,0.36042104492924953,0.18284991463998515
0.7030000000000001,-0.003299999999998912,-1.717999999999889,0.04931726103863627,1.7789531425250147,0.36039641307668824,0.1836340420647286
0.704,0.0016,-0.718,0.04919632925653903,1.7636272684237733,0.3593351941358389,0.1811438108978241
0.7050000000000001,0.006100000000002864,-0.718,0.04900137702708111,1.7325688613109866,0.3576244197234087,0.17609727241814263
0.706,0.019,-0.718,0.04871157152874563,1.700943437166856,0.35508127450002497,0.17095860193513843
0.7070000000000001,-0.00110000000000564,-0.718,0.048513213985408386,1.667863562880192,0.3533406172600568,0.165583604502577
0.708,-0.0265,1.282,0.04864647176473573,1.667863562880192,0.35451000116381814,0.165583604502577
0.7090000000000001,-0.010199999999998068,-0.718,0.04911475578777771,1.667007928916138,0.3586193582437433,0.16544457645427943
0.71,-0.0015,1.282,0.04919621354733292,1.6644383879035176,0.35933417874684004,0.16502706349077753
0.7110000000000001,-0.04200000000000653,1.282,0.049043399468980196,1.6618648739246067,0.35799318143774606,0.16460890497815936
0.712,-0.0714,1.282,0.04903752324295244,1.6549747520340943,0.3579416154866519,0.1634893605944472
0.7130000000000001,-0.06650000000000211,1.282,0.04894386082991077,1.6541124510008909,0.35711969485469136,0.16334924924458538
0.714,-0.076,0.282,0.048721652017405984,1.6532497002092688,0.3551697343350978,0.16320906481553576
0.7150000000000001,-0.09999999999999123,1.282,0.048624602313543215,1.6610061498592685,0.3543180890342771,0.16446937483344137
0.716,-0.0605,2.282,0.048814554463753566,1.6532497002092688,0.35598498599190387,0.16320906481553576
0.7170000000000001,0.019300000000017744,0.282,0.04981534482309937,1.6532497002092688,0.3647672735488933,0.16320906481553576
0.718,0.0992,1.282,0.04980605539519724,1.6532497002092688,0.3646857555503289,0.16320906481553576
0.7190000000000001,0.04750000000000209,1.282,0.04986938993560831,1.6610061498592685,0.36524153842831686,0.16446937483344137
0.72,0.0569,-1.718,0.04975482060791212,1.6610061498592685,0.3642361522636293,0.16446937483344137
0.7210000000000001,0.014099999999991385,1.282,0.05016403516838919,1.6558366040115335,0.3678271540244435,0.1636293989792923
0.722,-0.0247,0.282,0.05183862714894488,1.6558366040115333,0.3825222879019141,0.16362939897929227
0.7230000000000001,0.010300000000012856,0.282,0.052101662252162124,1.6627231544964378,0.38483051348828595,0.1647483630616464
0.724,0.0682,0.282,0.05210032440762329,1.683213764333276,0.3848187734317028,0.16807778850958485
0.7250000000000001,0.04499999999998586,-2.718,0.05201345217978452,1.7026201675856163,0.3840564390641984,0.17123104618984855
0.726,-0.0187,-2.718,0.05170925032009775,1.7101527106365522,0.38138696070422845,0.17245497464884396
0.7269999999999999,-0.0614,-0.718,0.05127531059159963,1.7034579138867534,0.37757898689384567,0.1713671677536347
0.728,-0.0538,2.282,0.0507471252042612,1.7034579138867534,0.37294397426438936,0.1713671677536347
0.7289999999999999,-0.0328,2.282,0.050711456412313484,1.7184902026025628,0.3726309680640698,0.17380969557441217
0.73,0.0251,1.282,0.05073915066630692,1.7176597879460473,0.37287399488779505,0.17367476529601836
0.7309999999999999,0.0483,3.282,0.050621940200216896,1.7068124022402105,0.3718454318043494,0.17191222321941854
0.732,0.0552,-1.718,0.050158129326887256,1.7118280133024055,0.3677753281871424,0.1727271869145162
0.7329999999999999,0.0233,-1.718,0.049959950393005874,1.7126612556022274,0.3660362383079977,0.17286257664373442
0.734,-0.006,-0.718,0.049939511547846906,1.679812151516773,0.3658568802497964,0.16752507600539485
0.7349999999999999,0.0311,-1.718,0.049839393341156744,1.6849081384660922,0.364978307756934,0.16835309961067196
0.736,0.0842,-4.718,0.04972159856810145,1.6899887590617682,0.36394461717426474,0.1691786264074466
0.7369999999999999,0.0492,-3.718,0.05022071675277075,1.7440742126367355,0.36832455487225946,0.1779667243181321
0.738,-0.0086,-0.718,0.050123515035842836,1.7416183770395963,0.36747157560330246,0.17756768682738996
0.7389999999999999,-0.0473,0.282,0.05004587913201899,1.756324082650929,0.36679029322906626,0.17995714965363727
0.74,-0.0684,0.282,0.04901677377141524,1.7563240826509283,0.3577595315726797,0.17995714965363716
0.7409999999999999,-0.0364,1.282,0.04901042142543392,1.7457169623434843,0.3577037875014579,0.17823364720240908
0.742,-0.0537,0.282,0.049692444666256046,1.7309211422119073,0.36368878142702404,0.1758295420800408
0.7429999999999999,-0.0059,-1.718,0.0502378900255719,1.722643816293069,0.36847525638394557,0.17448459726021825
0.744,0.0906,-0.718,0.04977332142157291,1.7226438162930622,0.36439850341348806,0.17448459726021714
0.7449999999999999,-0.0061,-0.718,0.047449519466489384,1.5907171784852097,0.3440063235683723,0.15304844144660376
0.746,-0.0433,-0.718,0.046090055991591654,1.5571365653980642,0.33207655321408913,0.14759208125722986
0.7469999999999999,-0.0093,-0.718,0.04597109721036219,1.5358930381609968,0.33103264805010546,0.14414031770552194
0.748,0.0009,-1.718,0.04616581083964864,1.5358930381609965,0.33274132866207345,0.1441403177055219
0.7489999999999999,0.086,-1.718,0.04640301942393387,1.5358930381609972,0.33482291745709447,0.14414031770552202
0.75,0.0971,-1.718,0.04631471812132061,1.5358930381609968,0.33404804245558734,0.14414031770552194
0.7509999999999999,0.0245,0.282,0.046184289538113356,1.5181153721966283,0.33290348574330486,0.14125170609571489
0.752,0.015,1.282,0.04619152307468896,1.5171752878245706,0.332966962572061,0.14109895608698106
0.7529999999999999,-0.0104,0.282,0.04616988241648276,1.5171752878245706,0.3327770581814815,0.14109895608698106
0.754,0.0128,-0.718,0.046171287472875765,1.5312329291455657,0.3327893880457352,0.1433831179115827
0.7549999999999999,-0.0083,-0.718,0.04621317655174673,1.538677260706041,0.33315697945257366,0.14459271328906037
0.756,-0.0145,0.282,0.04621999109719635,1.5598828710009354,0.3332167794867664,0.14803831589030442
0.7569999999999999,-0.0439,0.282,0.04640843276403537,1.5598828710009356,0.3348704214213075,0.14803831589030444
0.758,-0.0703,0.282,0.046929791018960415,1.5589679733490307,0.33944552356153496,0.14788965835649914
0.7589999999999999,-0.0463,1.282,0.04758170037523034,1.5589679733490307,0.3451662575538136,0.14788965835649914
0.76,-0.0157,1.282,0.04822325100708968,1.5934137644288866,0.3507960900944068,0.15348659735972306
0.7609999999999999,-0.0036,-0.718,0.048522936748533405,1.5934137644288866,0.3534259379276821,0.15348659735972306
0.762,0.0074,0.282,0.048342389121382036,1.5934137644288866,0.3518415689691203,0.15348659735972306
0.7629999999999999,0.0042,0.282,0.04817668597823986,1.6050277241709248,0.3503874655811512,0.15537369654439237
0.764,-0.0107,-1.718,0.04783506114917458,1.5996772876650578,0.34738958749665416,0.1545043285947774
0.7649999999999999,-0.0513,0.282,0.047784657172863156,1.6050277241709232,0.34694727486859095,0.15537369654439212
0.766,-0.1043,0.282,0.046841023689926355,1.6005689157251457,0.33866655901420195,0.15464920515906666
0.7669999999999999,-0.0263,2.282,0.046549577121111164,1.591613826040133,0.336109012819906,0.15319413360564463
0.768,0.0257,-1.718,0.046673632726861064,1.5916138260401325,0.3371976444125048,0.15319413360564457
0.7689999999999999,0.0165,0.282,0.04563633778531098,1.5871173333658684,0.3280950163016003,0.1524635190824375
0.77,0.0765,0.282,0.04581245589353721,1.58981184981519,0.3296405146729543,0.15290133873288694
0.7709999999999999,0.1309,-1.718,0.045470322550799164,1.589811849815189,0.3266381742020452,0.15290133873288675
0.772,0.053,-1.718,0.045597154885952625,1.5853102461162183,0.32775117257222364,0.15216989374265802
0.7729999999999999,0.0013,-2.718,0.04554427557457434,1.5907090076839732,0.3272871380079386,0.1530471138104922
0.774,0.0108,-2.718,0.04553442464986957,1.6076841382867053,0.327200692677354,0.15580532512098272
0.7749999999999999,-0.0319,-1.718,0.045191017817061994,1.6653031469501547,0.3241871768829747,0.16516757423199677
0.776,-0.0394,-0.718,0.044972968631599004,1.6497941853411706,0.3222737185543443,0.16264759401358372
0.7769999999999999,-0.0042,1.282,0.04519336681504788,1.6288832266442936,0.324207790166856,0.15924986800247176
0.778,0.0021,2.282,0.04478833592101154,1.6280071058594878,0.32065350155118943,0.1591075111443974
0.7789999999999999,-0.0388,0.282,0.04446393001350465,1.6192037716067544,0.317806725562286,0.157677097636886
0.78,-0.0439,1.282,0.04486264472232988,1.6236034000199142,0.3213055874302135,0.1583919731294598
0.7809999999999999,-0.0297,1.282,0.045457096273958754,1.6393601550033972,0.32652210896876627,0.1609522161596416
0.782,-0.008,-0.718,0.04572459233969572,1.6059001946165,0.32886948107095254,0.15551546027554544
0.7829999999999999,-0.0121,0.282,0.045803483079868756,1.6059001946164977,0.3295617750756992,0.15551546027554508
0.784,-0.0303,1.282,0.045760349487992555,1.5978762706921428,0.3291832626293261,0.15421168958649312
0.7849999999999999,-0.0601,1.282,0.045799441758685104,1.597876270692143,0.3295263110602703,0.15421168958649317
0.786,-0.0721,4.282,0.04570413307485709,1.611229966750609,0.32868994382287703,0.15638147056593288
0.7869999999999999,-0.0177,1.282,0.044927216529885815,1.5853102461162076,0.3218722277627618,0.1521698937426563
0.788,0.021,2.282,0.04466534721114313,1.5433064696243846,0.31957423234536536,0.14534489226759167
0.7889999999999999,-0.0001,0.282,0.04476487783433312,1.5479302311655416,0.32044764858625746,0.14609618612672567
0.79,0.0578,1.282,0.04488171084959346,1.5534589055530468,0.3214728994058569,0.14699451513429052
0.7909999999999999,0.0965,-0.718,0.04492686541873354,1.5589679733490143,0.3218691466388531,0.14788965835649645
0.792,0.0755,-1.718,0.045053227360768965,1.588922365409858,0.3229780171439009,0.15275681048125175
0.7929999999999999,0.0437,-2.718,0.04474270188919972,1.6059163815938189,0.32025304686453737,0.15551809042343465
0.794,0.0027,-0.718,0.04473901848035279,1.6323909697436756,0.3202207236558038,0.15981982513078116
0.7949999999999999,0.0078,-1.718,0.04388321543940014,1.6367630920424687,0.3127107508352171,0.16053023128067187
0.796,0.0031,-0.718,0.04399274578977586,1.6411235665982462,0.31367191820082424,0.16123874484208836
0.7969999999999999,0.0425,-0.718,0.04394075815316391,1.6480715974005151,0.31321570839637236,0.16236769857993882
0.798,0.0474,-0.718,0.04401285799952553,1.667886941248285,0.31384840991837387,0.1655874031466525
0.7989999999999999,0.0141,0.282,0.04432323604622677,1.6678869412482848,0.3165720864926454,0.16558740314665246
0.8,0.0186,0.282,0.043895204750180224,1.6653187565280552,0.31281596125605854,0.16517011056089606
0.8009999999999999,-0.0092,0.282,0.042823111994530226,1.690863511426473,0.3034079700819248,0.16932076091719928
0.802,0.0017,-1.718,0.04285756771164488,1.695926291133941,0.3037103311237328,0.170143388829671
0.8029999999999999,0.005,-2.718,0.042831601101636065,1.6959262911339412,0.30348246498388837,0.17014338882967103
0.804,0.0198,-1.718,0.042849699976343414,1.695926291133941,0.3036412889779982,0.170143388829671
0.8049999999999999,-0.0099,-2.718,0.0428825679120795,1.6950848225517177,0.30392971667950763,0.17000666244946055
0.806,-0.0458,-0.718,0.04288477443201305,1.7018125587030215,0.3039490796683451,0.17109982151732278
0.8069999999999999,-0.0697,0.282,0.04291357157747593,1.7093486606270818,0.30420178475279536,0.17232432824133037
0.808,-0.0828,1.282,0.04335604599125085,1.7168516832318024,0.30808465342962976,0.17354346005807617
0.8089999999999999,-0.079,3.282,0.04332187786419146,1.7367037715621756,0.3077848160917527,0.1767691350676622
0.81,-0.0538,1.282,0.04307519515536434,1.7325838648638512,0.30562008852016315,0.17609971027680638
0.8109999999999999,-0.0045,1.282,0.043048342214384715,1.7325838648638512,0.3053844445141716,0.17609971027680638
0.812,0.05929999999999438,2.282,0.043134328890275964,1.7367037715621758,0.30613900785173237,0.17676913506766223
0.813,0.034,0.282000000000111,0.043132948067092135,1.741633302634096,0.30612689064241627,0.1775701120189557
0.8140000000000001,0.07289999999999115,1.281999999999778,0.04313097253600802,1.742452292075248,0.3061095546620119,0.17770318586637543
0.815,0.033,-0.718000000000111,0.04344044072085657,1.7350599792312689,0.30882524687836793,0.1765020427721558
0.8160000000000001,-0.030700000000001844,-1.717999999999778,0.04317141701810109,1.7350599792312689,0.3064644692238059,0.1765020427721558
0.817,-0.039,0.28199999999988895,0.041979271098005914,1.742452292075248,0.29600296928788383,0.17770318586637543
0.8180000000000001,-0.015799999999982682,-0.718000000000111,0.041907909465220404,1.7317602084215997,0.2953767458497721,0.17596587810972952
0.819,0.0622,-1.718,0.04185538541600823,1.7251492660515741,0.29491582883600276,0.17489169632905618
0.8200000000000001,0.010399999999989541,-1.717999999999889,0.042532047557416915,1.7628254897790745,0.30085377722777573,0.18101353355398078
0.821,-0.0367,-0.7179999999997779,0.04270897149137507,1.799713150663567,0.3024063470034778,0.18700724081021655
0.8220000000000001,-0.011399999999998313,1.282000000000111,0.04068499142969963,1.799713150663567,0.2846452097730331,0.18700724081021655
0.823,-0.0038,2.282000000000222,0.040343559951674365,1.8115796570908829,0.2816490284119478,0.18893537515037667
0.8240000000000001,-0.038999999999992936,4.281999999999667,0.0403688197389871,1.8115796570908829,0.2818706919339204,0.18893537515037667
0.825,-0.0072,1.281999999999889,0.04041410501425756,1.8288450681508421,0.28226808615920307,0.1917407528043302
0.8260000000000001,-0.04829999999999183,0.282,0.040287575910517494,1.821803344126743,0.28115774875137695,0.1905965752835106
0.827,-0.0115,0.28199999999977793,0.04021243348591188,1.8280647838590187,0.2804983475346753,0.191613967979549
0.8280000000000001,0.002600000000014566,-1.718000000000111,0.040232717949717674,1.8233689377906102,0.28067635084217946,0.19085096143536828
0.829,0.0682,-2.718,0.04025330476161445,1.8092082719361167,0.2808570073605709,0.1885500596256553
0.8300000000000001,0.07749999999999814,-2.717999999999778,0.040079678140926764,1.813940776852412,0.27933337266906133,0.18931902269831508
0.831,0.0691,-0.718000000000111,0.03986626344452228,1.8099966852334861,0.277460583612683,0.1886781652953575
0.8320000000000001,0.061399999999989054,-1.717999999999778,0.03977037184971805,1.805253840840768,0.27661910112636134,0.18790752220847684
0.833,0.0121,0.282,0.03986902863792085,1.8044633552821756,0.2774848491577596,0.1877790798265291
0.8340000000000001,-0.019799999999993472,-0.718,0.04038464888626773,1.8115724824539816,0.282009598271199,0.1889342093764505
0.835,0.0096,-2.718,0.04048325273332029,1.8115724824539816,0.28287488172537517,0.1889342093764505
0.8360000000000001,-0.005999999999996825,-3.718,0.040528926166986085,1.8115724824539816,0.2832756821771604,0.1889342093764505
0.837,0.0083,0.282,0.04150805281954918,1.7901531466605363,0.29186786308420126,0.1854538794967401
0.8380000000000001,-0.03100000000000584,1.282,0.04178448688558231,1.8162988272501706,0.2942936692840508,0.1897021715193767
0.839,-0.0573,1.282,0.04195432482934127,1.8319628818718485,0.29578405700236776,0.19224735209187255
0.8400000000000001,-0.07129999999999519,1.282,0.04327345695533101,1.8366367553879757,0.3073599055783648,0.19300678841655736
0.841,-0.0496,3.282,0.04392257983516432,1.8319628818718483,0.3130561872594191,0.1922473520918725
0.8420000000000001,0.010199999999998113,2.282,0.0441146135324207,1.8319628818718483,0.31474135052482044,0.1922473520918725
0.843,0.0017,3.282,0.04363893403518827,1.825714811037603,0.310567095556587,0.1912321316469124
0.8440000000000001,0.024800000000001533,1.282,0.0435868264462134,1.8076304137222838,0.3101098331279422,0.18829368066318394
0.845,0.0317,1.282,0.04385248655760357,1.8076304137222838,0.3124410940847078,0.18829368066318394
0.8460000000000001,0.03779999999998566,-1.718,0.04388030772976606,1.8012979440669048,0.31268523466002596,0.18726474663990209
0.847,-0.0268,-2.718,0.0439546430993389,1.8076304137222838,0.313337553684832,0.18829368066318394
0.8480000000000001,-0.052300000000001706,-1.718,0.0438761461381953,1.813940776852412,0.3126487152296299,0.18931902269831508
0.849,-0.06,1.282,0.04363753068590597,1.8202292633737294,0.3105547806728304,0.1903408101033659
0.8500000000000001,-0.01080000000000422,3.282,0.04361927547038976,1.8389657036455251,0.3103945847331103,0.1933852085639986
0.851,-0.0298,1.282,0.043579898224690744,1.8575131620332852,0.31004903554620866,0.19639890022288564
0.8520000000000001,-0.0006000000000034639,1.282,0.04364915563241486,1.872070588545907,0.3106567936689812,0.19876426985675963
0.853,-0.0162,0.282,0.04383604778653237,1.8697828752441303,0.31229683808415526,0.19839254978863216
0.8539999999999999,-0.021,0.282,0.044554971694073894,1.8559833736592735,0.3186056483446291,0.19615033190876752
0.855,0.0095,-1.718,0.045134856714097775,1.8490450034197068,0.3236943434427407,0.19502294787155347
0.8559999999999999,0.0215,-1.718,0.04540854446200875,1.8304117396719712,0.32609604973470596,0.19199531409228318
0.857,0.0759,-1.718,0.04526970869836839,1.8343119358769648,0.3248777170558411,0.1926290391302522
0.8579999999999999,0.0683,-2.718,0.04483430080791347,1.8413058237916295,0.32105685960767705,0.19376544398049977
0.859,0.0044,-0.718,0.04498426012516441,1.8552145034969731,0.32237280538358204,0.19602540171367291
0.8599999999999999,-0.0041,1.282,0.0447943716162484,1.831962881871848,0.32070646690070687,0.19224735209187246
0.861,-0.0274,1.282,0.04450623802789425,1.8319628818718483,0.31817799327571367,0.1922473520918725
0.8619999999999999,-0.0064,1.282,0.04468300857226654,1.8319628818718483,0.3197292170038257,0.1922473520918725
0.863,-0.0001,-0.718,0.04498193659344077,1.8217962097529858,0.3223524155751129,0.19059541605175853
0.8639999999999999,-0.0528,0.282,0.045221701684695734,1.8217962097529856,0.32445643861836576,0.19059541605175848
0.865,-0.0175,0.282,0.04492713947457599,1.8217962097529872,0.32187155157530417,0.19059541605175873
0.8659999999999999,0.0273,-1.718,0.04487614922836366,1.825714811037604,0.3214240942225664,0.19123213164691258
0.867,0.0099,1.282,0.045891959253614896,1.8186609669242386,0.33033818463293024,0.19008598478823746
0.8679999999999999,0.0148,-0.718,0.04661685040124452,1.8257148110376062,0.3366993595249035,0.19123213164691294
0.869,0.0774,-3.718,0.04665543050279573,1.831962881871851,0.33703791349141266,0.19224735209187294
0.8699999999999999,0.0858,-3.718,0.04627477155344819,1.8257148110376056,0.33369749726628345,0.19123213164691283
0.871,0.0155,-1.718,0.04627463090859979,1.823368937790614,0.33369626305824923,0.1908509614353689
0.8719999999999999,0.006,-2.718,0.04616026267743929,1.8272841663713395,0.3326926415864234,0.19148712901529755
0.873,0.0144,-2.718,0.0461590475030303,1.8225863090634515,0.3326819780033943,0.19072379567401523
0.8739999999999999,0.022,-3.718,0.046161768938137386,1.807630413722285,0.3327058595540656,0.18829368066318414
0.875,0.001,0.282,0.04600609798461435,1.7700945091271547,0.3313397921600874,0.18219464325211895
0.8759999999999999,-0.0308,-1.718,0.04600303908525256,1.7700945091271554,0.3313129492418356,0.18219464325211907
0.877,-0.0134,0.282,0.045885342498983794,1.7749313062560952,0.3302801202827677,0.182980552289275
0.8779999999999999,0.0131,-0.718,0.04589946647114573,1.7749313062560956,0.33040406310837017,0.1829805522892751
0.879,-0.0107,1.282,0.04604952603828434,1.7684817535428035,0.33172088861231497,0.18193259397556738
0.8799999999999999,-0.015,-0.718,0.04558000597006819,1.749805947522626,0.3276006848010523,0.1788980476970787
0.881,-0.011,0.282,0.04498279814056246,1.730928651145763,0.3223599759542632,0.1758307621723497
0.8819999999999999,-0.0291,0.282,0.04445814211368105,1.7309286511457627,0.3177559347047131,0.17583076217234964
0.883,-0.0654,-1.718,0.044103232678498465,1.7234869122592786,0.3146414795270077,0.17462158806660733
0.8839999999999999,-0.0414,1.282,0.04433418972446219,1.7391665469703437,0.31666820887349356,0.17716930017654883
0.885,-0.0631,1.282,0.044302980321725964,1.7432708967548545,0.3163943353826552,0.17783619719565188
0.8859999999999999,-0.115,3.282,0.04442897673124645,1.7284616577222434,0.3174999982112624,0.17542991169744598
0.887,-0.0511,3.282,0.04490173010549841,1.7060067779264836,0.3216485754207109,0.17178132101040874
0.8879999999999999,0.0432,3.282,0.04531168268849313,1.7110247505565093,0.3252460535888096,0.17259666842585902
0.889,0.1061,1.282,0.04521041601464262,1.7218455992634216,0.32435740289249754,0.17435489862691023
0.8899999999999999,0.0949,0.282,0.04528994682447316,1.717690055374102,0.3250553137337137,0.1736796833119296
0.891,0.1049,-0.718,0.04472477746681805,1.7135244337211433,0.32009575375097093,0.17300283050724097
0.8919999999999999,0.039,-0.718,0.04453540944351373,1.7193428948753409,0.31843398271248463,0.17394824564075248
0.893,-0.038,-0.718,0.04541120499053658,1.7234869122592766,0.32611939680871277,0.17462158806660702
0.8939999999999999,-0.0482,-0.718,0.049882772040162705,1.753064337450877,0.365358971104618,0.1794274885694007
0.895,0.0175,-0.718,0.04997020378452409,1.755504160970427,0.36612621542648854,0.17982392433091055
0.8959999999999999,0.0258,-1.718,0.049949477276785156,1.7555041609704278,0.3659443330279266,0.17982392433091068
0.897,0.0334,-1.718,0.05004300600014177,1.7636272684237808,0.3667650804858586,0.18114381089782536
0.8979999999999999,0.0124,-1.718,0.0499754944314851,1.7440816649416142,0.3661726427152211,0.1779679352090576
0.899,0.0062,-2.718,0.0497560338338935,1.7440816649416142,0.3642467987485206,0.1779679352090576
0.8999999999999999,0.0003,-2.718,0.04939897124281195,1.7465340368649898,0.3611134488701587,0.1783664099032962
0.901,-0.0262,2.282,0.049435686354121454,1.7143341068386666,0.36143563689105224,0.1731343905878564
0.9019999999999999,-0.0404,1.282,0.049369611951921154,1.7101603107599597,0.36085581076177325,0.17245620955812593
0.903,-0.0798,1.282,0.049617782957957726,1.7051397942141695,0.36303359866507123,0.17164044879344148
0.9039999999999999,-0.0747,0.282,0.04974791780763172,1.7101603107599592,0.3641755777622417,0.17245620955812585
0.905,-0.0507,0.282,0.04977351544940424,1.7101603107599592,0.36440020607598167,0.17245620955812585
0.9059999999999999,-0.029,1.282,0.04976468559584828,1.7026278013324947,0.3643227210040179,0.17123228656245446
0.907,0.0308,-1.718,0.04972298740828793,1.695903299293974,0.3639568047356001,0.17013965299078232
0.9079999999999999,0.0907,-2.718,0.04916223262400521,1.6883071823361742,0.35903598418758087,0.1689053946985109
0.909,0.0675,-1.718,0.04878044051691941,1.667879148495328,0.35568562410456794,0.1655861369378763
0.9099999999999999,0.0182,1.282,0.04879522591387116,1.66702352253091,0.35581537116544026,0.16544711018940303
0.911,-0.0399,1.282,0.049167932988008124,1.66702352253091,0.35908600688752557,0.16544711018940303
0.9119999999999999,-0.0786,1.282,0.04939129211624985,1.6618726948793343,0.3610460618324789,0.16461017576931222
0.913,-0.0575,0.282,0.04938727463912998,1.6618726948793343,0.36101080705709976,0.16461017576931222
0.9139999999999999,-0.0514,1.282,0.04943835459943027,1.666167457177467,0.3614590516825276,0.16530801204661727
0.915,0.0251,1.282,0.049237808237452066,1.6713050487697,0.35969918678879303,0.16614279579998043
0.9159999999999999,0.1009,0.282,0.049222156761329135,1.6713050487697,0.3595618395784414,0.16614279579998043
0.917,0.0908,-1.718,0.0491477290468849,1.6644540055913086,0.35890871019489495,0.16502960113741583
0.9179999999999999,0.0248,-1.718,0.04914387767237717,1.6798276262716663,0.3588749130283848,0.16752759042752052
0.919,-0.0179,-0.718,0.0491361283053431,1.6789780893958575,0.3588069096058475,0.1673895530671978
0.9199999999999999,-0.0102,1.282,0.04853059425954178,1.6601548106599053,0.3534931352812721,0.16433104462180992
0.921,-0.0171,1.282,0.04777774805155985,1.620973074241153,0.3468866448980031,0.1579645835273977
0.9219999999999999,-0.0109,0.282,0.04791534591177816,1.6209730742411528,0.34809411453875133,0.15796458352739767
0.923,0.0064,0.282,0.05007608357879844,1.6077003073025384,0.36705534787776445,0.15580795235039227
0.9239999999999999,-0.0095,2.282,0.050207517901897314,1.5871337119072235,0.3682087303114912,0.15246618035669054
0.925,-0.0049,1.282,0.050252046164224747,1.5451795048523822,0.3685994814818244,0.14564923319266113
0.9259999999999999,-0.0354,1.282,0.05028479268034355,1.5451795048523822,0.36888684368346764,0.14564923319266113
0.927,0.0163,0.282,0.050194656487241134,1.5368385873563881,0.3680958668722649,0.1442939556683977
0.9279999999999999,0.0373,-0.718,0.05051840634050398,1.5368385873563883,0.3709368857543274,0.14429395566839773
0.929,0.0185,-0.718,0.05074038309517164,1.5359099629449122,0.37288480988474465,0.14414306773622956
0.9299999999999999,0.0243,-0.718,0.05074073204342298,1.5479554208565904,0.3728878720284365,0.14610027908438147
0.931,0.0086,-0.718,0.0509635454034361,1.5525653372180606,0.37484313766514127,0.14684932330360978
0.9319999999999999,-0.0248,0.282,0.050973398835101734,1.5580775645059821,0.37492960499518957,0.1477449798972087
0.933,-0.0467,2.282,0.05097512431804619,1.5589929846958999,0.3749447467151826,0.1478937223358251
0.9339999999999999,-0.0108,1.282,0.050607873643783566,1.5507263677718115,0.37172199282196866,0.14655051757156587
0.935,-0.0347,1.282,0.050557818254971916,1.5672159981825429,0.3712827391718754,0.14922984217701937
0.9359999999999999,-0.0652,2.282,0.05016337575608985,1.6032570385094185,0.3678213674494857,0.1550859859321333
0.937,-0.06129999999998792,1.282,0.04885444041425994,1.57629320816296,0.35633499924249096,0.15070475649854184
0.938,-0.0069,2.281999999999667,0.04871476437843483,1.5414648861901543,0.3551092928795337,0.14504566180059966
0.9390000000000001,0.06339999999998538,-0.718,0.048527195735328925,1.5048834783130678,0.35346331203544645,0.13910171619443115
0.94,-0.0024,-0.718000000000333,0.0474035635012136,1.5048834783130678,0.3436030438022934,0.13910171619443115
0.9410000000000001,-0.027799999999973974,-3.717999999999889,0.046445921397871015,1.5228156239910868,0.3351993973745517,0.14201542850616528
0.942,0.0894,-2.718000000000222,0.0454416158983043,1.5218784430292802,0.32638626322523157,0.14186315025928006
0.9430000000000001,0.2064999999999627,-4.717999999999667,0.04535242626063755,1.5293683090319883,0.32560359277104667,0.14308014431995628
0.944,0.0386,-1.717999999999667,0.045197535760839236,1.5368216727992547,0.3242443741331255,0.14429120729939313
0.9450000000000001,-0.02810000000000453,1.282000000000111,0.045031449635880585,1.535893038160979,0.3227869099449549,0.14414031770551905
0.946,-0.0485,2.281999999999778,0.04500676114285939,1.5349638417100337,0.32257025973141507,0.14398933682527462
0.9470000000000001,0.006900000000003708,0.28199999999977793,0.04497688651425317,1.5275014127794082,0.32230809935324195,0.14277680088891664
0.948,0.0236,-1.718,0.04491230245954518,1.5275014127794082,0.32174135154762495,0.14277680088891664
0.9490000000000001,0.008300000000003043,-1.717999999999778,0.04489712365706267,1.5200023476063946,0.3216081522147904,0.14155831209714365
0.95,0.022,0.28199999999988895,0.04491722171415779,1.5029948168481493,0.32178451973781635,0.13879483623361438
0.9510000000000001,-0.015400000000007573,-0.717999999999889,0.044931854108164644,1.4800111930421305,0.32191292414400924,0.13506033235135165
0.952,-0.0495,0.282000000000111,0.044931854108164644,1.4615539641622086,0.32191292414400924,0.13206130167239366
0.9530000000000001,-0.03939999999998536,1.281999999999889,0.04476716966353999,1.4615539641622088,0.32046776019398654,0.1320613016723937
0.954,0.0265,0.282,0.044059259743966135,1.4615539641622088,0.31425560155348287,0.1320613016723937
0.9550000000000001,0.0010999999999982903,0.28199999999988895,0.04352602990285573,1.4674081098467904,0.30957632206715713,0.13301251502199074
0.956,-0.0066,-0.717999999999889,0.04350837237207132,1.4683800564425638,0.3094213710212694,0.13317044217768656
0.9570000000000001,0.014399999999990096,0.282,0.04342895565428978,1.463504987619291,0.30872446137792936,0.13237831454801127
0.958,-0.0302,0.282,0.04346504295624559,1.4546958411153403,0.30904114015083345,0.13094695663439065
0.9590000000000001,-0.012700000000010613,0.282000000000111,0.04251121820773207,1.4369155413251395,0.3006709923549508,0.12805791706627384
0.96,-0.0605,1.282,0.04198391381513001,1.436915541325137,0.29604371076430674,0.12805791706627342
0.9610000000000001,-0.054299999999988253,0.282,0.0419707342155697,1.4319333544302915,0.2959280551405852,0.127248384311213
0.962,-0.0014,1.282,0.04195855397925083,1.4259335751864899,0.2958211692809589,0.12627350763085118
0.9630000000000001,-0.022400000000001353,1.282,0.041792513583676486,1.4259335751864899,0.2943641063842266,0.12627350763085118
0.964,-0.0285,1.282,0.041404945172807066,1.4259335751864894,0.2909630572029719,0.1262735076308511
0.9650000000000001,0.012499999999996559,0.282,0.04111391913538258,1.4209128824359352,0.2884092013196041,0.12545771823546067
0.966,-0.003,-0.718,0.04104462629371346,1.414866371353328,0.28780113225149584,0.1244752483124093
0.9670000000000001,-0.007600000000000932,-2.718,0.039786863103353484,1.4158743864130996,0.2767638176798824,0.12463903606780714
0.968,-0.0118,0.282,0.03874563898727191,1.4067670096616556,0.26762670967988333,0.12315922008567337
0.9690000000000001,0.008199999999995981,-2.718,0.038744600774330853,1.3976002865068833,0.26761759899600374,0.1216697611779723
0.97,-0.0099,-0.718,0.03907875866150825,1.4027044243944793,0.2705499520379997,0.12249910919191952
0.9710000000000001,0.03950000000002358,-1.718,0.03907013525963623,1.4027044243944793,0.2704742786522078,0.12249910919191952
0.972,0.1457,-1.718,0.04006402245932112,1.3976002865068842,0.27919598855411915,0.12166976117797246
0.9730000000000001,0.03909999999998457,-0.718,0.0421567503586312,1.4067670096616567,0.2975604122504959,0.12315922008567355
0.974,-0.0304,0.282,0.042191404576004496,1.4158743864130954,0.29786451520192087,0.12463903606780645
0.9750000000000001,-0.018099999999997493,0.282,0.04226989720307113,1.3965697751021728,0.2985533156240725,0.12150231809440604
0.976,-0.0068,0.282,0.042468939348166444,1.390417407127468,0.30029998048536244,0.12050264796925252
0.9770000000000001,-0.05859999999999789,0.282,0.04266076823113829,1.403711913723373,0.3019833464333479,0.12266281152371222
0.978,-0.0491,0.282,0.044045463990296296,1.4693513601151988,0.31413453896064064,0.13332826486774305
0.9790000000000001,0.011000000000008659,2.282,0.04502757225020645,1.5058484990914045,0.32275288452130685,0.13925851800573727
0.98,0.05,1.282,0.0451239786263434,1.54148174979767,0.32359888439496215,0.14504840189103396
0.9809999999999999,0.015,1.282,0.045265183737485844,1.5580775645059763,0.32483800893187337,0.14774497989720775
0.982,-0.0294,-0.718,0.04539669694109339,1.5571616061612674,0.3259920835698199,0.14759615001628137
0.9829999999999999,-0.0235,0.282,0.04587398798780557,1.5988014213651696,0.3301804804518031,0.154362013086793
0.984,0.0349,-2.718,0.04792979256242506,1.6480715974005036,0.3482208889816021,0.16236769857993696
0.9849999999999999,-0.0041,-3.718,0.049057214682629795,1.6823813886063212,0.3581144147987582,0.16794253958582722
0.986,0.0168,-1.718,0.05032319230318557,1.716005327293485,0.3692238138857975,0.17340593955373365
0.9869999999999999,0.0355,-0.718,0.050040591189221564,1.7076557031662354,0.3667438896703207,0.17204924732879032
0.988,0.0061,0.282,0.049892670475398436,1.7034655438794304,0.36544583335682956,0.17136840751623758
0.9889999999999999,0.0216,1.282,0.04992563318206793,1.6950541514774706,0.3657350927066273,0.17000167884692619
0.99,-0.0023,2.282,0.04991055289597652,1.7017820088822027,0.36560275788979013,0.17109485761670323
0.9909999999999999,-0.0419,0.282,0.05006077593049067,1.7017820088822013,0.3669210178774755,0.171094857616703
0.992,-0.0265,-1.718,0.05013637847502393,1.6704356159777227,0.3675844568084472,0.1660015256432632
0.9929999999999999,0.0069,-1.718,0.05016761561594135,1.6549747520340947,0.367858573711586,0.16348936059444727
0.994,0.0289,0.282,0.04681655339071893,1.5943088954106484,0.33845182352815506,0.15363204309772924
0.9949999999999999,0.0091,0.282,0.047013984323347045,1.603248931616355,0.34018434943309894,0.1550846686801684
0.996,0.0199,-0.718,0.04694598572854878,1.5978925389534548,0.3395876378366963,0.1542143329418465
0.9969999999999999,0.0231,-1.718,0.04674508380491285,1.5808122673712406,0.3378246527643018,0.15143903775461948
0.998,-0.0039,-0.718,0.04678755102219158,1.580812267371241,0.3381973175391011,0.15143903775461953
0.9989999999999999,-0.0147,1.282,0.04733224628466982,1.5781023847421918,0.3429772101323318,0.15099872132392636
1.0,-0.0114,0.282,0.04781924518913089,1.587133711907239,0.34725079688202,0.15246618035669307
1.001,-0.0262,0.282000000000222,0.049091151385269455,1.6041466768485284,0.35841222130591954,0.1552305391957638
1.002,-0.0126,1.282,0.04999072782093389,1.6376424651271198,0.3663063210678926,0.16067311659006886
1.003,0.0096,1.282,0.049769995971674565,1.6713206022918574,0.36436932142048534,0.16614532302063847
1.004,0.0304,1.282,0.04964674065967163,1.6866316352131456,0.36328771268712007,0.1686331427121107
1.005,0.0493,-0.718,0.05131723686949965,1.7781582743913975,0.37794690473525344,0.18350488757821534
1.006,0.0125,-0.718,0.05204823895065755,1.797333340459973,0.38436170521922586,0.18662055633785568
1.007,-0.0354,0.282000000000222,0.05224363047162159,1.8155203098167978,0.3860763345691982,0.18957567378334178
1.008,-0.0036,1.282,0.05288148634220458,1.822586309063457,0.3916737442794951,0.19072379567401615
1.009,-0.0095,-1.717999999999778,0.05302290984590168,1.8296250196731103,0.3929147852879204,0.19186748355890879
1.01,-0.0147,-0.718,0.05319289615465637,1.834304850154328,0.3944064749612809,0.19262788780359807
1.011,-0.0386,0.282000000000222,0.052878377366951494,1.8343048501543282,0.3916464619276766,0.19262788780359813
1.012,-0.0692,1.282,0.05285584724042206,1.835082481147327,0.3914487521395786,0.19275424150599213
1.013,-0.0094,0.28199999999977793,0.05321840106089281,1.8374133994711808,0.3946302894880604,0.19313298176049412
1.014,0.0158,-0.718,0.05317258386391789,1.833519800597887,0.3942282274626508,0.19250032869277023
1.015,-0.0075,0.28199999999977793,0.05347853653220523,1.8296179157990309,0.39691306978415763,0.1918663292829098
1.016,-0.0005,-0.718,0.053472468912460144,1.8303975380028588,0.396859824285847,0.19199300652804166
1.017,0.0075,0.282,0.05353394710594192,1.8366296786344993,0.39739931706632714,0.1930056385472611
1.018,-0.0245,0.282,0.05356480940019395,1.817869161545641,0.3976701445580777,0.18995732795477524
1.019,-0.054,1.282,0.05384960595332204,1.8225791777545677,0.4001693345247409,0.1907226369402604
1.02,-0.0061,1.282,0.05390413961085814,1.8036725232819022,0.40064788655868483,0.1876505811528576
1.021,0.0904,-0.718000000000222,0.053938315086712194,1.80288134438403,0.400947788384821,0.18752202611338228
1.022,0.1317,-1.718,0.05383523108559203,1.8028813443840297,0.40004319000224453,0.18752202611338226
1.023,0.0183,-1.7179999999995559,0.05184528559216041,1.800505721730857,0.38258071808407423,0.18713602205693136
1.024,-0.0274,0.282,0.051704084206913276,1.800505721730857,0.3813416262432054,0.18713602205693136
1.025,-0.0413,0.282,0.05167125546463967,1.8076304137222932,0.38105354247812045,0.18829368066318547
1.026,-0.0537,2.282,0.05172677084446616,1.8076304137222932,0.3815407094706067,0.18829368066318547
1.027,-0.1107,4.282,0.05178244186095608,1.8084195149157085,0.3820292422295793,0.18842189810596904
1.028,-0.1006,3.282,0.05145592661495423,1.8155131507527673,0.37916395605315784,0.18957451053978017
1.029,-0.0347,3.282,0.05123654516034744,1.8513513220922684,0.37723880659399744,0.19539769104126029
1.03,-0.0431,2.282,0.05123266825201546,1.8436147740429232,0.3772047853591948,0.1941406147433953
1.031,-0.0355,0.282,0.051159260304048035,1.845934918411738,0.37656060478531334,0.19451760438723378
1.032,0.0706,-3.718,0.05117707690558534,1.8420593317371796,0.3767169517330309,0.1938878780392767
1.033,0.1466,-4.718,0.05111587897751137,1.8412846472845765,0.3761799183801228,0.19376200310675118
1.034,0.1052,-3.718,0.05110093732213997,1.8459349184117382,0.3760488000966345,0.1945176043872338
1.035,0.1175,-3.718,0.051038870264189316,1.8319557870634329,0.37550413982323294,0.1922461992889118
1.036,0.0378,-1.718,0.05103884033161254,1.7957305723572936,0.37550387715433914,0.18636012988150832
1.037,0.0479,-0.718,0.051347253070643785,1.7885584781802295,0.3782103074622627,0.18519476911097632
1.038,0.0195,-1.718,0.05122677824945028,1.787760610528222,0.37715309851413703,0.18506512724644258
1.039,0.0622,-1.718,0.05131555277758335,1.7885584781802295,0.37793212623609707,0.18519476911097632
1.04,0.0389,-0.718,0.05128479855403324,1.7837586325465997,0.3776622471027833,0.18441486415324035
1.041,-0.0391,-1.718,0.051316070994493077,1.76847440405927,0.37793667377182777,0.18193139979161188
1.042,-0.091,1.282,0.05114471394491726,1.7692809689608169,0.3764329553654316,0.18206245483243338
1.043,-0.1005,1.282,0.05112102363635522,1.76281074361736,0.37622506457175764,0.1810111375176274
1.044,-0.0577,2.282,0.051144824789413124,1.755504160970436,0.3764339280648863,0.17982392433091204
1.045,0.0125,0.282,0.05110596880747654,1.755504160970436,0.37609295315091995,0.17982392433091204
1.046,0.0219,0.282,0.051098614859624136,1.7555041609704363,0.37602841967084016,0.17982392433091207
1.047,-0.021,0.282,0.05113287767497982,1.7595704022733052,0.3763290879318357,0.18048462927717926
1.048,-0.0753,1.282,0.05113349574166587,1.7676748239706566,0.3763345116844884,0.18180147968108845
1.049,-0.0685,2.282,0.05120197632947683,1.7717131327253341,0.376935452939179,0.18245764599539133
1.05,-0.1131,2.282,0.05136240293087284,1.7668675258732771,0.3783432528166391,0.1816703055066305
1.051,-0.0956,3.282,0.05136067893176876,1.7717131327253344,0.37832812411786754,0.18245764599539135
1.052,-0.0159,3.282,0.05146000873533247,1.7765455230185572,0.3791997780958755,0.1832428389859729
1.053,0.0183,-2.718,0.051720493827726984,1.7869696600790796,0.38148562643999123,0.18493660932655626
1.054,0.1326,-5.718,0.05171181306875761,1.7869696600790799,0.3814094497254875,0.18493660932655628
1.055,0.087,-2.718,0.05167962128759281,1.7869696600790796,0.38112695551826337,0.18493660932655626
1.056,0.0457,-2.718,0.05172273677813595,1.786171082715484,0.38150530911906944,0.1848068521442335
1.057,0.0832,-1.718,0.052097077436501334,1.7853721481570353,0.38479028011757765,0.18467703692295323
1.058,0.0492,-1.718,0.0525601641765761,1.792556991016782,0.3888540292106683,0.18584446916860917
1.059,-0.0443,1.282,0.05287828424666702,1.7949431339141502,0.3916456447644136,0.18623218261140934
1.06,0.0183,1.282,0.05497085598604701,1.7885657451353083,0.41000869810245494,0.18519594988526078
1.061,0.0522,-0.718,0.057439341995173664,1.8068409679049497,0.43167053143259065,0.18816540722403646
1.0619999999999998,0.0621,-1.718,0.057629929872218946,1.813940776852422,0.4333430071168908,0.18931902269831669
1.0630000000000002,-0.004100000000026512,-0.718,0.0573257097233103,1.8092082719361269,0.43067336826256336,0.18855005962565696
1.064,-0.0638,-0.718,0.05752160911689806,1.8092082719361273,0.43239245437351687,0.18855005962565702
1.065,-0.0094,-0.718,0.05808989673101378,1.8131540785641558,0.43737937815393985,0.18919119569259749
1.0659999999999998,0.0259,-1.718,0.05816746269502405,1.817876311331356,0.4380600467817018,0.18995848969074586
1.0670000000000002,0.01979999999996612,0.282,0.058688987435216965,1.847501168076261,0.4426366098887369,0.19477209712963683
1.068,-0.0565,1.282,0.05909755718747758,1.877418514370394,0.44622195323055935,0.19963322985724352
1.069,-0.0255,0.282,0.059046467911346975,1.877418514370394,0.44577362685544253,0.19963322985724352
1.0699999999999998,0.0217,0.282,0.05884427343962165,1.877418514370394,0.4439992992187473,0.19963322985724352
1.0710000000000002,-0.02099999999999658,-1.718,0.05886314897640803,1.877418514370394,0.444164938695889,0.19963322985724352
1.072,-0.0133,1.282,0.05836388163208866,1.8834950776189652,0.43978369206947937,0.20062058281925385
1.073,0.0079,-0.718,0.05774724250955016,1.8774185143703932,0.4343724667889294,0.19963322985724338
1.0739999999999998,-0.0242,-1.718,0.057725059676516206,1.877418514370397,0.4341778046234583,0.199633229857244
1.0750000000000002,-0.029999999999997733,0.282,0.058196560348125544,1.877418514370397,0.4383153889264222,0.199633229857244
1.076,-0.0249,-0.718,0.058220182191035925,1.8955897673397482,0.4385226789099115,0.2025857936188319
1.077,0.0085,-1.718,0.05807315277049927,1.8993492866278734,0.43723244400863354,0.20319666070817524
1.0779999999999998,0.0129,-3.718,0.057174744496487614,1.8490379741558476,0.4293485952762112,0.19502180571862784
1.0790000000000002,0.009000000000014566,-1.718,0.05628162704517095,1.8194381405057185,0.421511175374649,0.19021226416792644
1.08,0.0418,-1.718,0.056180819990040536,1.7885512111956199,0.4206265579943344,0.1851935883318935
1.081,0.0202,-0.718,0.056093769724096076,1.7733082906526982,0.4198626612798053,0.18271683590916826
1.0819999999999999,-0.0155,0.282,0.05599143781988869,1.778136345836128,0.41896466281228306,0.18350132450759263
1.0830000000000002,-0.020000000000001777,1.282,0.0556911976666042,1.7563166822924174,0.41632994982002103,0.17995594720323935
1.084,-0.024,1.282,0.0540175487180452,1.7267949658212312,0.40164309138015136,0.17515909855555858
1.085,0.0042,0.282,0.05301008415684533,1.7043181270234478,0.3928022353534036,0.17150693985074486
