time_sec,bts_raw,diy_raw,bts_rms,diy_rms,bts_norm_rms,diy_norm_rms
0.0,0.0079,0.515,0.019110748144227394,0.8972797440151837,0.05954160992990121,0.006609091475942571
0.0010000000000000009,0.0191,0.515,0.019116223457345413,0.8991696943314271,0.059562948332288826,0.006754826177906818
0.0020000000000000018,0.0093,0.515,0.019122823661636857,0.9010556805149115,0.059588670663044276,0.006900255204266144
0.0030000000000000027,0.0003,0.515,0.019129118009982824,0.9121344204885676,0.05961320101133286,0.007754540554692382
0.0040000000000000036,-0.0076,1.515,0.018814449685484392,0.9436224845910005,0.058386874921471744,0.010182595725222154
0.0050000000000000044,-0.0151,3.515,0.018583251392169143,0.944544823893321,0.057485848421661885,0.010253717617781086
0.006000000000000005,-0.0085,0.515,0.018573469574546645,0.9577127929572257,0.05744772670039918,0.011269104123187736
0.007000000000000006,0.0028,0.515,0.018595243299735068,0.9707021496031597,0.05753258331033788,0.012270717765214672
0.008000000000000007,-0.0198,-3.485,0.01848330748540145,0.9835199706637686,0.05709634680726446,0.013259104240797724
0.009000000000000008,0.0031,-3.4849999999999928,0.018665643120567697,1.0850444276356457,0.057806945647717135,0.021087689125657238
0.010000000000000009,0.0061,0.515,0.018627327975356982,1.1426625126981824,0.05765762377910003,0.025530638965222233
0.01100000000000001,-0.0018,-0.485,0.01858458508792809,1.1535711886901427,0.057491046103722,0.02637181062505339
0.01200000000000001,-0.0085,-0.485,0.01891323265275246,1.2744409252543745,0.05877185211988477,0.03569211649938877
0.013000000000000012,0.0119,-0.48499999999999827,0.018879084574315152,1.3848006558889492,0.05863877015310898,0.04420199229594016
0.014000000000000012,0.0307,0.515,0.01887421108184988,1.392034740300072,0.058619777167499665,0.04475981496809097
0.015000000000000013,0.004,-0.485,0.01879543621219087,1.4010030648262528,0.058312775571319836,0.04545136547643423
0.016000000000000014,0.0077,1.515,0.01868429847088585,1.4016244570392333,0.05787964932021774,0.045499281238125584
0.017000000000000015,0.0046,-1.485,0.018361071901137616,1.40877215340961,0.056619970018049685,0.04605044249951698
0.018000000000000016,-0.0040000000000002195,-0.485,0.018442961136648298,1.4496273670643367,0.05693910892771147,0.04920080170974843
0.019000000000000017,-0.011900000000000329,-0.485,0.018596967775659754,1.4507979540673468,0.0575393039417238,0.049291066065663344
0.020000000000000018,-0.023699999999999482,-1.485,0.018575446444403305,1.451398027573405,0.057455430961974745,0.04933733793472277
0.02100000000000002,-0.005100000000000178,0.515,0.018499561945964523,1.4525671876467847,0.05715969372690402,0.0494274922596159
0.021999999999999992,-0.0115,0.515,0.018338627053914716,1.4531665305621584,0.0565324979098346,0.049473707792582915
0.022999999999999993,0.0105,0.515,0.017939513961609484,1.4537656263868781,0.05497707348419783,0.04951990427230683
0.023999999999999994,-0.0042,-1.485,0.017320200347657667,1.4549328838981372,0.052563483098810704,0.04960991188999755
0.024999999999999994,-0.0067,-0.485,0.017016777545922377,1.4635158236583625,0.051380983085122164,0.05027174524994521
0.025999999999999995,-0.0134,-1.485,0.016987999166702353,1.47204872050781,0.05126882792200657,0.050929719784279875
0.026999999999999996,0.0203,-1.485,0.016060499751893192,1.4732014918987826,0.04765417515222305,0.05101861037238285
0.027999999999999997,0.0156,0.515,0.014832669570704341,1.512317148898448,0.042869072655774276,0.054034831786241334
0.028999999999999998,0.0199,0.515,0.014772964937764074,1.5205762158808729,0.0426363916282926,0.054671691207804796
0.03,0.0318,1.515,0.01478379446066828,1.527167276350047,0.04267859646889531,0.05517993008839753
0.031,-0.0008,1.515,0.014843134811784505,1.5282784727066396,0.04290985781644702,0.05526561481167304
0.032,-0.0051,0.515,0.014655692885845572,1.5348364576691433,0.042179358728306755,0.05577130322886707
0.033,-0.0169,0.515,0.014661745904646653,1.5429749904780146,0.04220294856655951,0.05639886821993235
0.034,-0.0132,-0.485,0.01470820830532077,1.5510708206561343,0.042384021937179425,0.057023140396836224
0.035,-0.0229,-0.485,0.01489008220129845,1.5521649045365677,0.043092821286645655,0.05710750557134291
0.036000000000000004,-0.0376,0.515,0.014889863730156723,1.5602130496586926,0.043091969860429145,0.05772810073760591
0.037000000000000005,-0.04,0.515,0.015093460166014304,1.5682198920354065,0.043885426340336556,0.05834551103533504
0.038000000000000006,-0.0033,-0.485,0.015056264554349165,1.568775051017039,0.04374046752032819,0.05838831953037094
0.03900000000000001,0.0017,-1.485,0.015059694308069027,1.587289939828005,0.04375383396410727,0.05981600880853702
0.04000000000000001,-0.003,0.515,0.01502536501760389,1.5936050999952958,0.04362004577741602,0.0603029729244329
0.04100000000000001,-0.0073,-0.485,0.014950578791129767,1.5998953329461403,0.04332858873027388,0.06078801489431871
0.04200000000000001,-0.0033,-0.485,0.014822025593773498,1.606160931549098,0.04282759092534914,0.06127115730138717
0.04300000000000001,-0.0069,-1.4849999999999863,0.014759411924021516,1.6072175142832361,0.04258357279317395,0.06135263074994124
0.04400000000000001,0.0158,0.515,0.01480104357310141,1.6149913336204158,0.042745819748001686,0.061952072563035906
0.04500000000000001,0.0243,1.515,0.014535950123807416,1.6155304201985863,0.04171269697138068,0.06199364170965705
0.04600000000000001,0.0216,2.515,0.01437000838701247,1.6165808791307472,0.04106598846790205,0.06207464294978936
0.047000000000000014,0.0049,-0.485,0.014805353122934904,1.6227820557372958,0.04276261493513975,0.06255281775513521
0.048000000000000015,0.0113,-1.485,0.015016220767349903,1.6233185551027671,0.04358440878511132,0.06259418740091847
0.049000000000000016,-0.010699999999999427,0.515,0.014971953199048491,1.6294940911193143,0.043411889120066355,0.06307038505178046
0.05000000000000002,0.009899999999999928,0.515,0.015078488621449955,1.6473266784030538,0.04382707920376333,0.06444546183063082
0.05100000000000002,0.007299999999999936,0.5149999999999861,0.015087100723776167,1.6473266784030538,0.0438606423079875,0.06444546183063082
0.05200000000000002,0.004999999999999817,-1.485000000000007,0.01574453405282319,1.6538859859871191,0.046422792931313545,0.06495125223561653
0.05299999999999999,-0.0016,-2.485,0.015762803462468784,1.6912421063948895,0.04649399251497187,0.06783179519348008
0.05399999999999999,0.0041,-0.485,0.016403821705252397,1.6912421063948895,0.04899217022782391,0.06783179519348008
0.05499999999999999,-0.0051,1.515,0.016396904244925438,1.6848282384791857,0.0489652114861455,0.06733721969003983
0.055999999999999994,-0.0099,1.515,0.016327570333653972,1.6538859859871182,0.048695003213864385,0.06495125223561646
0.056999999999999995,-0.0086,1.515,0.01635955463163555,1.6538859859871182,0.04881965249066472,0.06495125223561646
0.057999999999999996,-0.0288,4.515,0.01635715285314425,1.6589248072508558,0.048810292274218896,0.06533979743112271
0.059,-0.0082,3.5149999999999864,0.01627988147140122,1.6310425691694939,0.048509150074468925,0.06318978871292519
0.06,-0.0217,1.515,0.016297101108175997,1.5953873730982904,0.04857625848097442,0.06044040460041478
0.061,-0.0383,-5.485,0.01632626550812919,1.5953873730982904,0.04868991804494468,0.06044040460041478
0.062,-0.0047,-5.485,0.016328599336739125,1.5953873730982902,0.048699013446962626,0.06044040460041476
0.063,-0.0001,-1.485,0.016456804533928317,1.6130572003835357,0.049198655024866915,0.06180293090126136
0.064,0.0041,1.515,0.0164446396955383,1.6305355540977562,0.04915124618980098,0.06315069261090811
0.065,0.0001,-0.485,0.016356772977777975,1.6300283813206229,0.04880881182310168,0.06311158434817514
0.066,0.018,-1.485,0.016426963348289542,1.6300283813206229,0.049082357890226656,0.06311158434817514
0.067,0.0211,-3.485,0.016650951487345408,1.6285059152831742,0.04995528496091762,0.06299418648204537
0.068,0.0239,0.515,0.016731061585764952,1.6285059152831742,0.05026749021357475,0.06299418648204537
0.069,-0.0059,-0.485,0.01672631323036134,1.6285059152831742,0.05024898491239878,0.06299418648204537
0.07,0.0139,0.515,0.016685330471417962,1.6341290790039023,0.05008926681364555,0.06342779052014799
0.07100000000000001,0.0247,-0.485,0.016640695131037293,1.6290135620609287,0.049915313866440277,0.063033331295125
0.07200000000000001,-0.0051,-0.4849999999999861,0.016855615678907553,1.6290135620609287,0.050752902700717306,0.063033331295125
0.07300000000000001,0.0147,0.515,0.017107225063730847,1.6356463109867556,0.05173347535147437,0.06354478478657466
0.07400000000000001,0.0037,1.515,0.01711166807515136,1.6351407234175397,0.0517507906654044,0.0635057987597552
0.07500000000000001,0.0068,1.515,0.017123367920045172,1.6300283813206224,0.05179638732678899,0.06311158434817511
0.07600000000000001,0.0097,0.515,0.01717070017972723,1.6300283813206224,0.051980850713857614,0.06311158434817511
0.07700000000000001,0.0016,-3.485,0.01711890996107422,1.6300283813206224,0.051779013759232335,0.06311158434817511
0.07800000000000001,-0.0206,1.515,0.017003676574423768,1.6300283813206224,0.051329925950035944,0.06311158434817511
0.07900000000000001,-0.0057,-1.485,0.016933562748032347,1.6295210506908409,0.051056678190825204,0.06307246391337155
0.08000000000000002,-0.0138,0.515,0.01689026515539686,1.6295210506908409,0.05088793871708977,0.06307246391337155
0.08100000000000002,-0.0018999999999998224,-1.485,0.01659263026090867,1.6228632676163557,0.04972799534831975,0.06255908003033314
0.08200000000000002,0.0045000000000002685,1.515,0.01660368660958196,1.6161780582944096,0.049771084174811166,0.06204358130016603
0.08300000000000002,0.01420000000000025,1.515,0.01671488043826231,1.6228632676163557,0.05020442900975638,0.06255908003033314
0.08400000000000002,0.0231999999999994,0.515,0.016665728490221937,1.6223536963659584,0.05001287392919501,0.06251978682052338
0.08500000000000002,0.0016999999999992533,1.515,0.016668942048168985,1.6228632676163557,0.050025397814330345,0.06255908003033314
0.086,-0.0252,1.5149999999999721,0.016541221709048325,1.6233726789140508,0.0495276458263626,0.06259836090613648
0.087,0.0001,-0.48500000000002774,0.01616153576499958,1.6300283813206224,0.0480479329258579,0.06311158434817511
0.088,0.0033,-2.485,0.015665110934522587,1.6295210506908409,0.046113264979094626,0.06307246391337155
0.089,0.0062,-1.485,0.015709804764473353,1.6295210506908409,0.04628744587198178,0.06307246391337155
0.09,-0.0072,-1.485,0.015718120025358977,1.623881930409575,0.04631985212508748,0.06263762945954088
0.091,-0.0141,-1.485,0.015833461267577436,1.6290135620609285,0.04676936026924195,0.06303333129512499
0.092,0.0152,0.515,0.015845230642189984,1.634634979471652,0.0468152279020001,0.06346680067467819
0.093,0.0112,1.515,0.015935891422946144,1.6402371312850283,0.0471685512971835,0.06389878447756656
0.094,0.0004,-0.485,0.016168637222261258,1.6351407234175395,0.04807560874079705,0.06350579875975519
0.095,-0.0093,0.515,0.01613429606177894,1.6351407234175392,0.0479417742942486,0.06350579875975518
0.096,-0.0361,-1.485,0.016017615044465097,1.627998110209634,0.04748704477563061,0.06295502946272466
0.097,-0.0252,-0.485,0.01588527105729406,1.6136180371393822,0.046971273496259604,0.061846177211368786
0.098,0.0046,-1.485,0.015877685955729044,1.6336230218688745,0.0469417128216723,0.06338876828495149
0.099,-0.0233,-2.485,0.0158390396317367,1.6285059152831736,0.04679110028237532,0.06299418648204531
0.1,0.0094,0.515,0.015820193189986762,1.6336230218688745,0.046717651887924316,0.06338876828495149
0.101,0.0489,1.515,0.015790380575124708,1.6336230218688745,0.04660146609937826,0.06338876828495149
0.10200000000000001,0.012,3.5149999999999584,0.01582850805027428,1.6387241497725296,0.04675005657981819,0.06378211796633271
0.10300000000000001,0.0454,0.515,0.015835226997684738,1.6336230218688748,0.04677624167651956,0.0633887682849515
0.10400000000000001,0.0059,0.5150000000000139,0.016252131477301868,1.6233726789140506,0.048401002736119025,0.06259836090613646
0.10500000000000001,0.0009,1.515,0.016270263189578887,1.6238819304095748,0.04847166568528815,0.06263762945954086
0.10600000000000001,-0.0133,0.515,0.016308820261053705,1.6172009320565521,0.04862193038947652,0.06212245543859798
0.10700000000000001,-0.0002,-1.485,0.01652829512149068,1.6172009320565521,0.049477268300756605,0.06212245543859798
0.10800000000000001,0.0118,1.515,0.016562793792213218,1.6104922183538901,0.04961171659656143,0.061605144277760565
0.10900000000000001,0.0081,-0.485,0.01631922694545909,1.5444794718764312,0.04866248734294686,0.05651487928452203
0.11000000000000001,0.0115,0.515,0.016344185420252885,1.5029311900360287,0.04875975556608804,0.05331107735433531
0.11100000000000002,-0.0033,-0.485,0.016199922444677772,1.5029311900360287,0.04819753357875979,0.05331107735433531
0.11200000000000002,-0.022199999999999664,-2.485,0.015810234568392582,1.4025229083026942,0.046678841125832315,0.045568561116006254
0.11300000000000002,-0.01010000000000043,-2.485,0.015857398838127108,1.294987460908687,0.04686264982210605,0.03727646674618828
0.11400000000000002,-0.025599999999999727,-0.485,0.015865888403365613,1.294987460908687,0.04689573537452112,0.03727646674618828
0.11500000000000002,-0.01570000000000035,-0.485,0.015901550930227524,1.2859569142776266,0.047034719453045215,0.03658011827049515
0.11600000000000002,-0.028299999999999687,-1.485,0.015958831567192463,1.2930705766168713,0.047257953678053195,0.03712865515634554
0.11699999999999999,-0.017,-1.485,0.015943438632990307,1.2859569142776266,0.047197964300851956,0.03658011827049515
0.118,-0.0002,-0.48500000000001386,0.015941863761398136,1.2404217803541162,0.047191826707801435,0.03306888884069979
0.119,0.0021,-1.4849999999999723,0.0157877376168723,1.2397550257654648,0.046591165956634276,0.03301747517102537
0.12,0.0203,0.515,0.015777671692813463,1.2471322522670085,0.04655193701513981,0.033586335577717015
0.121,0.0273,0.515,0.015858450684710427,1.246469087213331,0.04686674908093584,0.03353519869828682
0.122,0.0314,1.515,0.01577234447065484,1.296263808969078,0.046531175753166516,0.03737488637266471
0.123,0.0112,-0.485,0.01580464524716511,1.29690151195423,0.0466570584107885,0.03742405986346185
0.124,-0.0076,0.515,0.015753011932771004,1.3399025541600325,0.0464558329437879,0.040739884632057285
0.125,-0.0144,-0.485,0.015952005378506405,1.3523032860937636,0.04723135064041549,0.041696109225353994
0.126,0.0013,-1.485,0.016395665387605222,1.3645913309542175,0.048960383408658464,0.04264364448068338
0.127,-0.0044,-1.485,0.01647326224756957,1.3706940439000634,0.04926279406285208,0.04311422672016997
0.128,-0.0024,-0.485,0.016541452474345294,1.3349567410651937,0.049528545165388085,0.04035851132760986
0.129,0.0158,0.515,0.016547996498470555,1.3349567410651937,0.04955404855067569,0.04035851132760986
0.13,0.0039,0.515,0.016908860755728197,1.3368135652789597,0.05096040953180968,0.04050169166471579
0.131,0.0061,0.515,0.016995648646534006,1.382762277512763,0.05129863949171691,0.044044812256554614
0.132,0.0199,1.515,0.01702404965857598,1.3767130618413472,0.05140932397863199,0.04357835520981937
0.133,0.011,-0.485,0.01714483329721402,1.3688262071491877,0.051880042242144146,0.04297019720263863
0.134,-0.0136,0.515,0.017255112782233295,1.3602859430451149,0.05230982369495212,0.042311654576831996
0.135,-0.01,0.515,0.017221837131275553,1.368222027345081,0.05218014175447834,0.04292360869556119
0.136,-0.0131,1.515,0.017221818103419256,1.3596779683366167,0.05218006759907471,0.04226477344340575
0.137,-0.0044,-0.485,0.017107953806762683,1.3516917208867723,0.05173631541042905,0.041648951227386224
0.138,-0.0123,-0.485,0.01714020093736891,1.3602859430451149,0.0518619889991152,0.042311654576831996
0.139,-0.0054,-0.485,0.017146514246366706,1.3633217496896584,0.05188659324089801,0.042545746644100206
0.14,0.0193,-1.485,0.017237107075114225,1.4024673042561833,0.05223965181336312,0.045564273469354044
0.14100000000000001,0.0095,-1.485,0.017235168687978548,1.4042348618753366,0.052232097526732836,0.04570057042944767
0.14200000000000002,-0.0173,-1.4849999999999446,0.01720838583605099,1.3976870953729925,0.052127719336992874,0.045195669961139426
0.14300000000000002,-0.0282,0.515,0.017151503040250114,1.4054119986104927,0.05190603557944898,0.04579133983740233
0.14400000000000002,-0.0118,0.5149999999999723,0.017177763650085918,1.397095396637626,0.052008378486154444,0.045150043873453345
0.14500000000000002,-0.0147,-0.485,0.01718263010239031,1.397095396637626,0.05202734403483321,0.045150043873453345
0.14600000000000002,-0.0067,-1.485,0.017169093869920857,1.4030567375461878,0.051974590599729205,0.04560972486778941
0.14700000000000002,0.0001,2.515,0.016811179325703255,1.4166561119437582,0.05057972524677568,0.04665837718298333
0.14800000000000002,0.0023,0.515,0.01668973927931693,1.416656111943758,0.0501064488295358,0.04665837718298332
0.14900000000000002,-0.0074,-1.485,0.016685084593176042,1.4301261728398158,0.050088308576417585,0.047697058090759324
0.15000000000000002,-0.002,0.515,0.016577533521832593,1.4101660217058671,0.04966916030341865,0.04615792415074695
0.15100000000000002,-0.0132,-1.485,0.016576860771219958,1.4095795612549173,0.04966653845824386,0.04611270198892691
0.15200000000000002,0.0068,0.515,0.015838927651996636,1.401287693864223,0.04679066387468479,0.0454733133168946
0.15300000000000002,0.0366,1.515,0.015818334313413864,1.362108238960686,0.04671040747003507,0.04245217242529813
0.15400000000000003,0.0087,0.515,0.015156555493123542,1.362108238960686,0.04413132158862923,0.04245217242529813
0.15500000000000003,0.0123,0.515,0.015187947017424567,1.368222027345082,0.044253660706531285,0.04292360869556128
0.15600000000000003,0.0286,1.515,0.015247641240478378,1.3596779683366178,0.044486301164580445,0.04226477344340584
0.15700000000000003,0.0137,0.515,0.015368940683842463,1.3676175806292268,0.04495902962341123,0.0428769996068295
0.15800000000000003,-0.0053,-0.485,0.015435401931419209,1.3694301203948223,0.04521804254439079,0.04301676515530299
0.15900000000000003,-0.01219999999999938,-0.485,0.015394824640309338,1.3608936461429615,0.04505990463577466,0.042358514766269915
0.16000000000000003,-0.0010000000000007661,1.515,0.01537427253302844,1.3615010779938554,0.04497980891784575,0.04240535403976446
0.16100000000000003,-0.014799999999999907,-0.485,0.01533125092156712,1.3845549912916872,0.04481214499855238,0.04418304901655475
0.16200000000000003,-0.013099999999999562,0.515,0.01534111549419062,1.3851520469525616,0.04485058923278793,0.04422908817856115
0.16300000000000003,-0.005199999999999079,-1.485,0.015242291291084042,1.3651399931784696,0.044465451329973905,0.04268595200858144
0.16400000000000003,0.011400000000000117,-0.485,0.015219874266119331,1.351022157568653,0.04437808765072493,0.04159732097564169
0.16500000000000004,0.01349999999999833,-1.485,0.015023930396341235,1.3718431148309798,0.04361445476825974,0.04320283196455847
0.16599999999999998,-0.0166,-0.485,0.0150371529412087,1.3724457005562412,0.04366598569934782,0.04324929755168218
0.16699999999999998,-0.021,-0.485,0.014768803562214687,1.366350811288084,0.04262017390630213,0.04277931859860287
0.16799999999999998,-0.0091,-0.485,0.014754618326430047,1.3681650292658578,0.04256489117404345,0.04291921355457959
0.16899999999999998,0.0017,-1.485,0.014756573556838641,1.374853402381468,0.04257251110231418,0.04343495624593593
0.16999999999999998,-0.0212,-0.485,0.014784405670192256,1.368165029265858,0.04268097847600333,0.0429192135545796
0.17099999999999999,-0.0184,3.515,0.014661978919840526,1.368165029265858,0.04220385667388819,0.0429192135545796
0.172,0.0113,0.514999999999889,0.01440754946389934,1.368165029265858,0.041212293635736245,0.0429192135545796
0.173,0.0073,-3.4849999999999723,0.014140683767892273,1.3602286124177434,0.04017226405530721,0.04230723379295128
0.174,-0.0254,-2.485,0.01410941722184685,1.3608363411174933,0.04005041200293917,0.04235409595656054
0.175,-0.0385,-2.4849999999999723,0.014208503528398518,1.3602286124177434,0.040436571375878826,0.04230723379295128
0.176,-0.0187,-1.485,0.014211573265760495,1.368769234229128,0.04044853476311208,0.04296580400168855
0.177,-0.0151,-1.485,0.014234663492407103,1.3620509850362945,0.04053852204544396,0.0424477575560099
0.178,0.0211,1.515,0.014227944889823632,1.3552994337431439,0.040512338292603096,0.041927143174220555
0.179,0.0352,1.515,0.014246812369034705,1.3620509850362943,0.04058586867429414,0.04244775755600988
0.18,0.022,3.515,0.014159113338514858,1.3614437985360222,0.04024408781867913,0.04240093720158397
0.181,0.01,0.515,0.014190351390874597,1.360836341117493,0.04036582882539233,0.04235409595656052
0.182,0.0208,0.515,0.014226967452357435,1.3602286124177434,0.04050852902114904,0.04230723379295128
0.183,0.0241,-0.485,0.01419146755768154,1.3516340257287125,0.04037017875313982,0.04164450233442203
0.184,-0.0206,1.515,0.014315510080512071,1.3516340257287125,0.04085359754733126,0.04164450233442203
0.185,-0.0017,-0.485,0.01425197893102308,1.3577949775188123,0.04060600381109676,0.04211957539069736
0.186,0.0156,0.515,0.014265061737466863,1.3571858869400186,0.040656990153291155,0.04207260821213885
0.187,0.0105,1.515,0.014273791024425645,1.3485719087897654,0.04069100994972444,0.04140838147153917
0.188,0.0057,2.515,0.014415128485211877,1.3571858869400182,0.04124183061435013,0.04207260821213882
0.189,0.0187,3.515,0.014403259423984871,1.357794977518812,0.04119557448269775,0.04211957539069735
0.19,0.0067,1.515,0.01448961710433543,1.3815093951087511,0.04153212782546773,0.043948202074701875
0.191,0.0103,-0.485,0.01441633918385396,1.3748534023814665,0.04124654895177451,0.04343495624593581
0.192,-0.006,1.515,0.01471077724586911,1.3748534023814665,0.04239403361796348,0.04343495624593581
0.193,-0.0147,-0.485,0.014630105233223336,1.368165029265857,0.042079638471941676,0.04291921355457952
0.194,0.0041,-0.485,0.01437255875138465,1.368165029265857,0.0410759277535713,0.04291921355457952
0.195,0.0063,-1.485,0.01440150310879588,1.4130946730861609,0.04118872976726059,0.04638375343969495
0.196,-0.0093,-2.485,0.01457691704953013,1.4213176610584903,0.04187235336487133,0.04701783079670452
0.197,-0.0151,-0.485,0.014563387158278516,1.4154332312649265,0.0418196246427755,0.04656408044420895
0.198,-0.0024,-2.485,0.014573801372110477,1.4006418396231508,0.04186021093994374,0.04542351128002303
0.199,-0.0136,-0.485,0.014928033646576007,1.4006418396231508,0.04324072574307923,0.04542351128002303
0.2,-0.0093,-0.485,0.014926197249070253,1.3940771973492254,0.043233568930660146,0.044917309515315265
0.201,-0.0003,-0.485,0.014953757292385888,1.3940771973492254,0.04334097599239583,0.044917309515315265
0.202,-0.0089,-1.485,0.015076750079258643,1.3958553793167512,0.04382030375329202,0.04505442572247073
0.203,-0.0035,0.515,0.015096607818231635,1.403590363757766,0.04389769337751634,0.045650872963713555
0.20400000000000001,0.0114,-1.4849999999999723,0.014659571171955436,1.3952629037931754,0.0421944731935077,0.04500873973638563
0.20500000000000002,0.0135,-0.4849999999999445,0.014641189976987101,1.39467017657768,0.042122837959842466,0.04496303434225231
0.20600000000000002,0.0234,1.515,0.014590013814606001,1.3946701765776803,0.04192339410667756,0.04496303434225232
0.20700000000000002,0.0143,1.5149999999999444,0.014476298909078764,1.431227529069893,0.0414802241254714,0.04778198403858308
0.20800000000000002,-0.0038,-0.48499999999997223,0.014619526235194752,1.4387723618535555,0.042038409977438074,0.04836376862183216
0.20900000000000002,-0.0016,0.515,0.014611621848802598,1.4468494212480965,0.04200760498531663,0.0489865933773266
0.21000000000000002,0.0006,2.515,0.014561444145410031,1.4468494212480965,0.041812052328729095,0.0489865933773266
0.21100000000000002,0.0064,0.515,0.014605589713559663,1.439346927776554,0.04198409653451284,0.04840807359261755
0.21200000000000002,-0.0138,0.515,0.01455529337656787,1.4826780687541015,0.04178808153880014,0.05174935238807578
0.21300000000000002,-0.0058,-1.485,0.014752806810544845,1.4826780687541015,0.04255783133033098,0.05174935238807578
0.21400000000000002,-0.0079,-2.485,0.01539167928111802,1.5149346246726618,0.045047646534980924,0.054236666219969684
0.21500000000000002,0.0169,0.515,0.015915966145834348,1.5335317337765806,0.047090898463175324,0.05567069553246678
0.21600000000000003,0.0007,0.515,0.015985277650722943,1.5335317337765806,0.04736101941325158,0.05567069553246678
0.21700000000000003,0.0157,1.515,0.015907752191150752,1.5335317337765806,0.04705888702082412,0.05567069553246678
0.21800000000000003,0.0024,-1.485,0.01604795226988806,1.5340708092412005,0.04760527507761438,0.055712263822118316
0.21900000000000003,0.0093,-0.485,0.016216203169113673,1.534609695340186,0.04826098285402259,0.05575381750972235
0.22000000000000003,0.0072,0.515,0.016224594211860857,1.534609695340186,0.048293684444366686,0.05575381750972235
0.22100000000000003,-0.002500000000000694,0.515,0.01618042862710705,1.5351483922729572,0.0481215622298289,0.05579535661065624
0.22200000000000003,-0.014999999999998829,0.515,0.016075659045534246,1.4938940988235427,0.04771325398491306,0.05261422422377622
0.22300000000000003,0.00609999999999864,0.515,0.016068294922320616,1.4938940988235432,0.0476845545076453,0.052614224223776256
0.22400000000000003,-0.018399999999999795,-0.485,0.016161491839162722,1.4611731304099804,0.04804776173798939,0.050091099388827956
0.22500000000000003,-0.014699999999998728,1.515,0.015969964167771723,1.4422163238677275,0.04730133967364113,0.04862933368637267
0.22600000000000003,0.008199999999999524,-0.485,0.01551736519343756,1.4305951914832968,0.045537469950321915,0.047733224275465835
0.22700000000000004,-0.0003999999999995504,-0.485,0.015433718230528021,1.4247490798128013,0.04521148082155556,0.04728242864627552
0.22800000000000004,0.007699999999999623,-1.485,0.01543390682280588,1.4188788810041955,0.045212215803797744,0.046829775649797026
0.22899999999999998,0.0009,-0.485,0.015319032706356012,1.4112276959065007,0.04476452814322128,0.04623979020398797
0.22999999999999998,-0.0102,-0.485,0.014909673604664097,1.4035348020007998,0.04316917294715226,0.04564658857802231
0.23099999999999998,-0.0119,-0.485,0.014759313369015233,1.3576801034716672,0.04258318870438559,0.04211071741444252
0.23199999999999998,-0.0172,-0.485,0.0147438657439493,1.357070961334259,0.042522986185829136,0.04206374626018197
0.23299999999999998,-0.0218,-0.485,0.01463834444141207,1.356461545651237,0.04211174833230893,0.04201675401272751
0.23399999999999999,-0.0018,-1.485,0.014560190881966925,1.3570709613342593,0.04180716810766808,0.04206374626018199
0.235,0.0117,-0.485,0.014419388279651281,1.357070961334259,0.041258431894656354,0.04206374626018197
0.236,0.014,-0.4849999999999445,0.014510348998745811,1.3656313311538295,0.041612924210195114,0.04272383924444546
0.237,0.0206,1.5149999999999721,0.014548252297167384,1.365025737252904,0.041760641028595114,0.04267714169588865
0.238,0.0108,0.5150000000000555,0.014559035502671965,1.356461545651236,0.041802665360925605,0.04201675401272742
0.239,-0.0167,2.514999999999917,0.014547963145563692,1.332921823025734,0.041759514146325984,0.040201598115948416
0.24,-0.0127,-0.485,0.014497944114056638,1.285192428587955,0.04156457986616144,0.036521168522883965
0.241,-0.0308,-1.485,0.014571732755301199,1.276092567162552,0.04185214912194161,0.035819475160180636
0.242,-0.0079,-0.485,0.014557821657677113,1.2832609129484795,0.041797934761528266,0.03637222870492211
0.243,0.0069,0.515,0.014547623382594141,1.274147256862044,0.04175819002132995,0.03566947163128575
0.244,0.0149,3.515,0.014501780081972932,1.274147256862044,0.041579529408804855,0.03566947163128575
0.245,0.0269,1.515,0.014497639783742602,1.281326485679167,0.041563393829388805,0.03622306437020822
0.246,0.0023,0.515,0.014485559044332762,1.274147256862044,0.04151631274505432,0.03566947163128575
0.247,0.0055,1.515,0.014459480536849758,1.274147256862044,0.04141467952804075,0.03566947163128575
0.248,0.0324,0.515,0.014453341933698434,1.3185181926581944,0.04139075615026903,0.03909092935350766
0.249,0.007,-0.485,0.014487249204494049,1.3038956605636733,0.04152289964097127,0.037963381005573615
0.25,-0.0093,0.515,0.014424906095633431,1.3109119819311406,0.04127993593930002,0.038504411896483834
0.251,0.0233,1.515,0.014456357503761478,1.3109119819311406,0.041402508436585134,0.038504411896483834
0.252,0.0103,1.515,0.014487446250849106,1.3115425626478074,0.0415236675704618,0.03855303618677233
0.253,0.0063,-0.485,0.014838835311584777,1.313432488343127,0.04289310179476389,0.03869876899020889
0.254,-0.0047,-0.485,0.014840147543578977,1.3216499425723003,0.04289821582819259,0.039332419638430045
0.255,-0.0014,0.515,0.014841547951675924,1.3235254355318624,0.04290367350172384,0.039477039528777805
0.256,-0.0221,3.515,0.01483110630695359,1.332301361191266,0.042862980300828996,0.0401537540960558
0.257,-0.0246,1.515,0.014756497371940215,1.332301361191266,0.04257221419435961,0.0401537540960558
0.258,0.0022,1.515,0.014688193369033745,1.324150009540443,0.04230601968323534,0.039525200639793694
0.259,-0.0015,-0.485,0.014819015222631439,1.324774289089316,0.04281585890027939,0.039573339044922884
0.26,-0.0114,0.515,0.014822804518857261,1.33105956985396,0.04283062655390752,0.040057999150071945
0.261,-0.0085,3.515,0.0148641104172203,1.313432488343128,0.04299160399232141,0.03869876899020898
0.262,-0.0274,0.515,0.014853499495457756,1.3128028154178657,0.04295025108457124,0.03865021470001977
0.263,-0.0442,-3.485,0.014798449412354461,1.31217284033123,0.042735709779003865,0.038601637110065846
0.264,-0.0421,-2.485,0.01486411227501566,1.314061859541387,0.042991611232525595,0.038747300014127885
0.265,-0.0201,-1.485,0.014896619929834732,1.31720420475798,0.04311830013674997,0.038989607306374165
0.266,-0.0053,-0.485,0.014811733378706211,1.31720420475798,0.04278748008203628,0.038989607306374165
0.267,0.0298,0.515,0.01481168103531796,1.3235254355318635,0.04278727608926788,0.039477039528777895
0.268,0.025,0.515,0.014741562140429626,1.3146909294459725,0.04251400857709977,0.0387958078051907
0.269,-0.0055,-1.485,0.014785092346004475,1.3083270151226751,0.042683654590496715,0.03830508423999392
0.27,-0.0175,0.515,0.014770549591127991,1.3089588411275412,0.042626978534042945,0.038353804554872584
0.271,0.0005,0.515,0.014752955933956362,1.31720420475798,0.04255841249442001,0.038989607306374165
0.272,0.0102,0.515,0.01495771741306053,1.316576335715463,0.04335640938344354,0.0389411921141877
0.273,0.0188,-1.485,0.015143341913532638,1.3229005666465117,0.04407982559703678,0.0394288556797154
0.274,0.0054,0.515,0.015186672531088014,1.3222754024663377,0.04424869377556301,0.039380649060370254
0.275,0.0075,1.515,0.015359109237312686,1.3466154788082436,0.04492071448826136,0.04125752050031654
0.276,0.0095,0.515,0.01681956547400884,1.3619937287051296,0.050612407762491166,0.04244334250113455
0.277,0.0151,0.515,0.01688743667900785,1.3705233509737789,0.050876915572653704,0.04310106453144697
0.278,0.0096,0.515,0.01689142331109851,1.3711265167119127,0.05089245228405054,0.04314757484355756
0.279,0.0015,0.515,0.01702304203363786,1.3729344240090213,0.051405397060495614,0.043286983180834286
0.28,-0.0062,-0.485,0.017030408201517515,1.3729344240090213,0.05143410450624033,0.043286983180834286
0.281,-0.0074,-0.485,0.01702981276428076,1.373536530964914,0.05143178396692493,0.04333341184989158
0.28200000000000003,-0.0111,-0.4849999999999445,0.017052514881338222,1.3801988743036213,0.05152025870770802,0.04384714737643173
0.28300000000000003,-0.0188,0.5150000000000555,0.01696648907643243,1.3807978135466215,0.051184998750655054,0.0438933317820868
0.28400000000000003,-0.003999999999998873,1.515,0.016827563612466033,1.3807978135466212,0.05064357812536773,0.043893331782086785
0.28500000000000003,0.016300000000000137,1.5149999999998889,0.016982944697221957,1.3825930745138173,0.05124912963237384,0.04403176495662779
0.28600000000000003,0.01879999999999962,-0.485,0.016955340841587535,1.3831909770381374,0.05114155182517253,0.044077869420558184
0.28700000000000003,0.011899999999999373,-0.4849999999999445,0.016901177191335715,1.38378862122286,0.05093046512767352,0.044123953963835665
0.28800000000000003,0.0006000000000007604,0.515,0.01678573987045008,1.375341270264792,0.050480582545524934,0.04347257590184068
0.28900000000000003,0.0143000000000001,0.515,0.016761319114775058,1.3753412702647918,0.050385409922522155,0.043472575901840664
0.29000000000000004,0.016099999999999556,-0.485,0.016739980938419656,1.3753412702647934,0.050302250734458355,0.04347257590184078
0.29100000000000004,0.008099999999999411,-1.485,0.0167040377219334,1.3759423239946225,0.050162172751709755,0.043518923356283525
0.29200000000000004,-0.0025000000000003665,-0.485,0.016427050053382252,1.3759423239946222,0.04908269579750564,0.04351892335628351
0.29300000000000004,-0.009099999999999372,-0.485,0.01640845160989209,1.3825930745138193,0.04901021390242088,0.04403176495662795
0.294,0.0022,-1.485,0.016408370550612023,1.388616675386437,0.04900989799801541,0.04449624683764766
0.295,-0.0022,-0.485,0.016369313417692988,1.3490692809602278,0.048857684453261156,0.041446734006208824
0.296,-0.0033,-2.485,0.016227774315018473,1.340403143199184,0.04830607794942269,0.040778485220549124
0.297,-0.0145,-3.485,0.016227118317718576,1.339786146006931,0.04830352139529534,0.04073090836037826
0.298,-0.0102,-1.485,0.0162178138420027,1.331680610268828,0.04826725997196637,0.04010588778449299
0.299,0.0021,-1.485,0.015891576782952894,1.3310595698539607,0.04699584818423704,0.04005799915007199
0.3,0.0133,-0.485,0.01587994611619594,1.3316806102688281,0.04695052112404035,0.040105887784493005
0.301,-0.0095,0.515,0.015980803720511257,1.3397861460069296,0.04734358360254024,0.040730908360378154
0.302,0.0333,1.515,0.01591305461655841,1.3310595698539598,0.04707955164484473,0.040057999150071924
0.303,0.004,1.515,0.015901773567451483,1.3435419239589144,0.047035587115326606,0.04102051765633274
0.304,-0.0116,1.515,0.015889367635316603,1.3441571971690545,0.04698723868918521,0.04106796157966538
0.305,0.0123,1.515,0.015918380799615273,1.3441571971690542,0.04710030885722833,0.041067961579665364
0.306,-0.0181,1.515,0.01596376990441494,1.3503522622519928,0.047277199376793644,0.04154566512337846
0.307,0.0019,0.515,0.015884141740718897,1.3115425626478086,0.04696687232120633,0.038553036186772416
0.308,0.02,0.515,0.01570189988055727,1.3096499096469791,0.046256638940908985,0.03840709307989442
0.309,0.0037,-1.485,0.015703192589391377,1.3007211643184895,0.04626167688863501,0.03771859453674302
0.31,-0.0111,-1.485,0.015711061208020283,1.3013566830704768,0.046292342486550446,0.037767599600589175
0.311,-0.0031,-0.485,0.01568162356414331,1.3007211643184895,0.04617761803575638,0.03771859453674302
0.312,-0.0052,-0.485,0.01566427992848317,1.2511038606932119,0.04611002638052073,0.03389258763383556
0.313,0.0151,1.515,0.015423488475428182,1.2504428019606946,0.04517161339736592,0.03384161317353558
0.314,0.0126,2.515,0.014776881811931757,1.20425158419655,0.042651656478957786,0.030279792899019806
0.315,0.0058,0.515,0.014171615980230277,1.190309436703115,0.040292813141611594,0.02920470923558469
0.316,-0.0006,-1.485,0.014030197786240657,1.1832767612172483,0.039741677843367185,0.028662417273126527
0.317,-0.0063,-0.485,0.014024080556098058,1.1910038725254568,0.03971783776053231,0.029258257414461385
0.318,-0.0116,0.515,0.013768084648201449,1.200059954184282,0.03872016994235679,0.029956574904698947
0.319,0.0066,0.515,0.01354352838734355,1.1993707618458247,0.03784502878612302,0.029903431052620992
0.32,-0.0002,1.515,0.013533215886276677,1.201437152817023,0.037804838884167725,0.030062771152591324
0.321,-0.0248,-0.485,0.013426635260709644,1.200748750947894,0.03738947263459397,0.030009688253868072
0.322,-0.028,-1.485,0.013532601217499687,1.209731884414507,0.03780244339565122,0.03070238068456862
0.323,-0.013,-0.485,0.01366596843229114,1.2090482053677296,0.03832220239996652,0.03064966196425889
0.324,0.0294,2.515,0.01353651796760448,1.2090482053677296,0.03781770776281824,0.03064966196425889
0.325,0.0701,2.515,0.013552446873084096,1.2159318337680918,0.037879785928466844,0.03118046085602733
0.326,0.0172,1.515,0.013531655948496276,1.2159318337680918,0.037798759491201456,0.03118046085602733
0.327,-0.0037,0.515,0.013501082984067162,1.2159318337680918,0.03767961046664177,0.03118046085602733
0.328,-0.0225,1.515,0.013422257712121246,1.2159318337680918,0.03737241244255798,0.03118046085602733
0.329,-0.0051,-0.485,0.01340764872832414,1.2159318337680918,0.037315478278608344,0.03118046085602733
0.33,-0.0101,0.515,0.013407627162842379,1.2159318337680918,0.037315394233565155,0.03118046085602733
0.331,-0.0148,-1.485,0.013393345355476134,1.2254785036478313,0.03725973514232515,0.03191660776831246
0.332,-0.0017,0.515,0.013373908727970426,1.2261530215144743,0.03718398667464206,0.031968620066953286
0.333,0.0023,-0.485,0.013496824385658903,1.2336115932103298,0.03766301384751077,0.0325437530288266
0.334,-0.023,1.515,0.013883941968407238,1.2329411557883778,0.03917168934678436,0.03249205537464273
0.335,-0.0066,0.515,0.014177765181646478,1.2234527187858497,0.040316777822964625,0.031760398819025704
0.336,-0.0036,0.515,0.014091450512828878,1.223452718785851,0.03998039210483598,0.0317603988190258
0.337,-0.006,-0.485,0.014316407567050169,1.2309276525605979,0.04085709523385158,0.03233679346628325
0.338,0.0059,0.515,0.014719120548764824,1.253744610080558,0.04242654915645289,0.034096216703668525
0.339,-0.0144,2.515,0.014899306925546717,1.2530849444630254,0.04312877190237876,0.03404534966693167
0.34,-0.0064,0.515,0.015444290154984087,1.2530849444630257,0.04525268174891671,0.034045349666931686
0.341,0.0055,-1.485,0.015461798304519913,1.2623506709992265,0.045320914547992364,0.03475983294388866
0.342,-0.0011,-1.485,0.015441159778590315,1.2557215276901528,0.04524048203911469,0.03424865748275462
0.343,-0.0069,-1.485,0.015456354358418621,1.2630054971528606,0.04529969838921167,0.034810326807943215
0.34400000000000003,0.0097,-1.4849999999999446,0.015504193439459382,1.270247698904508,0.04548613696159984,0.03536877541094096
0.34500000000000003,0.0162,-0.485,0.016202043422630468,1.270247698904508,0.04820579945872581,0.03536877541094096
0.34600000000000003,-0.0017999999999998779,-0.4849999999999445,0.017279084182357025,1.3147502457781695,0.05240324508850703,0.03880038170743566
0.34700000000000003,0.00039999999999988347,0.5149999999999445,0.01773501780545215,1.3147502457781695,0.05418011061234925,0.03880038170743566
0.34800000000000003,-0.0017000000000000999,-0.4849999999999445,0.017735837653845395,1.270247698904508,0.05418330572731981,0.03536877541094096
0.34900000000000003,-0.0035000000000009273,0.5150000000000555,0.017726026158458155,1.2630054971528606,0.05414506834580674,0.034810326807943215
0.35000000000000003,-0.02019999999999988,1.5149999999998889,0.01849761594508564,1.3051632971276348,0.05715210976797688,0.03806112888564229
0.35100000000000003,-0.018099999999999464,-0.485000000000111,0.019373430881653143,1.3298166189243985,0.06056533767490002,0.039962154787540824
0.35200000000000004,-0.0083999999999995,-2.485,0.01957691958340081,1.3379334472363211,0.06135837429319611,0.04058804613757601
0.35300000000000004,0.0005999999999993726,0.515,0.019294299612359882,1.3298166189243985,0.06025694711727771,0.039962154787540824
0.35400000000000004,-0.010699999999998733,-0.485,0.019290708575465762,1.321649942572303,0.06024295212035537,0.039332419638430254
0.35500000000000004,0.012100000000000177,-1.485,0.019290824487541613,1.3373153106008764,0.06024340385315361,0.040540381414558964
0.35600000000000004,0.015299999999998851,1.515,0.019266941187081974,1.3373153106008766,0.060150325801804364,0.040540381414558985
0.357,-0.0054,-1.485,0.01921513699907025,1.3285725051479973,0.05994843440576344,0.03986622075750038
0.358,-0.003,-0.485,0.0193010465030214,1.3285725051479973,0.06028324111447888,0.03986622075750038
0.359,-0.0052,0.515,0.01957323625248359,1.3285725051479969,0.061344019607802926,0.03986622075750035
0.36,0.0061,-0.485,0.019671555834484142,1.3285725051479962,0.061727190900127,0.03986622075750029
0.361,0.0042,-0.485,0.019666171506184795,1.321649942572302,0.061706207083975846,0.039332419638430184
0.362,-0.0013,-0.485,0.019676885205457167,1.3216499425723016,0.06174796053646452,0.03933241963843015
0.363,0.0001,0.515,0.019953430062442035,1.3304382395412648,0.06282571176445362,0.04001008816153232
0.364,0.0044,1.515,0.019961251564423844,1.322275402466337,0.06285619373926783,0.039380649060370206
0.365,-0.0022,0.515,0.01994794349754031,1.2981159044689423,0.06280432951158967,0.03751770207705771
0.366,-0.0033,-1.485,0.019943314256519903,1.3064297036968224,0.06278628842325124,0.03815878192040194
0.367,0.0133,1.515,0.02010826081888697,1.3083270151226734,0.06342911853074955,0.03830508423999378
0.368,-0.0035,-0.485,0.02014649465643164,1.3083270151226734,0.06357812352695079,0.03830508423999378
0.369,-0.0015,1.515,0.020198858819534697,1.3083270151226734,0.06378219725915558,0.03830508423999378
0.37,0.0043,-0.485,0.02023715413415451,1.3076948838447207,0.06393144184394997,0.038256340385405145
0.371,0.0169,1.515,0.020404634643336087,1.2987526980535453,0.0645841472545755,0.037566805443673884
0.372,0.0216,-0.485,0.020311116319931422,1.2987526980535453,0.06421968743786527,0.037566805443673884
0.373,-0.0013,-1.485,0.02011758027804955,1.292310299128525,0.06346543834760016,0.03707002990454817
0.374,0.0085,-1.485,0.020138537857789157,1.3172042047579782,0.0635471142736915,0.038989607306374026
0.375,-0.0003,1.515,0.01996771451284407,1.3012967562266307,0.06288138115613855,0.03776297862158644
0.376,-0.0028,0.515,0.018784698614314012,1.3247742890893142,0.05827092898113692,0.03957333904492275
0.377,0.004,0.515,0.018709996194000173,1.3165763357154612,0.05797979854354791,0.03894119211418756
0.378,-0.0073,0.515,0.01870668551172147,1.32290056664651,0.05796689614525254,0.03942885567971526
0.379,-0.0015,0.515,0.018583774910201488,1.3210241865443708,0.05748788867729486,0.03928416738150623
0.38,0.0002,1.515,0.01860268427024996,1.3423105314728494,0.057561582277078,0.04092556456925139
0.381,0.0016,0.515,0.018575818665221736,1.341694411420416,0.057456881581771195,0.04087805534562584
0.382,-0.0213,-1.485,0.018519766624875405,1.3348399015997847,0.05723843544622126,0.04034950179729433
0.383,-0.0376,-0.485,0.018634432475830267,1.341078008309222,0.05768531145405018,0.04083052429524445
0.384,-0.029,-0.485,0.018637984312129173,1.341078008309222,0.05769915367832619,0.04083052429524445
0.385,-0.0047,1.515,0.01852537094735945,1.3323598935116354,0.057260276624195354,0.04015826754288613
0.386,0.0315,-1.485,0.01851593097770195,1.33860955745357,0.05722348715357755,0.04064018122290544
0.387,0.0362,-2.485,0.018516749792186635,1.337991733173227,0.05722667823919738,0.040592540585694926
0.388,0.0231,-0.485,0.018508897336548553,1.3466733889745461,0.05719607563172551,0.04126198597263836
0.389,0.0431,0.515,0.01851304336720664,1.3466733889745461,0.057212233551571685,0.04126198597263836
0.39,0.0177,1.515,0.018465251438008725,1.3229595148907223,0.057025978739449694,0.039433401198572436
0.391,0.0014,0.515,0.018522477680783692,1.3311181567787445,0.057249000979300274,0.040062516807466995
0.392,-0.0073,-1.485,0.018609389977426744,1.3311181567787445,0.05758771577391143,0.040062516807466995
0.393,-0.0152,-1.485,0.018800923949709062,1.3311181567787445,0.058334162394107276,0.040062516807466995
0.394,-0.0471,-1.485,0.018815908302549905,1.3242089021646808,0.058392559447123966,0.039529741869775994
0.395,-0.0601,-3.485,0.01886481689144494,1.3242089021646812,0.05858316610788615,0.03952974186977603
0.396,-0.0401,-2.485,0.01879742576333128,1.366955818149859,0.058320529254422465,0.042825970880374147
0.397,-0.0146,-0.485,0.0188994249885555,1.3675605573574785,0.05871804086045228,0.04287260252324385
0.398,0.0083,-0.485,0.018918442042651154,1.373650078989407,0.05879215416571417,0.043342167576095554
0.399,0.0529,3.515,0.019040710088200036,1.3803118742666305,0.0592686574631208,0.04385586084143109
0.4,0.0591,2.515,0.019214365124187432,1.3803118742666303,0.05994542625326376,0.04385586084143107
0.401,0.0297,1.515,0.01934221041531361,1.3803118742666314,0.060443665204463634,0.04385586084143116
0.402,0.0033,0.515,0.019687165277806725,1.388728990398686,0.061788024057151,0.04450490748586445
0.403,-0.0015,0.515,0.019701194248066628,1.3681650292658585,0.06184269779106123,0.04291921355457964
0.404,0.0116,2.515,0.0197012584606676,1.4130946730861622,0.061842948040551696,0.04638375343969505
0.405,0.0077,1.515,0.019698192667657086,1.4130946730861622,0.06183100002525368,0.04638375343969505
0.406,0.0113,-0.485,0.01970184798155331,1.406588150231131,0.06184524552265071,0.04588203328284654
0.40700000000000003,-0.0183,0.515,0.01975948684219711,1.4048235535369538,0.06206987581777187,0.04574596464066965
0.40800000000000003,-0.0382,0.514999999999889,0.019798147865374538,1.3982785437237963,0.062220545642765454,0.045241276741588
0.40900000000000003,-0.02,-1.4849999999999446,0.019857973482428876,1.398869742007628,0.06245369816980394,0.04528686423928859
0.41000000000000003,-0.0101,-0.485,0.01989697491853554,1.3988697420076281,0.06260569465281789,0.04528686423928861
0.41100000000000003,-0.0072,-0.48499999999988896,0.019956831785231676,1.3988697420076281,0.06283896896602947,0.04528686423928861
0.41200000000000003,0.0335,1.5149999999999444,0.020061656312981988,1.4189888007212017,0.06324749134730977,0.046838251595995306
0.41300000000000003,0.0161,0.515,0.020132380939137787,1.438826562876812,0.06352311951671251,0.04836794808089124
0.41400000000000003,-0.0103,0.5150000000000555,0.02035748564058668,1.438826562876812,0.06440039805682991,0.04836794808089124
0.41500000000000004,0.0039,1.515,0.020493612350719864,1.437101551819307,0.06493091137249134,0.0482349319004182
0.41600000000000004,0.0257,1.5149999999998889,0.021176531297534423,1.4428976165026979,0.06759238460172114,0.04868186838966857
0.41700000000000004,0.0139,-0.485,0.021510323294859243,1.5023290331717372,0.06889323951159727,0.05326464483682465
0.41800000000000004,-0.0186,0.515,0.021474013547063114,1.494551834289608,0.06875173308221756,0.05266494242588688
0.41900000000000004,-0.0141,-0.485,0.021909574091790042,1.5023290331717367,0.07044920060000522,0.053264644836824616
0.42000000000000004,-0.0261,-0.485,0.023173784315797693,1.562675120333448,0.07537608347975144,0.05791795183205879
0.42100000000000004,-0.0153,-0.485,0.023887357536592407,1.5833238896409023,0.07815702261330301,0.059510185350097375
0.42200000000000004,0.001,0.515,0.023849294718697622,1.5964235680964303,0.07800868411525937,0.060520305943816716
0.42300000000000004,0.0159,2.515,0.023807123659602924,1.5969414134650914,0.07784433497052948,0.060560237173657404
0.42400000000000004,0.0134,1.515,0.023807023658910305,1.591186836077408,0.07784394524760913,0.06011649978367607
0.42500000000000004,-0.0182,3.515,0.023850281296190882,1.5911868360774077,0.07801252900724709,0.06011649978367605
0.42600000000000005,0.004,0.515,0.023880384473422833,1.5896271699702378,0.07812984717610344,0.05999623340770912
0.42700000000000005,0.0011,-1.485,0.023878967630364505,1.589627169970238,0.07812432545220437,0.05999623340770914
0.42800000000000005,-0.0069,-1.485,0.02390042516246154,1.5896271699702382,0.07820794979372832,0.059996233407709154
0.42900000000000005,0.0098,-2.485,0.023889305365138773,1.596423568096429,0.0781646136950199,0.06052030594381661
0.43000000000000005,-0.0014,-0.485,0.023908972981565045,1.5964235680964285,0.07824126237323485,0.06052030594381658
0.43100000000000005,-0.0033,-0.485,0.02391438201997983,1.5891069410966143,0.07826234248970253,0.05995611838500238
0.43200000000000005,0.0207,-1.485,0.023915610341101828,1.606331180810171,0.07826712950549457,0.0612842852789371
0.43300000000000005,0.0043,-0.485,0.02382399741354213,1.600610362239713,0.07791009540168355,0.06084315104266025
0.43400000000000005,-0.0105,-0.485,0.023533714230225544,1.600610362239713,0.07677880313794366,0.06084315104266025
0.43500000000000005,0.0029,-1.485,0.023409148027400323,1.606331180810171,0.07629334345691922,0.0612842852789371
0.43600000000000005,-0.004,-0.485,0.023414589197625388,1.6346349794716446,0.07631454879754894,0.06346680067467764
0.43700000000000006,0.0026,1.515,0.023202637592152485,1.6346349794716446,0.07548853053214623,0.06346680067467764
0.43800000000000006,-0.0071,0.515,0.022933414773826783,1.617200932056545,0.0744393147694062,0.06212245543859743
0.43900000000000006,0.0055,0.515,0.02293442461594625,1.6228632676163481,0.07444325032834662,0.06255908003033256
0.44000000000000006,-0.015900000000000324,1.515,0.022664029727352496,1.6295210506908335,0.07338946677076688,0.06307246391337099
0.44100000000000006,-0.01880000000000089,-1.485,0.022595004838288607,1.642252271702099,0.07312046282051628,0.06405417263014067
0.44200000000000006,-0.02679999999999816,-1.485,0.022774732946817495,1.6589248072508485,0.07382089960239345,0.06533979743112214
0.44300000000000006,-0.010200000000000722,-0.485,0.022824168086509656,1.6704424105146871,0.07401355833808622,0.06622792367686087
0.44400000000000006,-0.01669999999999848,-1.485,0.023039282789199967,1.6649418957165638,0.07485190383295716,0.06580377713826414
0.44500000000000006,-0.003000000000001854,-3.485,0.02256677099897879,1.659921339896731,0.07301042983954252,0.06541664039725577
0.44600000000000006,-0.019699999999998757,0.515,0.02175304905254428,1.6254087275848945,0.06983919087103242,0.06275536130116267
0.44700000000000006,-0.00849999999999666,-1.485,0.021382520771230595,1.6083888023446278,0.06839516723398331,0.06144294916470279
0.44800000000000006,0.02160000000000049,-1.485,0.021362115245861277,1.608902796558491,0.06831564277540425,0.061482583430706984
0.44900000000000007,0.026000000000000443,0.515,0.021357127566960683,1.608902796558491,0.06829620478216678,0.061482583430706984
0.45000000000000007,0.03000000000000121,1.515,0.020693411024745204,1.5690613537109201,0.06570956720659056,0.05841039642699924
0.45100000000000007,0.0408999999999967,1.515,0.01984692280485944,1.5557312950644782,0.062410631444751,0.05738251113958781
0.45200000000000007,0.011199999999998668,-0.485,0.0197028730881927,1.5482223754715292,0.0618492405705119,0.05680349583450453
0.45300000000000007,-0.0007999999999987899,3.515,0.019966219148091106,1.5536039345272048,0.06287555341731754,0.05721846965595438
0.45399999999999996,0.0101,-0.485,0.019967612688544367,1.5589669165335478,0.06288098432625264,0.057632010994907425
0.45499999999999996,-0.0127,-0.485,0.019955096939184323,1.538528682967537,0.06283220792017856,0.056056011958414954
0.45599999999999996,-0.0215,-1.485,0.01994091477075801,1.5309353904660805,0.06277693714203554,0.05547049063009417
0.45699999999999996,-0.0135,-0.485,0.019941947922247395,1.538528682967537,0.06278096354230392,0.056056011958414954
0.45799999999999996,-0.0157,0.515,0.019876464894937176,1.5439440306505707,0.06252576294350959,0.05647359123223859
0.45899999999999996,-0.0135,0.515,0.019515628208237146,1.5434084036687712,0.06111950941041367,0.056432288856252476
0.45999999999999996,0.0166,-0.485,0.01945638953383375,1.5450147275394583,0.06088864431757196,0.056556153027993224
0.46099999999999997,0.0209,-2.485,0.019540261788033062,1.5525391611312485,0.061215511452050876,0.05713636462272389
0.46199999999999997,0.0169,-2.485,0.019529473138484833,1.5530716390792372,0.06117346590318144,0.05717742417565801
0.46299999999999997,-0.0302,0.515,0.019240283629618986,1.545549797832466,0.06004643590992871,0.05659741247752012
0.46399999999999997,-0.024,-1.485,0.019393951101391107,1.5450147275394592,0.06064530912062612,0.05655615302799329
0.46499999999999997,-0.0534,-1.485,0.020121842598060095,1.5627250239614736,0.06348204947056779,0.05792179991753213
0.46599999999999997,-0.0379,-4.485,0.02047955030109077,1.5611369231162744,0.06487610872159036,0.057799340929390944
0.46699999999999997,-0.0046,-0.485,0.02032726770051943,1.5536541295232533,0.06428263263399812,0.05722234020891356
0.46799999999999997,0.0436,1.515,0.02043547345172054,1.5595472050946426,0.06470433232678562,0.05767675724023334
0.469,0.0755,4.514999999999889,0.020365263963321344,1.5648898192480574,0.0644307117533867,0.05808872800722444
0.47,0.0581,2.515,0.020318112438226232,1.582900125672471,0.06424695272554987,0.059477508768542964
0.471,0.0102,2.514999999999889,0.02016308798194415,1.582900125672471,0.06364279107182041,0.059477508768542964
0.472,0.0163,0.5149999999999445,0.020239702506694664,1.5886847196935512,0.06394137336704706,0.05992356075118022
0.473,-0.0011,-0.4850000000000555,0.02042286775126297,1.5954851324452772,0.06465520536309541,0.06044794285640749
0.474,-0.0167,-1.485,0.020361700040156496,1.5749958095358487,0.06441682242415002,0.05886800430353062
0.475,-0.012,-1.484999999999889,0.020332811480620994,1.5681065431881014,0.06430423786606537,0.05833677066775076
0.476,0.001,0.515,0.020452100576405754,1.533195938051821,0.06476913159386581,0.0556448022116487
0.477,-0.0109,0.5150000000000555,0.020504514550889044,1.538630054927535,0.06497339945109176,0.056063828784207057
0.478,-0.0001,1.5149999999999444,0.020580386124958966,1.538630054927535,0.06526908631728359,0.056063828784207057
0.479,0.0098,0.5149999999999445,0.020627094688878345,1.538630054927535,0.06545111903584712,0.056063828784207057
0.48,-0.0051,-0.485,0.020646575563868,1.5206391596051805,0.06552703994492247,0.054676544819470485
0.481,0.0029,-2.485,0.020714424702918,1.5206391596051805,0.06579146175961975,0.054676544819470485
0.482,-0.004,-0.485,0.020819108870270688,1.528283609889553,0.06619943712804814,0.05526601094156829
0.483,-0.0062,-0.485,0.020735868877850047,1.5434589302348252,0.06587503404557078,0.05643618497668584
0.484,-0.016,-1.485,0.020738446666927174,1.5509909115961718,0.06588508021086079,0.05701697858245529
0.485,-0.0069,-3.485,0.02076766775846987,1.5509909115961718,0.065998960713419,0.05701697858245529
0.486,-0.0022,-1.485,0.020765669799516936,1.5450652015756716,0.0659911742633708,0.056560045097832974
0.487,0.0083,-0.485,0.02089883504575698,1.5456002543951064,0.06651014615540107,0.05660130319996681
0.488,0.0232,-1.485,0.020999383679718518,1.5380418745450086,0.06690200451395518,0.056018473997887036
0.489,0.025,1.515,0.021062676762001024,1.5380418745450086,0.0671486704541463,0.056018473997887036
0.49,0.0011,2.515,0.02117865876663542,1.5450652015756716,0.06760067577900467,0.056560045097832974
0.491,-0.0286,-2.485,0.02131186676567791,1.5380418745450086,0.06811981428735113,0.056018473997887036
0.492,-0.0167,-2.485,0.02126869518452045,1.5728449237558857,0.06795156590582645,0.05870214878055312
0.493,-0.0349,-0.485,0.02111525849954753,1.5675294232380304,0.06735359211795307,0.05829226875508228
0.494,0.0079,0.515,0.021096323450743422,1.5733705296117648,0.06727979840389468,0.05874267842416272
0.495,0.0021,0.515,0.02109791517155422,1.5680568108276878,0.06728600166175729,0.05833293578878036
0.496,-0.003,0.515,0.021112951980780576,1.53852868296754,0.06734460314791556,0.056056011958415176
0.497,0.0112,0.515,0.021069451398993865,1.5379911700161628,0.06717507258441124,0.05601456415468318
0.498,0.0069,-0.485,0.0210524259025828,1.532554787790629,0.06710872078216039,0.055595362900241384
0.499,0.0029,-0.485,0.02094353289913038,1.5325547877906287,0.06668434272837981,0.05559536290024136
0.5,-0.0079,1.515,0.02078164457546042,1.5320151788784053,0.0660534311954926,0.05555375347626643
0.501,-0.0177,-0.485,0.020589557619687216,1.524389441639353,0.06530482948681363,0.0549657303233616
0.502,-0.0325,-1.485,0.02018404150819891,1.5167253644774472,0.06372445120066166,0.05437475076616275
0.503,-0.0028,-1.485,0.020226926061649532,1.516725364477447,0.06389158097717275,0.05437475076616273
0.504,0.0092,0.515,0.02022843026368658,1.474395182501848,0.06389744315667682,0.05111065625463707
0.505,-0.0017,-0.485,0.020389584227787024,1.4822781428318206,0.06452549274182628,0.05171851396624508
0.506,-0.0115,1.515,0.020358062083426783,1.4828358513278193,0.06440264457114069,0.051761519055187756
0.507,-0.0086,-1.485,0.020253778438671863,1.4766366618939288,0.06399623012026574,0.05128349748139122
0.508,-0.0061,-0.485,0.02023250242209712,1.4771965003056946,0.06391331318143655,0.051326666808852166
0.509,-0.013,1.515,0.020182334066934378,1.498471500912742,0.06371779695679095,0.05296718923217175
0.51,0.0207,1.515,0.020195923899207713,1.498471500912742,0.06377075928116914,0.05296718923217175
0.511,-0.0031,0.515,0.020332372974467668,1.4990231847152442,0.06430252891891525,0.05300972975498081
0.512,0.0013,-0.485,0.02024003174093467,1.4805510852761123,0.06394265645945503,0.05158533997961006
0.513,0.0292,-0.485,0.020171228691818213,1.461845588258457,0.06367451706433798,0.05014295283877791
0.514,0.0546,-2.485,0.019945011978197848,1.461845588258457,0.06279290478792762,0.05014295283877791
0.515,0.0383,-1.485,0.01980155227340853,1.456124947400808,0.06223381330928152,0.0497018323059953
0.516,-0.0063,-0.485,0.019093314977647286,1.449811550412381,0.05947366935456634,0.04921500414941222
0.517,-0.0252,-1.485,0.018777736026927158,1.3821077664349792,0.058243794370180936,0.04399434268810441
0.518,-0.0077,-1.485,0.01886513084075191,1.3905140116418007,0.0585843896318193,0.04464255107185154
0.519,-0.0026,-2.485,0.018355238263685746,1.3821077664349763,0.056597235153276054,0.04399434268810419
0.52,-0.0073,-0.485,0.016759946020584143,1.3052230464465833,0.050380058696805875,0.0380657361756407
0.521,0.0233,-1.485,0.015874770270614517,1.2872422164886863,0.046930349807198374,0.036679228354529046
0.522,0.0273,1.515,0.01584389304690104,1.2624124466189401,0.04681001502268305,0.03476459648261782
0.523,0.0019,-0.485,0.01575997561497918,1.26241244661894,0.04648297182148397,0.03476459648261781
0.524,-0.0079,0.515,0.015760755364800306,1.2624124466189401,0.04648601066421062,0.03476459648261782
0.525,-0.0286,-1.485,0.01568435314778019,1.2624124466189401,0.04618825577514021,0.03476459648261782
0.526,-0.0152,-1.485,0.015673061332130055,1.2624124466189388,0.046144249286226104,0.034764596482617725
0.527,-0.0177,-1.485,0.01584779570997939,1.2624124466189373,0.04682522448985947,0.0347645964826176
0.528,-0.0155,-1.485,0.015922785144994546,1.284026548627391,0.04711747348177696,0.03643126712858879
0.529,-0.0133,0.515,0.015933674050803905,1.27556674004688,0.0471599097495689,0.035778928455154284
0.53,0.0168,-0.485,0.016182260140733214,1.2749183656405922,0.048128700008781646,0.03572893208749875
0.531,0.0211,1.515,0.017365512053182736,1.2749183656405922,0.05274007197775194,0.03572893208749875
0.532,0.0091,2.515,0.01742697110821635,1.2617573126842838,0.052979590342894234,0.03471407888546555
0.533,0.0054,1.515,0.01750602458674277,1.262412446618938,0.053287677734168065,0.034764596482617656
0.534,0.0152,-0.485,0.017531469241003704,1.262412446618938,0.05338684069700334,0.034764596482617656
0.535,0.0004,-0.485,0.017469721907755198,1.262412446618938,0.053146198853364676,0.034764596482617656
0.536,-0.0239,0.515,0.017456852670798786,1.2159959675824805,0.053096044834648595,0.03118540623593782
0.537,-0.0207,-0.485,0.017569791816470507,1.2159959675824805,0.053536191522830893,0.03118540623593782
0.538,-0.0178,0.515,0.01762300112742609,1.2166757425226329,0.05374355896711488,0.03123782390927792
0.539,0.0228,1.515,0.01747086925703725,1.2091127043039234,0.05315067030552309,0.03065463549883407
0.54,0.0286,0.515,0.01729123032990262,1.2001249361808128,0.052450581081572765,0.02996158568821853
0.541,0.013,3.515,0.017307967818926764,1.1727484191609723,0.05251581046079862,0.02785057329047686
0.542,0.0082,0.515,0.017078087148122912,1.1490430202751332,0.051619919002353,0.026022642041766488
0.543,-0.0049,-1.485,0.017136722506925085,1.1322338679394583,0.05184843285229988,0.024726482674582512
0.544,-0.0169,0.515,0.01681180308909153,1.1322338679394583,0.0505821561788314,0.024726482674582512
0.545,0.0085,1.515,0.016800599289421556,1.1395815868891763,0.05053849270598974,0.025293067744068698
0.546,-0.0143,-0.485,0.01685826247714334,1.1468822322473042,0.050763217808653,0.025856022953139077
0.547,0.0006,0.515,0.016866609504810712,1.1468822322473042,0.05079574786333075,0.025856022953139077
0.548,0.0031,-1.485,0.017077188503309703,1.1541366973250031,0.05161641680180036,0.02641541718531652
0.549,0.001,-0.485,0.017118191433542783,1.1541366973250031,0.05177621351214841,0.02641541718531652
0.55,-0.0103,-0.485,0.017650275549282952,1.164190214116473,0.05384985290427002,0.02719064723274425
0.551,-0.0045,-0.485,0.018037654357373232,1.2077442581841793,0.05535954645152372,0.030549114160150718
0.552,-0.0173,-0.485,0.018107911925899837,1.2173551378743783,0.05563335440290146,0.03129021231242882
0.553,-0.0026,-0.485,0.017826232547502607,1.2104796033975296,0.0545355929067134,0.030760037545813725
0.554,0.0275,1.515,0.017855482723756005,1.2125270628072105,0.054649586758270446,0.03091791782673393
0.555,0.0057,0.515,0.01795955358014361,1.2125270628072105,0.055055171929849885,0.03091791782673393
0.556,-0.0062,-0.485,0.01804964275298286,1.2200689360744066,0.055406267653395874,0.03149947420067694
0.557,-0.0098,0.515,0.018014922188194973,1.2104796033975296,0.05527095459154902,0.030760037545813725
0.558,-0.0066,2.515,0.018001968824400787,1.2104796033975296,0.05522047271353479,0.030760037545813725
0.559,-0.0154,0.515,0.018263447229098638,1.2570997822142043,0.056239506930364065,0.03435493515077965
0.56,-0.0288,0.515,0.018405918639470734,1.2477950648687093,0.05679474682582257,0.033637445279457216
0.561,0.0079,0.515,0.018369830328496484,1.2390879123954683,0.0566541033805146,0.03296603383560125
0.562,0.0028,0.515,0.018512042476390312,1.2477950648687093,0.05720833287766966,0.033637445279457216
0.5630000000000001,-0.002,0.515,0.018911978371546,1.2570997822142043,0.05876696393239417,0.03435493515077965
0.5640000000000001,0.0023,0.514999999999889,0.01899562817421583,1.266336132697513,0.059092964128280606,0.03506715323045799
0.5650000000000001,-0.009799999999997191,-0.48499999999988896,0.018197928913139077,1.2444148057515765,0.055984168804567504,0.03337679236664602
0.5660000000000001,0.015500000000000356,0.515000000000111,0.017808054129315593,1.2370213733157083,0.0544647479351686,0.0328066823149301
0.5670000000000001,0.018699999999997705,1.5149999999997779,0.017985719181398175,1.2597279625012643,0.055157144568902514,0.03455759501307927
0.5680000000000001,-0.0020000000000008882,-0.48499999999988896,0.017952411436231445,1.2597279625012645,0.055027337550806514,0.034557595013079284
0.5690000000000001,-0.010000000000001343,0.514999999999778,0.017937036408392146,1.2524249313925901,0.05496741795832218,0.03399445583798511
0.5700000000000001,-0.02209999999999727,-1.484999999999778,0.017940786183142446,1.239024973855782,0.05498203158876854,0.03296118062372344
0.5710000000000001,0.0024999999999996227,0.515,0.01821304266031405,1.2483950594145325,0.056043070133469215,0.03368371105986648
0.5720000000000001,-0.0008999999999996891,0.514999999999889,0.018444555337732798,1.24169141210806,0.05694532185170223,0.03316679057053633
0.5730000000000001,0.0018999999999991008,-0.485000000000111,0.018245663327622695,1.24169141210806,0.0561701994702178,0.03316679057053633
0.5740000000000001,-0.006199999999998157,-1.485,0.018424918398392196,1.2675798084149765,0.05686879272829337,0.03516305348162701
0.5750000000000001,0.010399999999996235,-1.484999999999778,0.01845974270976783,1.292310299128519,0.05700451011157133,0.037070029904547705
0.5760000000000001,-0.02349999999999949,0.514999999999667,0.018273157831408954,1.2942283094694238,0.05627735111115471,0.0372179283244129
0.5770000000000001,-0.018899999999998557,-2.485,0.018228319902330998,1.2871210457055815,0.05610260863483051,0.03666988483485512
0.5780000000000001,-0.005899999999996026,0.515,0.018265608990577057,1.2799743183221983,0.05624793175197669,0.03611879829237538
0.5790000000000001,0.029900000000003698,-0.485,0.018357241985776183,1.2734369219151258,0.05660504406343646,0.035614697465587215
0.5800000000000001,0.06319999999999465,-0.485,0.018309094867852774,1.272787462552379,0.05641740500902826,0.03556461743657569
0.581,0.0149,1.515,0.01823405762521093,1.2734369219151258,0.05612496970112236,0.035614697465587215
0.582,-0.0171,0.515,0.018111455200759293,1.2649062909285111,0.05564716326151672,0.034956897652694593
0.583,-0.0113,-0.485,0.018184835735328062,1.2389620321188552,0.055933142043057806,0.03295632716530536
0.584,-0.0063,-1.485,0.01817777058833938,1.229520060226668,0.05590560773659485,0.032228253549911184
0.585,-0.0016,-0.485,0.01811405452726488,1.2301923620986825,0.055657293362520524,0.03228009497246391
0.586,0.02,-1.485,0.018138331851483416,1.2376265908988013,0.055751907004134,0.0328533508454928
0.587,0.016,0.515,0.01801510006702499,1.2443521366427976,0.05527164782131859,0.03337195993067575
0.588,-0.0022,-0.485,0.017997425894922866,1.2443521366427976,0.05520276799873055,0.03337195993067575
0.589,0.001,0.515,0.017917093747629287,1.2436874891633143,0.05488969737671065,0.03332070874089509
0.59,-0.0077,-0.485,0.017869525960119953,1.234951376142074,0.054704316090072896,0.03264706413948196
0.591,-0.0052,0.515,0.017640660636423763,1.2342816664639622,0.05381238164461985,0.032595422601869366
0.592,-0.0219,-1.485,0.017592666787217666,1.1916979036806106,0.05362533990939559,0.029311774389315665
0.593,-0.0107,-0.485,0.01758996898886416,1.200748750947886,0.053614826043688384,0.030009688253867454
0.594,-0.005,-1.485,0.017642934806921678,1.1937775761988503,0.05382124454691175,0.029472138633827298
0.595,-0.0141,-1.485,0.017571115716695476,1.2028127745835377,0.053541351029714336,0.030168845807800805
0.596,-0.0061,0.515,0.0175520173315926,1.1937775761988503,0.053466920761071304,0.029472138633827298
0.597,-0.029,-1.485,0.017499768061164975,1.1937775761988503,0.0532632947888552,0.029472138633827298
0.598,0.0137,-0.485,0.017512520036802266,1.2028127745835377,0.053312991816499185,0.030168845807800805
0.599,0.0431,1.515,0.017512485914867284,1.1958536320276165,0.05331285883641874,0.02963222399420215
0.6,0.038,3.515,0.017532283107479656,1.1965448501831384,0.05339001249923261,0.02968552405771254
0.601,0.0238,1.515,0.017505740271765605,1.2041868248879168,0.053286569701210526,0.030274799287038606
0.602,-0.0066,0.515,0.017555814171628808,1.2041868248879168,0.053481717814453954,0.030274799287038606
0.603,-0.0106,1.515,0.01751721948984135,1.2048732624221477,0.053331306535272,0.030327730715239875
0.604,-0.0214,0.515,0.017516026130853006,1.2124627455033998,0.05332665577398452,0.030912958297892656
0.605,-0.0181,-1.485,0.017431630047295848,1.2261530215144663,0.052997747170574205,0.031968620066952676
0.606,0.0026,-0.485,0.01747535261221428,1.2261530215144663,0.053168142847230204,0.031968620066952676
0.607,0.0052,-1.485,0.017487096946579923,1.2268271685266845,0.05321391289308276,0.03202060376888458
0.608,-0.0314,-3.485,0.0174654921518916,1.2336115932103218,0.05312971463946249,0.032543753028825985
0.609,-0.0263,-0.485,0.017469119686534983,1.2145710707234556,0.05314385187549395,0.031075531961839153
0.61,0.0172,0.515,0.017436498257870164,1.221423574074951,0.05301671957158641,0.03160393079066349
0.611,0.0231,1.515,0.0173235878013807,1.2302557525052156,0.05257668469094862,0.03228498302794563
0.612,0.0387,1.515,0.017671744979963957,1.2295834852933034,0.05393352361698172,0.032233144278045
0.613,0.0342,1.515,0.017886717757503227,1.2363527849176925,0.05477131600084027,0.03275512723960132
0.614,0.0039,0.515,0.01789033113112813,1.2450790649753456,0.05478539804851921,0.033428013617898496
0.615,-0.008,-0.485,0.0178888503285648,1.2702476989044993,0.05477962706149584,0.035368775410940294
0.616,-0.026,-2.485,0.01821549441337414,1.2708984561475882,0.056052625110915,0.035418955519939746
0.617,-0.0227,-1.485,0.01841067096142775,1.2774488433225137,0.056813267585459244,0.03592405806918859
0.618,-0.002,-0.485,0.01850621270787873,1.2755056015194897,0.05718561309093866,0.03577421404282757
0.619,-0.0045,1.515,0.01856193926703617,1.276153677569337,0.05740279076047972,0.03582418740411804
0.62,0.0322,1.515,0.0188197077817593,1.3007211643184864,0.0584073667858982,0.03771859453674278
0.621,0.0373,0.515,0.01882828606060082,1.3185181926581948,0.058440798073163054,0.03909092935350769
0.622,0.004,1.515,0.018880161844877105,1.3185181926581948,0.05864296849432451,0.03909092935350769
0.623,0.0257,2.515,0.018916229541930243,1.3248331539625433,0.05878353160301354,0.03957787813501548
0.624,0.0138,2.515,0.018915287891222,1.324833153962543,0.0587798617997917,0.03957787813501546
0.625,-0.0115,1.515,0.018915682000020674,1.3178909496253801,0.05878139772147314,0.03904256243313907
0.626,-0.0082,-0.485,0.01890186432857862,1.3109119819311437,0.05872754746178294,0.03850441189648408
0.627,-0.0212,-0.485,0.018763962967607947,1.3102810977437231,0.05819011797295451,0.038455764205464114
0.628,-0.024,0.515,0.018718763543815898,1.289107273621143,0.05801396667863141,0.036823043534753006
0.629,0.0003,-0.485,0.01873165769575686,1.2884657130233579,0.05806421779608036,0.03677357258215354
0.63,-0.0029,0.515,0.018500450115608406,1.29747879835051,0.057163155103603605,0.03746857461085326
0.631,0.0001,0.515,0.017514568355802545,1.2981159044689463,0.05332097452983521,0.03751770207705801
0.632,-0.0187,-0.485,0.01753842236973366,1.289107273621143,0.05341393844566075,0.036823043534753006
0.633,-0.0019,-0.485,0.017512541740917348,1.289107273621143,0.05331307640182446,0.036823043534753006
0.634,0.0003,0.515,0.01751318928554213,1.289107273621143,0.053315600014167665,0.036823043534753006
0.635,-0.0094,-1.485,0.017503042560401996,1.2826164280232928,0.05327605617452053,0.036322532256457145
0.636,-0.0112,-1.485,0.01750887437942859,1.2897485150869852,0.05329878395252317,0.036872489878981445
0.637,-0.0191,-0.485,0.01740596623226996,1.2826164280232928,0.05289773009392125,0.036322532256457145
0.638,-0.0053,-0.485,0.017347509018219024,1.2910300425247188,0.052669910510092705,0.036971308888979725
0.639,0.0187,0.515,0.017347156163637446,1.2916703294446006,0.05266853536443734,0.03702068162784942
0.64,0.0024,-0.485,0.01737446819738634,1.2910300425247179,0.05277497588274125,0.036971308888979655
0.641,-0.0004,1.515,0.01736207074202059,1.2916703294445997,0.05272666049228325,0.03702068162784935
0.642,0.0076,1.515,0.01737605610562594,1.2910300425247174,0.05278116428224295,0.03697130888897962
0.643,0.0145,0.515,0.017267124843787493,1.2839050743600624,0.05235663712779577,0.03642190020714472
0.644,-0.0057,1.515,0.017234048857509163,1.30895884112754,0.05222773332095198,0.038353804554872487
0.645,0.0023,0.515,0.017352055015713953,1.310852491916765,0.05268762718157961,0.038499824601547904
0.646,-0.0046,-0.485,0.017387236170095847,1.3127434110909995,0.052824735254210435,0.03864563401247638
0.647,0.0067,1.515,0.017416520401459003,1.3209651519358776,0.05293886182541651,0.03927961520307043
0.648,-0.0031,0.515,0.0173375484210994,1.3146316104374134,0.052631092048978576,0.03879123369657055
0.649,-0.0084,0.515,0.017626002804834714,1.32159093591592,0.053755257110947474,0.03932786961539103
0.65,-0.0036,-1.485,0.017269545054046456,1.3127434110909957,0.05236606917656727,0.03864563401247609
0.651,-0.014,-0.485,0.016851028785115508,1.264252449301319,0.05073502664809087,0.03490647970580376
0.652,-0.0128,0.515,0.01687740258711029,1.2642524493013203,0.05083781068752854,0.034906479705803864
0.653,-0.0016,-1.485,0.017003689988833802,1.2890467773113061,0.05132997822870438,0.03681837864403697
0.654,-0.0215,-2.485,0.017005708382995786,1.2799743183221957,0.05133784431889445,0.03611879829237517
0.655,0.0136,0.515,0.017206090725071965,1.2799743183221957,0.052118774825411704,0.03611879829237517
0.656,0.0089,0.515,0.017630871770367314,1.273436921915123,0.053774232454184764,0.03561469746558699
0.657,0.0045,-1.485,0.017630085754932287,1.2740860502190618,0.053771169193093764,0.03566475196654294
0.658,-0.0075,-1.485,0.0176894644588366,1.2668657910879735,0.05400258000921599,0.03510799536636664
0.659,-0.0111,-1.485,0.01743852170865219,1.220618671177611,0.053024605368447296,0.0315418644586304
0.66,-0.0209,1.515,0.0175580616232378,1.2212958731173802,0.05349047658783288,0.03159408372704907
0.661,-0.0358,-0.485,0.017546706148211372,1.220618671177611,0.05344622200545675,0.0315418644586304
0.662,-0.0278,-1.485,0.017424865541609796,1.2117162502670542,0.05297138452406048,0.03085539580016372
0.663,0.0041,1.515,0.0169989817499432,1.2117162502670542,0.0513116292696916,0.03085539580016372
0.664,-0.0002,2.515,0.016680544947784468,1.2027479378053838,0.05007061666036191,0.03016384622211891
0.665,0.0357,0.515,0.016677296926793983,1.2020602866033618,0.05005795846577751,0.030110821207587724
0.666,0.0309,-1.485,0.01668079727865064,1.211716250267054,0.05007160004477138,0.030855395800163703
0.667,0.0265,-1.485,0.01647751925997407,1.197860988690189,0.04927938450100572,0.02978701193885956
0.668,0.0145,0.515,0.016337722330142034,1.1901783973388123,0.048734567597020315,0.0291946047463089
0.669,0.0326,2.515,0.016344130220127304,1.1999299796339273,0.048759540440036594,0.02994655252358338
0.67,0.0228,2.515,0.01638117108810495,1.1908729095743722,0.048903896192603984,0.029248158817434446
0.671,0.0142,0.515,0.016122203963443747,1.1810465478658483,0.04789464894188512,0.028490444774543072
0.672,0.0117,-1.485,0.01573185999642825,1.1803462538423588,0.046373399570713104,0.028436444867813545
0.673,-0.0003,-0.485,0.01574140200628852,1.194404706075417,0.04641058671263472,0.029520496828679743
0.674,0.0063,-0.485,0.015728228870229795,1.1747288729023886,0.04635924833766528,0.028003286741872222
0.675,-0.0075,-0.485,0.015711183233457937,1.1568639745295768,0.04629281804435583,0.026625718444120212
0.676,-0.0057,-0.485,0.01575795400640944,1.1747288729023886,0.04647509320409687,0.028003286741872222
0.677,-0.0137,0.515,0.015753532554745243,1.1747288729023886,0.046457861912896824,0.028003286741872222
0.678,0.0091,-0.485,0.015621171291311879,1.1747288729023886,0.04594202330443808,0.028003286741872222
0.679,0.0058,1.515,0.015478705874326194,1.1747288729023886,0.04538680676641835,0.028003286741872222
0.68,-0.0211,0.515,0.015796137176571644,1.2274374126182988,0.04662390073926317,0.032067659895203084
0.681,-0.0175,-0.485,0.01584947546250417,1.2362266261334327,0.04683177082511241,0.032745399093487504
0.682,-0.0142,0.515,0.015852292417061764,1.2362266261334327,0.04684274906664161,0.032745399093487504
0.683,-0.0114,-0.485,0.015753117880166447,1.2362266261334327,0.046456245842211634,0.032745399093487504
0.684,0.002,0.515,0.01581399034187458,1.236895282725016,0.04669347813454911,0.03279695942724511
0.685,-0.0048,-1.485,0.015857851623703168,1.245617762274424,0.04686441441905403,0.033469552747078454
0.686,0.0064,-0.485,0.015830134377829045,1.245617762274424,0.046756394707159886,0.033469552747078454
0.687,-0.0073,1.515,0.015799123890515812,1.245617762274424,0.046635540567448994,0.033469552747078454
0.6880000000000001,-0.0019,0.514999999999889,0.015701240452291054,1.2462813803309791,0.046254069015612104,0.03352072455771229
0.6890000000000001,-0.0098,-0.48499999999988896,0.0156923787387672,1.2555973150226085,0.04621953312607668,0.03423907940235263
0.6900000000000001,0.00399999999999859,0.514999999999889,0.015580759066245554,1.2555973150226087,0.04578452869157176,0.03423907940235265
0.6910000000000001,-0.008700000000000156,-0.485,0.015580297996311826,1.2562556613835143,0.045782731808806765,0.034289844710769075
0.6920000000000001,-0.010099999999998834,-0.4849999999996669,0.015583515197856505,1.2542795856425675,0.04579526989377884,0.03413746884845642
0.6930000000000001,0.00040000000000226486,2.514999999999889,0.015602281855907703,1.2523003917436304,0.04586840735502274,0.03398485254393664
0.6940000000000001,0.020799999999999676,1.515,0.015539841540890493,1.2589475495940872,0.04562506482130313,0.03449741711239108
0.6950000000000001,0.017899999999996703,1.515,0.01554143332196451,1.2496565904666221,0.04563126831402368,0.033780988141869535
0.6960000000000001,-0.011800000000001332,1.5149999999998889,0.015558734591431003,1.2489947657338345,0.045698694859635784,0.03372995461503213
0.6970000000000001,-0.023800000000001202,0.514999999999778,0.015560028039707696,1.2489947657338345,0.04570373568911909,0.03372995461503213
0.6980000000000001,-0.03459999999999891,-1.484999999999889,0.01562983697388565,1.2396292132320141,0.045975795221721495,0.033007773724427425
0.6990000000000001,-0.024799999999997702,-0.48499999999988896,0.015631377703108244,1.2389620321188521,0.045981799755053815,0.03295632716530512
0.7000000000000001,-0.004099999999996703,0.515000000000111,0.01565406638008676,1.2389620321188521,0.04607022211713152,0.03295632716530512
0.7010000000000001,0.025599999999999568,1.515000000000111,0.01576234957923968,1.232207066837538,0.046492223640248014,0.0324354495297449
0.7020000000000001,0.0216999999999988,2.514999999999667,0.015839833172354545,1.232207066837538,0.04679419287062544,0.0324354495297449
0.7030000000000001,0.010900000000002543,-0.48499999999988896,0.01582771693411086,1.2409624993651163,0.04674697344015722,0.03311058386476324
0.7040000000000001,0.03380000000000096,0.515,0.015853112814013224,1.2429597469865854,0.04684594631945446,0.03326459229787494
0.7050000000000001,0.04249999999999551,0.515,0.015707168500482465,1.219941093316087,0.0462771718181286,0.03148961620275929
0.7060000000000001,0.0019999999999980684,0.515,0.015648476242409906,1.228783927477649,0.046048436220219376,0.03217149010705114
0.7070000000000001,-0.015399999999999423,-0.485,0.015641519368187348,1.228110854589784,0.046021323874619914,0.03211958923120791
0.7080000000000001,-0.010199999999995171,-0.485,0.01563615983776434,1.2206186711776108,0.04600043670080725,0.03154186445863038
0.7090000000000001,0.03329999999999808,0.515,0.015656829813440767,1.213761623614658,0.046080991775707784,0.03101311522413839
0.71,0.016,-0.485,0.015617505522178053,1.215803555990083,0.045927737060865954,0.03117056931359573
0.711,-0.0104,0.515,0.015565821777519076,1.206180313313825,0.04572631505692561,0.03042851784732137
0.712,-0.0057,1.515,0.015149096201023593,1.2158035559900828,0.04410225121896732,0.031170569313595714
0.713,-0.0099,0.515,0.014917461295431905,1.2089191971717648,0.043199523152828524,0.030639714099054027
0.714,0.0021,-0.485,0.014927339748147283,1.199240712600323,0.043238021480588834,0.029893402911737622
0.715,-0.0087,1.515,0.0149996281321301,1.1817464269004514,0.043519743930451965,0.02854441268134056
0.716,0.0012,1.515,0.014844697916083208,1.1817464269004514,0.04291594954997542,0.02854441268134056
0.717,-0.0075,-0.485,0.014907780358858373,1.1838435814289083,0.04316179458541286,0.028706124969516016
0.718,-0.005,1.515,0.01479155334104437,1.1760694259084243,0.04270883439464928,0.02810665723321414
0.719,-0.0119,0.515,0.01472908137948027,1.1760694259084246,0.042465368527937176,0.028106657233214156
0.72,-0.014,-0.485,0.014472327599172895,1.1488393952264508,0.04146474712772702,0.02600694044605409
0.721,-0.0122,-0.485,0.014291500763467586,1.130565472123632,0.040760028383868975,0.02459783211435978
0.722,-0.0068,-2.485,0.014223043123040619,1.1401017305592855,0.04049323511626018,0.025333176196703912
0.723,-0.0249,-1.485,0.014174844055234292,1.1401017305592855,0.04030539360265343,0.025333176196703912
0.724,0.0117,1.515,0.014175419302741181,1.1401017305592855,0.040307635458508954,0.025333176196703912
0.725,0.0167,2.515,0.014182781619700508,1.1401017305592855,0.04033632789643845,0.025333176196703912
0.726,-0.0073,-0.485,0.014217958034291562,1.1401017305592855,0.040473417497145926,0.025333176196703912
0.727,0.0058,-0.485,0.01422587627669526,1.1408267288639518,0.040504276488946195,0.025389081058830195
0.728,0.0115,0.515,0.014172939738347993,1.1408267288639518,0.04029797209467434,0.025389081058830195
0.729,0.0315,3.515,0.014148982823087438,1.1408267288639518,0.040204607151560226,0.025389081058830195
0.73,0.0133,1.515,0.014175182263116424,1.131296581814105,0.04030671166715934,0.02465420822749276
0.731,-0.003,0.515,0.014017533442166226,1.130565472123632,0.039692322333643705,0.02459783211435978
0.732,-0.006,-0.485,0.013908513523785379,1.1408267288639518,0.03926744966672349,0.025389081058830195
0.733,-0.014,0.515,0.013838395385074179,1.1502779205724898,0.03899418510153058,0.026117865617351556
0.734,-0.0118,1.515,0.013797266227769075,1.1582252049106962,0.0388338964587584,0.02673068337478116
0.735,-0.0006,-1.485,0.013891649571791103,1.1575111040608974,0.039201727435730874,0.02667561881905003
0.736,0.0052,-1.485,0.01389038880776067,1.1502779205724898,0.039196813983364345,0.026117865617351556
0.737,-0.0075,0.515,0.013876772482393138,1.15027792057249,0.03914374841004089,0.026117865617351573
0.738,0.0004,1.515,0.013936314750221652,1.1481194566586401,0.0393757966678501,0.0259514257419316
0.739,-0.001,0.515,0.014038228453739636,1.1553661533149733,0.03977297497849731,0.02651022094853533
0.74,-0.0021,0.515,0.014022494760175494,1.1632786763968868,0.03971165759315723,0.027120358253848165
0.741,-0.0032,-1.485,0.014074091096158663,1.1625676796185016,0.039912738947812984,0.02706553305410352
0.742,-0.0108,-1.485,0.014098479717506428,1.1625676796185016,0.04000778633684453,0.02706553305410352
0.743,0.004,-1.485,0.01424771881645321,1.1632786763968885,0.04058940128317738,0.0271203582538483
0.744,0.0061,-0.485,0.014307845384372197,1.163278676396891,0.04082372667659088,0.027120358253848488
0.745,-0.0077,-0.485,0.014193199623337224,1.1532172130294487,0.040376928963242166,0.026344515443285657
0.746,0.005,-0.485,0.014083141253197,1.1676023566963292,0.03994800923982964,0.027453758690046074
0.747,0.0162,-0.485,0.014099537712218465,1.1654759781155444,0.04001190955617515,0.027289792925406405
0.748,-0.0038,-0.485,0.013913474042058152,1.1654759781155455,0.03928678180950219,0.02728979292540649
0.749,-0.0119,0.515,0.013477276433129938,1.1582925339035404,0.03758683152370094,0.026735875135972635
0.75,-0.0188,0.515,0.013251963447126277,1.1590061532894602,0.03670874125655624,0.02679090256586278
0.751,-0.021,-0.485,0.013414079878367185,1.1582925339035401,0.037340541770773214,0.026735875135972618
0.752,-0.0112,1.515,0.013176057036731633,1.1582925339035386,0.03641291862616269,0.0267358751359725
0.753,0.0091,1.515,0.013018710068537626,1.137992494277581,0.035799705673875776,0.025170532280488496
0.754,0.0011,-0.485,0.012982901357765876,1.1379924942775812,0.0356601518870951,0.025170532280488513
0.755,-0.0011,1.515,0.012588591992805995,1.1379924942775812,0.03412344855828806,0.025170532280488513
0.756,-0.0076,-0.485,0.011860144985757916,1.1453032692260237,0.03128454327206895,0.025734268585661167
0.757,-0.0019,-0.485,0.011867714505392311,1.1453032692260237,0.03131404322072178,0.025734268585661167
0.758,-0.011,0.515,0.01176777677885471,1.1532848343898705,0.03092456569193074,0.026349729749038986
0.759,0.0001,1.515,0.011725846657493417,1.1540015504754826,0.030761155530268113,0.026404995966479702
0.76,-0.0166,-0.485,0.011255222754044858,1.1532848343898705,0.02892703901335722,0.026349729749038986
0.761,-0.001,1.515,0.011141435561620549,1.1633457129185478,0.028483587315495988,0.027125527462488745
0.762,0.0087,0.515,0.011137055240553112,1.190243918824313,0.028466516318548556,0.029199657130003668
0.763,0.0068,-0.485,0.01113197697934756,1.2076151106889996,0.02844672530775195,0.030539155553536736
0.764,0.0147,1.515,0.011091217216840879,1.2069302325728102,0.028287876271204788,0.030486344372582998
0.765,0.0285,0.515,0.011089568119038919,1.2069302325728106,0.02828144940360539,0.030486344372583032
0.766,0.0338,1.515,0.011062026513478474,1.2048732624221596,0.028174114197529996,0.030327730715240798
0.767,0.0189,-0.485,0.011061522662558481,1.2028127745835502,0.028172150588610754,0.030168845807801766
0.768,0.0051,0.515,0.011043710382077984,1.2104151772987763,0.0281027325297452,0.030755069627757984
0.769,0.0177,0.515,0.011034259754661888,1.200748750947897,0.028065901523687032,0.030009688253868294
0.77,-0.0004,1.515,0.010970472868387511,1.200059954184285,0.02781731112948718,0.02995657490469917
0.771,-0.0026,1.515,0.010882242476197429,1.2000599541842845,0.027473459449996268,0.029956574904699135
0.772,-0.0005,-1.485,0.010833811922627353,1.2007487509478956,0.027284715789559304,0.03000968825386819
0.773,0.0013,-0.485,0.010818205314088563,1.1846734706952282,0.027223893680260968,0.028770118008830853
0.774,-0.0078,-0.485,0.010551954064726626,1.1846734706952258,0.02618625872265566,0.028770118008830666
0.775,-0.0125,-0.485,0.01049265237869956,1.1754988570402467,0.025955148060774896,0.028062660476664888
0.776,0.0074,0.515,0.010380454052003326,1.1576458411953023,0.02551788849394157,0.02668600844461704
0.777,-0.0061,0.515,0.010363296960245814,1.1676691449931653,0.025451023838015636,0.027458908757987257
0.778,-0.0039,-0.485,0.010347021040963092,1.1683770373621751,0.025387593289406426,0.027513494575685082
0.779,-0.0104,0.515,0.010283518803367916,1.1754988570402451,0.025140112228668417,0.028062660476664766
0.78,-0.0006,-0.485,0.009788886875930448,1.1453713578163358,0.023212431587594284,0.025739518919667845
0.781,0.0012,1.515,0.009698486984115672,1.1432036299398267,0.02286012492936998,0.025572364696984057
0.782,0.0026,1.515,0.009696129292989243,1.1504812910148965,0.0228509365303,0.026133547580288758
0.783,0.004,-1.485,0.00979455303406898,1.1584271801495105,0.02323451375161774,0.026746257753101993
0.784,-0.0163,-0.485,0.009784799643845694,1.1677359294700551,0.023196502817678086,0.0274640585313711
0.785,0.0044,0.515,0.009714677956445974,1.1677359294700551,0.022923224422528428,0.0274640585313711
0.786,0.0018,-0.485,0.009749809410153078,1.2132087814164665,0.02306013880157958,0.03097048537704969
0.787,-0.0148,-1.485,0.009860222525550065,1.2152516427079898,0.023490441038990985,0.031128011095538526
0.788,-0.017,-1.485,0.009857988947133144,1.2410253396432973,0.02348173633224687,0.03311542949966346
0.789,-0.0072,-1.485,0.009858911645980349,1.2410253396432973,0.02348533227623397,0.03311542949966346
0.79,-0.0127,-0.485,0.009859132836662532,1.2497189935753188,0.023486194301049555,0.03378580006648437
0.791,0.012,-0.485,0.009889249870360032,1.2563798089632825,0.02360356647135408,0.03429941777223085
0.792,0.0229,0.515,0.009912589245293401,1.2563798089632825,0.02369452473493992,0.03429941777223085
0.793,0.0131,2.515,0.010025669118954557,1.2942885635894033,0.024135219868553746,0.0372225745397879
0.794,0.0103,-0.485,0.01004636278709691,1.331118156778739,0.024215867277784863,0.04006251680746657
0.795,-0.0031,-2.485,0.010029986749950108,1.331118156778739,0.024152046549614437,0.04006251680746657
0.796,0.0136,-1.485,0.010013000662866285,1.3317391698723045,0.024085848333480837,0.04011040333513284
0.797,-0.0067,0.515,0.010084727282685555,1.3386095574535644,0.024365381474803927,0.04064018122290501
0.798,0.0013,0.515,0.009972335607846362,1.4089928567034824,0.02392736839116043,0.046067461004436705
0.799,0.0035,0.515,0.009978122412840927,1.4289693949518818,0.02394992074037793,0.04760785856033358
0.8,-0.0212,-0.485,0.009912486299314053,1.4365260878157742,0.02369412353364162,0.048190557678341975
0.801,-0.0048,1.515,0.00974606204915208,1.4365260878157742,0.023045534578002336,0.048190557678341975
0.802,-0.0077,-1.485,0.009521486921084225,1.4371015518193,0.02217031989243622,0.04823493190041765
0.803,-0.0051,-0.485,0.009512627230983487,1.4515214567851167,0.022135791888589825,0.04934685560258307
0.804,0.0116,0.515,0.00951554699762882,1.4440432369709157,0.022147170809614636,0.048770207567722594
0.805,0.0051,-1.485,0.009516777625842673,1.4520909781324771,0.022151966816610174,0.049390771584451224
0.806,-0.0047,0.515,0.009519461661299524,1.4440432369709157,0.02216242704552611,0.048770207567722594
0.807,0.0008,-1.485,0.009512010464796555,1.4833407775838294,0.02213338822604265,0.0518004540879244
0.808,0.0023,0.515,0.009512471504724208,1.5023290331717305,0.022135184991867906,0.05326464483682414
0.809,-0.0053,-0.485,0.00946424193561917,1.5232530526616384,0.021947224608532396,0.054878102988632556
0.81,0.0012,1.515,0.009497230067510456,1.5828015890317524,0.02207578602906478,0.05946991057517022
0.811,0.0099,2.515,0.00937895338924766,1.6472793377482078,0.021614837897069056,0.0644418113768779
0.812,-0.0046,2.515,0.009464159102081591,1.6472793377482078,0.021946901789486627,0.0644418113768779
0.8130000000000001,-0.0027,-0.485,0.00948241817682176,1.6663842759413172,0.022018061095928684,0.06591499956055055
0.8140000000000001,-0.0009,-0.485000000000111,0.009637354916628212,1.6857631989407376,0.02262188090081541,0.06740931480441482
0.8150000000000001,0.0037999999999995117,-1.485,0.009531273269452951,1.6842911135265386,0.02220845927093314,0.06729580180501989
0.8160000000000001,-0.0006000000000003885,-1.485,0.00933397709689319,1.7005515420903972,0.021439556191077756,0.06854964889835251
0.8170000000000001,-0.004099999999999323,-1.484999999999889,0.008771798799572388,1.7273121318902653,0.01924863368797199,0.0706131669418443
0.8180000000000001,0.001999999999999889,-0.485,0.008605580228479764,1.7824119961195015,0.01860084630525646,0.07486193592942231
0.8190000000000001,0.0010000000000000776,-0.485,0.008860002543002073,1.7870884660190756,0.019592381511854967,0.07522254008986069
0.8200000000000001,0.0016999999999990783,-0.48499999999988896,0.008695537325383643,1.7866257347615548,0.018951427302175142,0.07518685872759168
0.8210000000000001,-0.0065999999999988785,0.514999999999778,0.00871831181358179,1.7805554882805867,0.019040184087927695,0.07471877998808714
0.8220000000000001,0.0035000000000004,-1.485,0.008714611777889346,1.7744644762800894,0.019025764300647566,0.07424910001241586
0.8230000000000001,0.0070999999999996006,-1.484999999999778,0.008728184822112657,1.7692873839052035,0.01907866119860009,0.07384989268521212
0.8240000000000001,0.0035000000000003553,0.515000000000111,0.008727222991695939,1.769754648563542,0.019074912750973772,0.07388592361953676
0.8250000000000001,0.00669999999999879,1.515,0.008694026512014858,1.7697546485635418,0.018945539356974413,0.07388592361953675
0.8260000000000001,-0.004199999999999511,1.5149999999998889,0.008617833314749562,1.776327350080654,0.018648599060154567,0.07439274683518626
0.8270000000000001,0.00020000000000011103,0.514999999999778,0.008594282524596982,1.7763273500806542,0.018556816868709056,0.07439274683518628
0.8280000000000001,0.0011999999999998778,-1.4850000000001111,0.008581136314668671,1.7763273500806542,0.018505583430314596,0.07439274683518628
0.8290000000000001,9.999999999987788e-05,-2.484999999999889,0.008601586110380597,1.7828758210197515,0.018585280419370732,0.07489770162284852
0.8300000000000001,-0.001000000000000122,-1.485,0.008545404830800633,1.7889381941372373,0.01836633061239378,0.07536517324465758
0.8310000000000001,-0.002100000000001443,-1.485,0.008545222105179589,1.7894003274027717,0.018365618493699505,0.07540080849556423
0.8320000000000001,-0.015099999999999801,-1.484999999999667,0.008586636593301139,1.7833395252847954,0.018527019128360314,0.07493345801405359
0.8330000000000001,-0.013299999999998357,1.515,0.008636299978321278,1.7772580547508718,0.018720567382249843,0.07446451378406592
0.8340000000000001,0.001499999999998912,1.515,0.008672872756281272,1.7725556498200972,0.01886309889336564,0.07410190976468417
0.8350000000000001,-0.008299999999997346,3.515,0.008519484331129527,1.7730220531553729,0.018265313183774043,0.07413787428209892
0.8360000000000001,0.015599999999997468,1.515,0.008543832199738227,1.772555649820097,0.018360201751140816,0.07410190976468416
0.837,-0.0072,2.515,0.008617779247995453,1.772555649820097,0.01864838835108093,0.07410190976468416
0.838,0.0014,1.515,0.00849517473347453,1.7739544919494374,0.018170573766052644,0.07420977494984927
0.839,-0.0012,1.515,0.008421235262735756,1.77535223189823,0.017882416697234192,0.07431755514550314
0.84,-0.008,-1.485,0.008422094993183074,1.7767488722676785,0.01788576724063405,0.07442525055222547
0.841,0.0075,-1.485,0.008326239672120823,1.7832957953286273,0.017512199671486376,0.07493008598248518
0.842,-0.0185,-3.485,0.008267933471323832,1.7884323370959871,0.01728496861684494,0.07532616643875929
0.843,-0.0076,-3.485,0.007944289303928027,1.7930931057360968,0.016023661852201606,0.07568555986982091
0.844,0.0021,-0.485,0.007835696669891812,1.7748864408856924,0.015600454398773876,0.07428163784449984
0.845,0.005,0.515,0.007767631494297852,1.781440208531337,0.01533519064597989,0.0747870010629782
0.846,0.013,-1.485,0.007766495790228834,1.765456472163635,0.015330764577571447,0.07355448979757509
0.847,0.0061,-4.485,0.007788053828430223,1.7654564721636348,0.015414780611707474,0.07355448979757508
0.848,-0.0051,-2.485,0.007788919254837727,1.7649880696022624,0.015418153353415965,0.07351837111916633
0.849,-0.0033,1.515,0.007791485733865226,1.7649880696022624,0.015428155441155557,0.07351837111916633
0.85,-0.0051,0.515,0.007784646728405621,1.7697105829219724,0.015401502453959643,0.07388252570315461
0.851,0.0028,0.515,0.007494248099716043,1.7701777358706594,0.014269760276256921,0.0739185480235106
0.852,0.0104,2.515,0.0074794522760522775,1.7635821154797076,0.014212097959565904,0.07340995752582215
0.853,0.0094,0.515,0.007439816619833194,1.7649880696022624,0.014057629792527785,0.07351837111916633
0.854,-0.0019,1.515,0.007547933177497215,1.7701777358706594,0.014478981880065354,0.0739185480235106
0.855,0.0025,-0.485,0.0074683539678309175,1.7697105829219721,0.014168845608230993,0.0738825257031546
0.856,-0.0066,-3.485,0.007468910599672777,1.7649880696022624,0.014171014915075615,0.07351837111916633
0.857,0.0021,-2.485,0.007483245238474663,1.7649880696022624,0.01422687990110339,0.07351837111916633
0.858,0.0054,2.515,0.007500786807426768,1.7663929046610103,0.014295242942402043,0.07362669842112551
0.859,0.0079,4.515,0.007523572620904056,1.771111672115699,0.014384043865057497,0.07399056416020725
0.86,0.0072,4.515,0.00750881676731857,1.776283447493198,0.014326537319843916,0.07438936149196143
0.861,0.0127,1.515,0.00751379528913878,1.7748864408856924,0.014345939626087474,0.07428163784449984
0.862,0.0105,2.515,0.007490042331268141,1.7564910675097212,0.014253369546164218,0.07286316444156042
0.863,0.0185,2.515,0.007533705164679056,1.7379009932798242,0.014423532437057076,0.07142967759055563
0.864,0.0036,-1.485,0.007534140541314205,1.7431713034515146,0.01442522918784205,0.07183607297329622
0.865,-0.021,-2.485,0.007581306530491409,1.7498438592369163,0.014609044585131587,0.07235059598502183
0.866,-0.0112,-3.485,0.007574395140119497,1.7450675832876612,0.014582109499295413,0.07198229574666042
0.867,-0.0083,-4.485,0.007607279986253676,1.7464884420000837,0.014710268394346868,0.0720918586379219
0.868,-0.0217,-1.485,0.007671130070837078,1.7412281720975082,0.014959105085136367,0.07168623746369596
0.869,-0.005,-0.485,0.007691234512959994,1.741228172097508,0.015037456161421953,0.07168623746369594
0.87,0.0063,0.515,0.00779652248880422,1.7417029645069149,0.015447784693638379,0.07172284886542704
0.871,0.0005,0.515,0.007799640728387128,1.7417029645069153,0.015459937103834264,0.07172284886542707
0.872,-0.0049,-0.485,0.0078493431631822,1.741228172097509,0.015653637542592986,0.07168623746369601
0.873,-0.0002,0.515,0.008011352864283948,1.7364281977203453,0.016285022107875673,0.07131610983162028
0.874,-0.0017,-0.485,0.007981533587934764,1.7311373588206336,0.016168810358167245,0.07090813147178543
0.875,0.0049,1.515,0.007983298314645252,1.7359519626338122,0.01617568785500458,0.07127938718457272
0.876,-0.0038,0.515,0.007959331734428605,1.7359519626338122,0.01608228524560221,0.07127938718457272
0.877,0.0038,0.515,0.007948705898819056,1.7479081457097039,0.016040874215574527,0.07220133246653042
0.8780000000000001,-0.007099999999997669,1.515,0.008008980957388955,1.7659247504836189,0.01627577830708102,0.07359059889568875
0.879,0.0034,1.515,0.008052103070517815,1.7790741697397598,0.016443833901695303,0.07460455501920508
0.8800000000000001,-0.00019999999999806823,0.515,0.008070117946491241,1.76306898332638,0.01651404151616377,0.07337038973359461
0.881,0.0085,0.515,0.008069614212359027,1.7739105306360206,0.01651207836239012,0.07420638507824592
0.8820000000000001,0.009599999999999843,0.515,0.008068282914795152,1.7687318168584842,0.016506890026581136,0.0738070527241407
0.883,0.0089,0.515,0.007950044325037443,1.768731816858487,0.016046090333191636,0.07380705272414091
0.8840000000000001,-0.0012999999999979794,0.515,0.00785000620200648,1.767328840982652,0.015656221538964725,0.07369886878439892
0.885,0.0078,-0.485,0.007851610290518991,1.7659247504836222,0.01566247299626178,0.073590598895689
0.8860000000000001,0.011399999999996803,-0.485,0.007814649573808329,1.7460149509021285,0.015518429609389275,0.07205534758075274
0.887,-0.003,1.515,0.007773362070522629,1.739327706397351,0.015357523860311466,0.07153969191695576
0.8880000000000001,-0.01279999999999878,1.515,0.007740803170490185,1.7258754860003318,0.015230635243128246,0.07050238669603669
0.889,-0.0073,1.515,0.007792721586780188,1.7191099018517075,0.0154329718098678,0.06998069023606117
0.8900000000000001,0.0006999999999983124,1.515,0.008034311602024908,1.71231758622993,0.016374496951353793,0.06945693250323652
0.891,-0.0069,-1.485,0.007994712044025248,1.706952016132393,0.016220169466376215,0.06904319159570459
0.8920000000000001,-0.00039999999999975575,-1.485,0.007967097942230378,1.7069520161323941,0.016112551727815755,0.06904319159570467
0.893,0.0007,-0.485,0.007812420071241807,1.6897747940612047,0.01550974078705835,0.06771865024792244
0.8940000000000001,-0.0003000000000005551,1.515,0.0077812077515126985,1.660917274633771,0.015388100065610127,0.06549343725843827
0.895,-0.0028,-0.485,0.007786261229770557,1.6614150181225107,0.015407794492248193,0.06553181842558467
0.8960000000000001,-0.014799999999998224,-1.485,0.007788937093262931,1.6679189224027544,0.015418222873366106,0.06603333666325417
0.897,-0.0068,-0.485,0.0077132887296153035,1.6629073546777817,0.015123405903325482,0.06564689299725122
0.8980000000000001,-0.0023999999999997556,0.515,0.00773822487436069,1.6037068146347835,0.015220587101752631,0.06108191952406617
0.899,-0.0013,-1.485,0.0077626970311854985,1.586454082255294,0.015315960045429984,0.05975155555111715
0.9000000000000001,0.0022999999999992896,0.515,0.007777305657768433,1.599528125532845,0.015372892817243756,0.06075969940767565
0.901,-0.0009,-0.485,0.007770881245518385,1.5990111178801936,0.015347855583620654,0.060719832774397076
0.9019999999999999,-0.0001,1.515,0.007768888693031378,1.618685853906418,0.015340090203663429,0.06223695825984702
0.903,0.0137,-1.485,0.007699238442631611,1.5990111178801898,0.015068649093832176,0.060719832774396784
0.9039999999999999,0.0039,-0.485,0.007702962444730646,1.5984939430095773,0.015083162283045053,0.06067995324688522
0.905,-0.0052,0.515,0.007700969523683027,1.598493943009573,0.015075395466732592,0.060679953246884896
0.9059999999999999,-0.0066,0.515,0.007882590097530544,1.6161298052155317,0.01578320756863314,0.06203986048909037
0.907,-0.0052,1.515,0.007876446971042098,1.5859328125233678,0.01575926656250198,0.05971136026747804
0.9079999999999999,-0.0063,-1.485,0.007883824144055276,1.5684845850810012,0.015788016897477386,0.058365921604745366
0.909,0.0024,-1.485,0.007866471404419166,1.548172004366578,0.01572038976220647,0.05679961170172889
0.9099999999999999,-0.003,-1.485,0.007928820938243061,1.4872375557744535,0.0159633785032588,0.052100935959511464
0.911,0.0079,-0.485,0.007961707087997191,1.4555570044408415,0.016091542478780814,0.04965803803410781
0.9119999999999999,0.0093,-0.485,0.007889921529309908,1.4480996249949964,0.015811779640771007,0.04908299700703218
0.913,0.0028,-1.485,0.007880902664394137,1.4260733450206393,0.01577663130048359,0.04738454318004247
0.9139999999999999,-0.0085,1.515,0.0076688634606218,1.4031123182339733,0.014950271646794673,0.045614010713242475
0.915,0.002,0.515,0.007667509957556355,1.4048790643248819,0.014944996771655878,0.04575024509612129
0.9159999999999999,-0.0071,1.515,0.007381938825732055,1.4078187140783038,0.013832068325408491,0.04597692247330535
0.917,-0.0107,-0.485,0.00731436235578204,1.3748534023814405,0.013568709157330444,0.043434956245933805
0.9179999999999999,0.0059,-0.485,0.007267342959863424,1.3026267904140503,0.013385465063612345,0.03786553800330136
0.919,0.0128,0.515,0.0069775132843076125,1.2962036466684947,0.012255940211320301,0.037370247237514115
0.9199999999999999,-0.0028,-0.485,0.007123902400646221,1.3032613799121637,0.012826448199132227,0.03791447141207003
0.921,0.011,-0.485,0.007096742842968169,1.3026267904140503,0.012720601910908675,0.03786553800330136
0.9219999999999999,0.0164,0.515,0.00710776980161184,1.3026267904140505,0.012763576198511688,0.037865538003301384
0.923,-0.0017,-0.485,0.007301060336321624,1.3026267904140503,0.013516868497683021,0.03786553800330136
0.9239999999999999,-0.0039,-1.485,0.007301361904048105,1.3090184172012695,0.013518043768093325,0.03835839848587404
0.925,0.0026,1.515,0.007322488058354401,1.3096499096469498,0.013600376663358648,0.03840709307989216
0.9259999999999999,0.0008,2.515,0.0073455327799045065,1.30072116431846,0.013690186603127846,0.03771859453674074
0.927,0.0098,2.515,0.0073579333412585966,1.3071221093584473,0.013738514098250476,0.03821217355290571
0.9279999999999999,0.0084,2.515,0.0074228414071772116,1.3064893950995276,0.013991473956238405,0.03816338474445942
0.929,-0.0054,-0.485,0.007414785771781127,1.3192042534963804,0.013960079516164485,0.03914383173455073
0.9299999999999999,0.0004,-2.485,0.007407006850335696,1.3103406136996016,0.01392976348631077,0.03846035350075803
0.931,-0.0015,-0.485,0.007408689534249167,1.3103406136996016,0.0139363212457782,0.03846035350075803
0.9319999999999999,-0.0062,-1.485,0.007359686181820331,1.3869416717999483,0.013745345272362609,0.04436708675001573
0.933,0.0043,-1.485,0.007512801059196569,1.4312820158073936,0.01434206491095878,0.04778618552916322
0.9339999999999999,-0.0022,-1.485,0.007625071707682926,1.438826562876785,0.014779606330432455,0.04836794808088915
0.935,-0.0033,-2.485,0.007680376062129052,1.438251789073692,0.014995138582839225,0.048323627080400056
0.9359999999999999,-0.0134,-0.485,0.007653864405837585,1.4463317556169366,0.014891817297331763,0.048946676007104846
0.937,-0.0011,-1.485,0.0075946005332449785,1.446903319704574,0.014660854002051367,0.04899074950536001
0.938,-0.0091,-0.485,0.0075904179043201825,1.4821729167355644,0.014644553451359267,0.051710399946715065
0.9390000000000001,-0.0196,-0.485,0.007538347611650338,1.4748501231780344,0.014441624991656445,0.051145736882569785
0.94,0.0006,-0.485000000000111,0.0075030201351713975,1.4669272467665089,0.01430394667222555,0.050534801228542495
0.9410000000000001,0.0035,-1.4850000000001111,0.00751079899549356,1.4652353188165814,0.014334262463869525,0.05040433609757664
0.942,-0.0099,-2.484999999999889,0.007479150556875208,1.523795764434686,0.014210922098922028,0.054919951675245014
0.9430000000000001,-0.003,-1.484999999999778,0.00756082869167899,1.5551997277445735,0.014529238306442212,0.05734152180549028
0.944,0.0035,0.515000000000111,0.007790498806667378,1.561086968721041,0.01542430918629834,0.05779548892924121
0.9450000000000001,0.0054,1.5149999999998889,0.007886796467471015,1.5536039345271866,0.015799600642864012,0.05721846965595298
0.946,0.0072,0.514999999999889,0.007909524036054369,1.554136047662656,0.01588817457339007,0.05725950107807155
0.9470000000000001,0.0087,-0.48499999999988896,0.007780346675575535,1.5487563375743763,0.01538474427856426,0.05684466983111694
0.948,-0.008,0.5150000000002221,0.007828462527591772,1.548756337574376,0.015572261483409905,0.05684466983111692
0.9490000000000001,-0.0058,2.514999999999667,0.007874248184691852,1.5487563375743763,0.01575069744747703,0.05684466983111694
0.95,-0.004,-0.4849999999996669,0.00790522635161598,1.5503571204645836,0.01587142562809605,0.05696810673599682
0.9510000000000001,-0.0022,2.514999999999778,0.007951922779796006,1.5503571204645836,0.01605341105122934,0.05696810673599682
0.952,-0.0008,0.514999999999889,0.007962559825786052,1.5562626808187243,0.01609486577037668,0.0574234864730966
0.9530000000000001,0.0097,-0.48499999999977794,0.008058379986908977,1.5487563375743743,0.016468296314131093,0.05684466983111679
0.954,0.0007,1.5149999999995558,0.00796272000569153,1.5428220449691967,0.016095490023858412,0.05638707454051508
0.9550000000000001,0.017,-2.484999999999889,0.008038575919306594,1.543357875448556,0.01639111585809095,0.05642839260826619
0.956,0.0058,-1.484999999999778,0.008025983054443847,1.5503571204645787,0.016342038917309266,0.05696810673599644
0.9570000000000001,0.004,0.515,0.008016482885371087,1.5503571204645787,0.016305014837397228,0.05696810673599644
0.958,-0.0014,0.515000000000111,0.008028593338114719,1.5487563375743694,0.016352211720601847,0.056844669831116405
0.9590000000000001,-0.0127,1.5149999999994448,0.008024252247168741,1.5428220449691923,0.01633529361137049,0.05638707454051474
0.96,0.0102,-3.485,0.008020783323216893,1.5374027452086885,0.01632177451327672,0.055969190520673534
0.9610000000000001,0.0069,0.515,0.008016784578870822,1.5314244578957716,0.016306190597971334,0.0555082027834211
0.962,0.0098,0.515,0.008086294368849925,1.5314244578957712,0.016577084305140665,0.055508202783421064
0.9630000000000001,-0.0036,-0.485,0.008178999478207896,1.5319642748796407,0.016938374862270365,0.055549828251870326
0.964,0.0033,1.515,0.008175756916077416,1.5319642748796367,0.016925737941967247,0.05554982825187002
0.9650000000000001,-0.0033,2.515,0.008206832517544371,1.5248806085203341,0.017046845844701966,0.055003604366080754
0.966,-0.0051,1.515,0.008234261580631392,1.531964274879639,0.017153742450001137,0.05554982825187019
0.9670000000000001,0.0004,-0.485,0.00821776475931807,1.54549933962252,0.017089451001509933,0.05659352162804915
0.968,-0.0076,0.515,0.008177178623521027,1.5530214252565626,0.016931278623359403,0.0571735521709714
0.9690000000000001,0.0152,-1.485,0.00818401503973345,1.5530214252565624,0.016957921519735474,0.057173552170971385
0.97,-0.0011,-0.485,0.008099157471037904,1.5530214252565608,0.016627214415423648,0.05717355217097126
0.9710000000000001,-0.004,0.515,0.008099577179144665,1.558916892601967,0.01662885010278515,0.05762815363278666
0.972,-0.0174,-0.485,0.008097964497650982,1.5647901484779378,0.016622565156902875,0.0580810423607537
0.9730000000000001,-0.0007,-1.485,0.00793221289872647,1.571693951772976,0.015976597659153224,0.05861339694540861
0.974,0.0058,0.515,0.007935387129638814,1.5722199424081553,0.01598896827888197,0.058653956259478945
0.9750000000000001,0.0076,-0.485,0.007957668582767327,1.573796859542026,0.01607580360727121,0.05877555286789336
0.976,0.0057,-1.485,0.007970963960383022,1.5669023217285103,0.016127618382306707,0.05824391274762231
0.9770000000000001,0.0105,-0.485,0.007993176390975812,1.551956252209968,0.01621418471591714,0.057091416320546304
0.978,-0.0062,-2.485,0.007946135315845365,1.5492901156474457,0.01603085613392677,0.05688582963713154
0.9790000000000001,0.0003,-0.485,0.007902032697152492,1.5281815515979882,0.015858979310860843,0.05525814119251916
0.98,-0.0016,0.515,0.007900693596081074,1.5281815515979882,0.015853760563205012,0.05525814119251916
0.9810000000000001,0.0002,4.515,0.007900615213188588,1.509518530252851,0.015853455089223138,0.05381902936502302
0.982,-0.0179,3.515,0.007910418414162358,1.5155832289619005,0.015891660145729694,0.05428668031397656
0.9830000000000001,-0.0158,1.515,0.007936113597423496,1.5172190124398723,0.015991799470738408,0.054412816125903145
0.984,-0.0093,-0.485,0.007932086452625057,1.5325039017156235,0.01597610487312727,0.055591439057952344
0.9850000000000001,0.0045,1.515,0.007931559370275652,1.5325039017156237,0.015974050726629965,0.055591439057952365
0.986,0.0063,0.515,0.0079504551117354,1.514440232089748,0.01604769125201903,0.05419854344229398
0.9870000000000001,0.0016,3.515,0.007841498519492947,1.5149861008729408,0.01562306537986536,0.054240635567016235
0.988,0.0092,0.515,0.007849896723862122,1.5094668675961358,0.01565579488049851,0.053815045640258206
0.9890000000000001,0.0001,-0.485,0.008059292795955618,1.5094668675961358,0.016471853715565577,0.053815045640258206
0.99,-0.0035,-1.485,0.007826274035450123,1.5094668675961358,0.015563732486997451,0.053815045640258206
0.9910000000000001,-0.0002,-4.485,0.007916138167207537,1.5094668675961354,0.015913951179941817,0.05381504564025817
0.992,-0.0111,-3.485,0.008315763511936776,1.5111092720809194,0.01747137195685784,0.05394169200023789
0.9930000000000001,-0.0188,-1.485,0.008502855060635809,1.5000219695836186,0.018200505554044198,0.05308674639074522
0.994,-0.0123,-0.485,0.008547356074941658,1.5016747041326777,0.01837393500537373,0.05321418930544146
0.9950000000000001,0.0066,0.515,0.008647606585124359,1.5016747041326775,0.018764631515277914,0.053214189305441445
0.996,0.004,0.515,0.00913034032487983,1.493894098823499,0.020645942513014878,0.05261422422377285
0.9970000000000001,0.011,-0.485,0.009487916555224574,1.5011239948005035,0.022039489388395193,0.0531717239243658
0.998,0.0088,0.515,0.009888516314393999,1.5011239948005037,0.02360070765542161,0.053171723924365824
0.9990000000000001,0.0071,1.515,0.01010509269682045,1.5066737899205411,0.02444474961179152,0.05359967048509283
1.0,0.0089,0.515,0.010090452462840075,1.4911241504881332,0.02438769365955857,0.05240063257978017
1.0010000000000001,0.0042,-1.484999999999778,0.010326432129777938,1.491124150488134,0.025307354139220486,0.05240063257978024
1.002,-0.0124,-0.485,0.010398423671309354,1.4770909121996603,0.025587919734025806,0.051318524874626896
1.0030000000000001,-0.005900000000001288,-0.48499999999977794,0.010404738452962737,1.484402651630942,0.02561252971504523,0.05188233555139437
1.004,-0.0117,0.515,0.010601068324517682,1.526455341381975,0.026377666924488473,0.05512503254453186
1.0050000000000001,-0.0025999999999982456,1.5149999999997779,0.010652799570220013,1.6176157103274444,0.026579274049599984,0.062154439130005214
1.006,0.0053,0.515,0.010737874308357494,1.6005129159418265,0.026910827507141008,0.06083563692598853
1.0070000000000001,0.006799999999999755,-1.484999999999778,0.010751281293926048,1.6304398963360538,0.026963077240937116,0.06314331640886066
1.008,0.0057,-0.485,0.010761159522103755,1.664848214853154,0.027001574693628714,0.06579655337550623
1.0090000000000001,-0.0005000000000002443,0.514999999999778,0.01077277224147355,1.664351498101764,0.027046831809228494,0.0657582513804208
1.01,-0.0016,-0.485,0.01075950215361741,1.6643514981017693,0.026995115593499843,0.0657582513804212
1.0110000000000001,0.013200000000000489,-0.48499999999977794,0.010722662180362188,1.6365617176154212,0.026851542768288803,0.06361537209834582
1.012,0.0154,0.515,0.010722022428535804,1.655790323107558,0.026849049526056743,0.06509809630887144
1.0130000000000001,0.00159999999999718,-1.484999999999556,0.010688799731638523,1.655790323107558,0.02671957395826445,0.06509809630887144
1.014,-0.0111,0.515,0.010700688693879086,1.6935927111207165,0.02676590764819087,0.06801305111127323
1.0150000000000001,0.006999999999999512,1.515000000000222,0.010706291475370229,1.6871877790853844,0.02678774282060402,0.06751916465656171
1.016,0.0048,2.515,0.010734076302700755,1.6733164449172442,0.026896025911099453,0.06644954143236048
1.0170000000000001,0.006899999999996958,1.5149999999995558,0.010724445617571824,1.671833399903245,0.02685849318372478,0.06633518333455381
1.018,-0.0068,-0.485,0.010728874790031075,1.6723278943730477,0.02687575456442438,0.06637331396876164
1.0190000000000001,-0.005099999999998224,0.5149999999995559,0.010730448396337364,1.6723278943730477,0.026881887226399965,0.06637331396876164
1.02,0.0029,-1.485,0.01069205052841203,1.6723278943730475,0.026732242970636578,0.06637331396876163
1.0210000000000001,-0.010899999999998002,-1.484999999999334,0.010786830536742974,1.6723278943730473,0.027101619828630658,0.0663733139687616
1.022,-0.0019,1.515,0.010818717922171763,1.6773113151010153,0.027225891417616017,0.0667575872103971
1.0230000000000001,0.002800000000000955,0.5150000000002221,0.010678719157391861,1.6773113151010153,0.026680287922025602,0.0667575872103971
1.024,0.0071,1.515,0.01076589694097188,1.6787895209240309,0.027020037372914415,0.06687157215656604
1.0250000000000001,-0.005299999999997491,0.515,0.011411771824032567,1.6852263719840384,0.02953714239499066,0.06736791989796224
1.026,0.006,-1.485,0.01141873081512699,1.685716937714227,0.029564262990467837,0.06740574758574241
1.0270000000000001,0.0045999999999991785,-2.485,0.011409248476602487,1.6871877790853842,0.02952730839980788,0.0675191646565617
1.028,0.0009,-0.485,0.011381733473405728,1.6871877790853842,0.029420076868523052,0.0675191646565617
1.0290000000000001,-0.005199999999998801,-0.485,0.011368561605252524,1.7043910738527484,0.029368743434837818,0.06884571647867956
1.03,0.0002,-0.485,0.011427449370318562,1.7043910738527484,0.02959824096303422,0.06884571647867956
1.031,0.0042,-1.485,0.011462445349938915,1.7043910738527484,0.029734627372175002,0.06884571647867956
1.032,-0.0089,1.515,0.011464714191671636,1.6426607244237434,0.02974346950719141,0.06408566855632651
1.033,-0.0035,2.515,0.011324270512950768,1.6109087239915376,0.029196132092006704,0.06163726116699691
1.034,-0.002,-1.485,0.011214944314432469,1.6041736962579511,0.028770065789457733,0.06111792092242047
1.035,-0.0064,0.515,0.011230304905983634,1.6098818523418887,0.028829929120808034,0.06155807875012017
1.036,-0.0027,0.515,0.01122550147184336,1.6026266689305582,0.028811209166657782,0.06099862912699577
1.037,-0.0038,0.515,0.011208407568025627,1.6026266689305582,0.02874459076691044,0.06099862912699577
1.038,-0.0204,-0.485,0.011368681104200546,1.5626252151116944,0.02936920914640222,0.05791410362369257
1.039,-0.0037,-0.485,0.011378854596339272,1.5626252151116944,0.029408857302455432,0.05791410362369257
1.04,0.0119,-0.485,0.011626938791009709,1.5684845850810019,0.030375691574355775,0.05836592160474542
1.041,0.0257,1.515,0.011745237476115254,1.5806613250062698,0.03083672547146771,0.05930487409923868
1.042,0.0203,1.515,0.011791976845611203,1.524287122614705,0.031018878245592352,0.05495784046909707
1.043,0.0092,1.515,0.011912063792569974,1.5050265450931966,0.03148688136075192,0.05347265088467689
1.044,-0.0136,0.515,0.012696679633521234,1.4994706532531596,0.03454468795062891,0.0530442342038285
1.045,-0.0298,-0.485,0.013374270138241936,1.4994706532531596,0.03718539516355114,0.0530442342038285
1.046,-0.0268,1.515,0.01336388635312813,1.4994706532531596,0.03714492745325056,0.0530442342038285
1.047,-0.0292,-0.485,0.013759689260346975,1.4994706532531594,0.03868745141825095,0.053044234203828484
1.048,-0.0223,-1.485,0.01523438900151123,1.5673801664874387,0.04443465450958144,0.05828075951704747
1.049,-0.002,-1.485,0.016424447118803864,1.5742726115779113,0.04907255163511254,0.05881223826674366
1.05,0.0223,-0.485,0.017154201602653837,1.5874469833132963,0.05191655242281438,0.059828118484292855
1.051,0.0124,1.515,0.017425701309783454,1.594252675737642,0.05297464168163446,0.06035290770684438
1.052,0.0037,1.515,0.017657231041966988,1.589008789349175,0.0538769598657345,0.059948549870879345
1.053,0.0225,3.515,0.0177292665413039,1.589008789349175,0.05415769677299658,0.059948549870879345
1.054,0.0105,5.515,0.01776218456020954,1.5895290503463846,0.054285984949046295,0.059988667370646565
1.055,0.0217,0.515,0.017728864227176518,1.6093197135520876,0.05415612887348996,0.06151473203973836
1.056,0.0079,-3.485,0.017740432858851348,1.6093197135520896,0.05420121417042746,0.061514732039738514
1.057,0.0061,-3.485,0.017734840776718053,1.616033294735454,0.05417942069557537,0.062032418533643364
1.058,-0.0052,-0.485,0.01772203921212932,1.6108603130705739,0.05412953040976021,0.06163352818466514
1.059,0.0115,1.515,0.0177356403956262,1.611373518924763,0.05418253697215188,0.06167310165999079
1.06,0.005,1.515,0.018020002428787565,1.611373518924764,0.055290753316417175,0.06167310165999086
1.061,0.0068,2.515,0.018244705614901584,1.611886561380212,0.0561664670700839,0.06171266253558485
1.062,0.005,0.515,0.01830412308324676,1.6123994405928923,0.056398028959070756,0.06175221082347434
1.063,-0.0062,3.515,0.018303283928587842,1.6123994405928923,0.056394758603678936,0.06175221082347434
1.064,-0.0048,0.515,0.018412720294874542,1.6067002288200594,0.05682125425229846,0.061312742694600006
1.065,-0.0084,-1.485,0.018380067481238837,1.6134247099126062,0.056693999634813,0.06183126968415306
1.066,-0.0023,-1.485,0.01837520208924659,1.6118865613802142,0.05667503821838507,0.06171266253558502
1.067,0.0031,0.515,0.018391882806292136,1.5916083937199157,0.05674004634573043,0.060149006234699466
1.068,0.0078,0.515,0.018379035829972388,1.5900491411152247,0.056689979081216764,0.060028771744047194
1.069,0.0122,-1.485,0.018367677153581865,1.5958078211035052,0.05664571202247741,0.06047282548693482
1.07,0.0143,-0.485,0.018360692892217347,1.595807821103507,0.05661849294364775,0.06047282548693496
1.071,0.0092,-1.485,0.01836038684042444,1.5905690618226598,0.05661730019792387,0.06006886300395592
1.072,0.0012,-0.485,0.0183319795313084,1.5847913457908525,0.05650659117003782,0.05962334138537542
1.073,-0.0137,1.515,0.01833210640668323,1.6134730438909872,0.056507085629029084,0.061834996733416504
1.074,-0.0383,1.515,0.01833391169574578,1.6134730438909863,0.05651412120555454,0.061834996733416435
1.075,-0.0086,0.515,0.018320291898656173,1.611934941480085,0.05646104210222814,0.061716393141291986
1.076,0.0033,1.515,0.01838163164125151,1.611934941480085,0.05670009548267222,0.061716393141291986
1.077,0.0069,-0.485,0.01837185081396405,1.6067487650832948,0.05666197762094542,0.06131648534211633
1.078,-0.0029,-3.485,0.018451067821409897,1.5947712260267426,0.05697070231748553,0.060392893293336275
1.079,-0.0116,-0.485,0.018451109384086287,1.594771226026742,0.05697086429563984,0.06039289329333622
1.08,-0.0091,0.515,0.01845901119107379,1.595289607760605,0.057001659235299776,0.060432865882477295
1.081,-0.0023,0.515,0.01845977323548252,1.6010294386309118,0.05700462907645411,0.06087546616356407
1.082,-0.0001,1.515,0.018458273040625698,1.6155215691619225,0.05699878251374167,0.061992959203255066
1.083,0.0017,0.515,0.01850030563178144,1.6088058525382285,0.057162592020913755,0.0614751080448311
1.084,-0.011,-1.485,0.018573236700336122,1.595807821103503,0.057446819142511124,0.060472825486934646
1.085,-0.0031,-0.485,0.01861425304887906,1.595807821103499,0.05760666814672601,0.06047282548693434
1.086,0.0012,0.515,0.018610801396105863,1.595807821103499,0.057593216357907866,0.06047282548693434
1.087,-0.0191,-0.485,0.0186880880125363,1.6025780078240297,0.05789441793031528,0.060994876852771295
1.088,-0.0104,0.515,0.01868492059494736,1.6025780078240297,0.05788207386348557,0.060994876852771295
1.089,-0.0239,-1.485,0.0186082237866089,1.6082918273420082,0.057583170892478074,0.06143547138976697
1.09,-0.017,-2.485,0.01862926609397095,1.625821411890864,0.05766517701924692,0.0627871835262333
1.091,-0.0105,-1.485,0.018591944197237927,1.6263298966165973,0.057519726040792814,0.06282639295376227
1.092,-0.0202,-2.485,0.018436844300082012,1.626329896616597,0.05691527037872308,0.06282639295376226
1.093,-0.0478,0.515,0.018326949383251877,1.6196589960120626,0.056486987665911974,0.062311997573587755
1.094,-0.0438,-0.485,0.018312951216954646,1.612447805304255,0.05643243398127317,0.061755940242568294
1.095,-0.004,0.515,0.018268475520728203,1.6119349414800714,0.05625910319961867,0.061716393141290946
1.096,0.033,0.515,0.018091244707426936,1.6119349414800714,0.05556839888222325,0.061716393141290946
1.097,0.0663,4.515,0.01794718036724399,1.6046890406032142,0.05500695101718447,0.06115765929750916
1.098,0.062,1.515,0.017708389705950664,1.6119349414800703,0.05407633552410628,0.06171639314129086
1.099,0.05,2.515,0.017574345507785204,1.6062340815804228,0.05355393817868921,0.06127679792480578
1.1,0.0319,1.515,0.017751430005426828,1.6005129159418399,0.05424407227437241,0.060835636925989554
1.101,0.0288,0.515,0.01802640139743766,1.6181267736380658,0.0553156913911863,0.062193847393078656
1.102,0.0202,-0.485,0.01802094673059097,1.6109087239915372,0.05529443345149294,0.06163726116699687
1.103,0.0123,0.515,0.018069974210203517,1.6036581863039732,0.05548550345342223,0.0610781697771883
1.104,-0.0043,2.515,0.0181802924328632,1.5636831205315103,0.055915435874648034,0.057995679064982306
1.105,0.0069,1.515,0.018174265347100853,1.4612265005255962,0.05589194710269115,0.050095214776320535
1.106,-0.0029,1.515,0.018186481618726547,1.4669272467665146,0.05593955638347688,0.05053480122854294
1.107,-0.001,0.515,0.01817920920781562,1.4277570606971532,0.055911214327597956,0.047514375059854536
1.108,-0.009,0.515,0.018250262657660516,1.387481495889283,0.05618812398940876,0.04440871276636979
1.109,-0.0319,0.515,0.018249704809280815,1.3880772927691416,0.05618594994147018,0.04445465486335042
1.11,-0.0286,0.515,0.01821457394698538,1.3862891339482066,0.05604903786726989,0.044316769337686614
1.111,-0.0198,0.515,0.018207729604965552,1.3784570699288106,0.05602236408241968,0.04371283625763596
1.112,0.0153,0.515,0.0181958720488766,1.3546892211272228,0.05597615278861674,0.04188008947500329
