time_sec,bts_raw,diy_raw,bts_rms,diy_rms,bts_norm_rms,diy_norm_rms
0.0,-0.0247,1.495,0.025675329766885684,1.1762658252874776,0.07627492883344729,0.04496903887131396
0.001,-0.0458,-0.505,0.02568606142082495,1.1314380149178558,0.07631631846593703,0.040746208585754444
0.002,-0.0254,0.495,0.025781166946541246,1.112381469411856,0.07668311959271748,0.038951060510545026
0.003,-0.0141,0.495,0.025810131506371327,1.1027297082402787,0.07679482953914125,0.03804185372466232
0.004,-0.0363,-0.505,0.0258138405038101,1.1027297082402787,0.07680913432773814,0.03804185372466232
0.005,0.0084,-1.505,0.025814714511417668,1.1024168664385066,0.07681250518314173,0.03801238367416867
0.006,0.0401,-2.505,0.025840209308251386,1.1027297082402787,0.07691083301567526,0.03804185372466232
0.007,0.0227,-0.505,0.025840499310410762,1.1027297082402787,0.07691195149031727,0.03804185372466232
0.008,-0.0035,0.495,0.02589554631597993,1.1030424613147423,0.07712425570205036,0.038071315416943446
0.009000000000000001,-0.017299999999999982,1.495,0.02610974407753367,1.1039801889282563,0.0779503694288819,0.038159650415537
0.01,-0.0073,-1.505,0.026109753706389932,1.1049171207058257,0.07795040656526592,0.038247910445487164
0.011,-0.0027,3.495,0.026114396786576562,1.1052292547957854,0.07796831390588951,0.03827731382873004
0.012,0.0015,1.495,0.026167585499222025,1.1052292547957854,0.07817345108991135,0.03827731382873004
0.013000000000000001,-0.03070000000000001,1.495,0.0262475732272491,1.1052292547957854,0.07848194619098948,0.03827731382873004
0.014,-0.0345,0.495,0.026356848698579367,1.104917120705826,0.07890339768617362,0.038247910445487185
0.015,-0.0933,0.495,0.02649555516950573,1.1311331131098865,0.07943835808352528,0.040717486491630324
0.016,-0.1347,1.494999999999778,0.0265534448220431,1.1396368972379178,0.07966162576034752,0.041518552545529
0.017,-0.0173,-0.505,0.026658328469409246,1.1222575994724489,0.08006613895498048,0.0398814030987759
0.018000000000000002,-0.00040000000000005174,-0.504999999999889,0.02681912721279315,1.1222575994724489,0.08068630439556737,0.0398814030987759
0.019,-0.0153,0.494999999999889,0.027186203479256738,1.1222575994724489,0.08210203694253683,0.0398814030987759
0.02,0.0261,-0.505000000000111,0.02718636058250039,1.1222575994724489,0.08210264285524653,0.0398814030987759
0.021,0.0138,-1.5049999999998889,0.027190732475425635,1.1489786689061108,0.08211950428615776,0.042398557970642514
0.022,0.0476,-0.505000000000111,0.027190735313593464,1.121950202792472,0.0821195152323478,0.03985244598489539
0.023,0.0988,-1.5049999999998889,0.027293616566970696,1.1314380149178558,0.08251630563310668,0.040746208585754444
0.024,0.0513,-0.505,0.027491481551726118,1.1314380149178558,0.0832794274266309,0.040746208585754444
0.025,0.0428,-0.505,0.028050551897293073,1.1570532647834622,0.0854356389733208,0.04315919400736583
0.026000000000000002,0.08119999999999977,-0.505,0.029067762245987974,1.1567551147578619,0.08935879590099534,0.04313110793875431
0.027,0.0175,-0.504999999999889,0.029077632711750432,1.1659597418323084,0.0893968641198107,0.04399819418848991
0.028,0.0093,0.494999999999889,0.03034769693563293,1.1579472542516143,0.09429522291542171,0.04324340882334627
0.029,0.0017,-0.504999999999889,0.03333286628267304,1.149878936098945,0.10580836552073229,0.0424833641553669
0.03,-0.0333,0.494999999999889,0.03374184615654092,1.14175360377764,0.10738571107910458,0.041717948688411714
0.031,-0.0013,-0.504999999999889,0.033790228096296226,1.1323522277471967,0.1075723095956935,0.040832328465163145
0.032,0.016,0.495,0.03379917365837943,1.1228721403743385,0.10760681066413395,0.03993929354470259
0.033,-0.0104,0.495,0.03402601278761066,1.1228721403743385,0.10848167936995566,0.03993929354470259
0.034,-0.0055,0.494999999999889,0.034164445443764985,1.113311330928442,0.10901558372386341,0.03903865451393799
0.035,-0.001,-0.504999999999889,0.03437761268631504,1.1046048984144754,0.10983772296520766,0.038218498753573825
0.036000000000000004,-0.012799999999999973,0.495,0.034518218872775897,1.1046048984144754,0.11038001014818366,0.038218498753573825
0.037,-0.0089,0.495,0.0351225865048936,1.1046048984144754,0.11271092338146615,0.038218498753573825
0.038,-0.0186,0.495,0.03598208700017155,1.1046048984144725,0.11602582803881227,0.038218498753573554
0.039,-0.0272,1.495,0.03599468982281143,1.104292587846922,0.11607443435805719,0.03818907874594262
0.04,-0.0191,-0.505,0.03625568007121931,1.1033551257373433,0.11708101643069392,0.03810076875811916
0.041,-0.021,0.495,0.0366457238702294,1.1117611296657568,0.11858532970684789,0.038892623806954914
0.042,-0.0006,0.495,0.03753508814076437,1.1201040511401088,0.12201541238704482,0.039678536417485026
0.043000000000000003,-0.003000000000000081,0.495,0.037729216308654556,1.1201040511401088,0.12276412209855365,0.039678536417485026
0.044,-0.0147,1.495,0.03800287256416116,1.1286909334945814,0.1238195541790173,0.0404874304180177
0.045,-0.008,0.495,0.038004748218211815,1.1381225537735637,0.12382678816478257,0.04137589968358268
0.046,-0.0176,1.495,0.03807115032651712,1.1471760150193342,0.12408288651410075,0.04222874594179936
0.047,-0.0192,0.495,0.03932413063001318,1.1468752972350766,0.12891535638054202,0.04220041798742687
0.048,-0.0044,-0.505,0.03989714509452481,1.138425583617849,0.1311253473317654,0.041404445436616893
0.049,0.0052,1.495,0.039948632681168016,1.1299126831146,0.13132392364637693,0.04060252060989292
0.05,-0.0075,1.495,0.0400104038891915,1.1384255836178432,0.13156216163028958,0.04140444543661635
0.051000000000000004,-0.02219999999999993,1.495,0.040045027049083554,1.1302179141611657,0.13169569555448016,0.04063127371866407
0.052000000000000005,-0.012299999999999886,0.495,0.039848545665579486,1.1809458435425293,0.13093791000713292,0.0454099018682226
0.053,0.0043,-0.505,0.03992150378013449,1.1812378877296352,0.13121929343280664,0.04543741275996289
0.054,-0.0022,0.495,0.03999135967793952,1.1893834896198854,0.13148871228974646,0.046204737643169076
0.055,0.0114,-0.505,0.03983388117472633,1.1980496431316903,0.13088135228634765,0.0470210990761102
0.056,-0.0013,-1.505,0.0399085030382894,1.2396381211721266,0.13116915242657334,0.050938780603524116
0.057,0.0168,-0.505,0.0397547248571841,1.2146287282161452,0.13057606375292538,0.04858286758597585
0.058,0.0333,-1.505,0.03995308998188107,1.214344714395536,0.13134111447636956,0.04855611316381476
0.059000000000000004,-0.0003000000000000326,-1.505,0.03995771212405019,1.2146287282161452,0.13135894106365778,0.04858286758597585
0.06,-0.005,-0.505,0.0400177785250567,1.2069393818511183,0.13159060398129474,0.04785852248772861
0.061,0.0166,0.495,0.040013382705052634,1.1980496431316903,0.13157365026889503,0.0470210990761102
0.062,0.0204,0.495,0.04006590572943187,1.1477772142235418,0.13177622003946432,0.04228537958476004
0.063,0.0239,0.495,0.04011660714026569,1.148678423046911,0.13197176424662932,0.042370274472142616
0.064,0.027,2.495,0.040094487884600294,1.1405445382047679,0.1318864551350871,0.0416040533480805
0.065,-0.0176,1.495,0.040214733552780886,1.140544538204768,0.13235021627038307,0.04160405334808052
0.066,-0.0237,1.495,0.0391245437353026,1.140544538204768,0.12814559355846547,0.04160405334808052
0.067,-0.0294,1.495,0.03683544918847498,1.1405445382047708,0.11931705859417721,0.04160405334808077
0.068,-0.0446,0.495,0.03685403725303017,1.1486784230469138,0.1193887486770842,0.04237027447214289
0.069,-0.001,0.495,0.03685561374373272,1.156755114757811,0.11939482885551438,0.04313110793874952
0.07,0.0048,-3.505,0.03682449349842876,1.1567551147578115,0.11927480490362304,0.04313110793874956
0.07100000000000001,-0.0001999999999996697,-0.505,0.03673258872915379,1.156456887865156,0.11892034839152596,0.04310301462917477
0.07200000000000001,0.023599999999999215,-1.505,0.03670666812805396,1.14747665399483,0.11882037832544794,0.04225706647229762
0.073,-0.033,1.495,0.036396544735542796,1.147176015019306,0.11762430050602238,0.0422287459417967
0.074,-0.0558,2.495,0.03502799702673512,1.1378194432247979,0.11234611253678817,0.04134734632809538
0.075,-0.0763,0.495,0.0347153548460575,1.1378194432247979,0.11114032030454991,0.04134734632809538
0.076,0.0075,-1.505,0.03453463023782031,1.1375162519071078,0.11044330517909756,0.04131878536408434
0.077,0.0868,-0.505,0.03360380103814543,1.137212979755859,0.10685330137322636,0.04129021678546092
0.078,0.1378,-0.505,0.03357446704167736,1.1369096267063652,0.106740166590821,0.041261640586131604
0.079,0.0523,-0.504999999999778,0.03383668131835003,1.1462736249922165,0.107751469471669,0.042143739783691715
0.08,0.018,0.495,0.033903667979432756,1.1552632104331864,0.10800982231267742,0.04299056886906854
0.081,0.0077,0.49499999999977795,0.03378468180929213,1.1552632104331868,0.10755091878472613,0.04299056886906858
0.082,-0.0393,-0.505,0.03378456054285583,1.1549645983114807,0.10755045108671235,0.04296243927048282
0.083,-0.0308,0.495,0.0337471283445837,1.1552632104331872,0.10740608331837634,0.04299056886906862
0.084,-0.0383,0.495,0.03375420550660657,1.1552632104331872,0.10743337837809916,0.04299056886906862
0.085,-0.0312,-0.505,0.03374996052965033,1.2072251378640084,0.10741700643420864,0.04788544102636709
0.08600000000000001,0.06480000000000018,-0.505,0.03375123548761908,1.2069393818511271,0.1074219236671035,0.04785852248772944
0.08700000000000001,0.07809999999999878,1.494999999999778,0.03374083265218114,1.2069393818511271,0.1073818022153623,0.04785852248772944
0.088,-0.0096,0.495,0.033738253392724814,1.2069393818511271,0.10737185457806452,0.04785852248772944
0.089,-0.0435,1.495,0.03368758312240253,1.2069393818511271,0.10717643047301383,0.04785852248772944
0.09,-0.0534,1.495,0.03357990430578188,1.1992007319537334,0.10676113692440699,0.04712953294113759
0.091,-0.0813,1.494999999999778,0.03352612784874507,1.2069393818511271,0.10655373293934094,0.04785852248772944
0.092,-0.0383,0.495,0.0334760812183469,1.2309845439354599,0.10636071407652141,0.050123603869882266
0.093,-0.0456,1.494999999999334,0.033494518231940405,1.2309845439354596,0.1064318215890411,0.050123603869882245
0.094,0.0037,-1.505,0.03350214736646702,1.2309845439354596,0.10646124548549345,0.050123603869882245
0.095,0.0224,-1.5049999999995558,0.033520884833728636,1.2704106514638493,0.1065335117818291,0.053837587656728865
0.096,0.0984,0.495,0.0337604756370087,1.3160067010733716,0.10745756089409116,0.058132786944969025
0.097,0.0673,0.495,0.03419047621878485,1.3160067010733716,0.10911597870655598,0.058132786944969025
0.098,0.0202,0.495,0.03415776887042338,1.3233230048791655,0.10898983364671186,0.05882199101348623
0.099,-0.0223,1.494999999999556,0.03465367781899678,1.323062324010033,0.11090244555592778,0.05879743458166495
0.1,-0.0298,-0.505,0.03621365648587409,1.323844212623832,0.11691894069072102,0.05887108937075814
0.101,-0.0229,3.494999999999112,0.03622298233263368,1.3246256397112344,0.11695490843364485,0.05894470068354437
0.10200000000000001,0.034899999999999896,-0.505,0.036948053034436046,1.339381657091362,0.1197513468993756,0.060334734159934546
0.10300000000000001,0.027399999999999515,1.495,0.03852632775199442,1.339381657091362,0.12583840588369177,0.060334734159934546
0.10400000000000001,-0.007500000000000255,-1.505,0.04033246752050818,1.339381657091362,0.13280429032861946,0.060334734159934546
0.105,-0.0259,-3.505,0.04068027355056596,1.3844503138297095,0.13414570180566432,0.06458025244501124
0.106,-0.0198,-0.505,0.04135131713784096,1.391902487062501,0.13673376955543426,0.06528225556676072
0.107,-0.0459,0.495,0.04334274546522421,1.427855825195935,0.14441427128112425,0.06866910056063785
0.108,0.0069,-0.505,0.04403305170041812,1.469980218788249,0.14707663083369132,0.07263726593734779
0.109,0.0278,-0.505,0.04490502168027185,1.469980218788249,0.15043962755465115,0.07263726593734779
0.11,-0.0042,0.495,0.04561867057509566,1.4626900285342617,0.15319201461918255,0.07195052179485695
0.111,0.0206,0.495,0.04581800724346874,1.4624541898965469,0.153960812373227,0.07192830552924782
0.112,-0.0203,-1.505,0.046179411694901536,1.4823604600402616,0.15535466997519706,0.07380349862349658
0.113,0.0275,-0.505,0.046720933980237474,1.4823604600402613,0.15744320250726535,0.07380349862349656
0.114,0.0463,0.495,0.04706194498346812,1.4888595203924313,0.1587584070580783,0.07441571743714222
0.115,-0.0065,0.495,0.047541965572765306,1.4690413185197924,0.16060974105477213,0.07254882047333634
0.116,-0.0272,1.495,0.04750965699958759,1.4697455499511316,0.16048513398323766,0.07261515986827403
0.117,-0.0209,1.495,0.047535057085583476,1.483058366880265,0.16058309653686892,0.0738692422347987
0.11800000000000001,-0.0034999999999999307,1.495,0.047486976191357416,1.483058366880265,0.1603976590867744,0.0738692422347987
0.11900000000000001,0.0014999999999999363,0.495,0.04727868805446356,1.4895543822049482,0.15959433748445684,0.07448117420342147
0.12,-0.0031,0.495,0.04756396758553275,1.4897859307878967,0.16069459798620442,0.07450298634103406
0.121,0.0014,-0.505,0.04756509779002405,1.455363320796003,0.1606989569367257,0.07126033766416989
0.122,-0.0025,0.495,0.047653881000871444,1.4624541898965469,0.16104137428348592,0.07192830552924782
0.123,0.0012,0.495,0.04759910048589881,1.455363320796003,0.16083009786746028,0.07126033766416989
0.124,-0.0215,-0.505,0.047765449450286435,1.448952076355032,0.16147166929158716,0.07065639120838217
0.125,-0.0243,0.495,0.047808183612599614,1.4288217893272563,0.1616364855708773,0.06876009547104892
0.126,-0.0163,0.495,0.04725798879151737,1.4362838959312785,0.15951450497299127,0.06946303432756938
0.127,0.0105,0.495,0.04734880993076524,1.4290631783388505,0.15986478216204733,0.0687828345881362
0.128,0.043,-1.505,0.04655711073947806,1.4288217893272566,0.1568113722445041,0.06876009547104893
0.129,0.0213,-1.505,0.0444970526460042,1.4360437206728551,0.14886618058262877,0.06944040954739944
0.13,0.0172,0.495,0.04419483478615742,1.436043720672856,0.1477005926665738,0.06944040954739952
0.131,-0.0009,0.495,0.04417504902938711,1.4427514358531568,0.14762428334781558,0.0700722838811385
0.132,0.0023,-0.505,0.04423458451536146,1.4429904946616738,0.14785389864276652,0.07009480349046833
0.133,-0.0125,0.495,0.04410764735087488,1.4427514358531575,0.14736432987572257,0.07007228388113855
0.134,0.0008,-3.505,0.044013093095434,1.4429904946616738,0.1469996548773312,0.07009480349046833
0.135,0.003,0.495,0.04388804686390817,1.4432295138721134,0.1465173790234534,0.0701173193696146
0.136,0.0095,0.495,0.043781030699725186,1.4429904946616738,0.1461046411797751,0.07009480349046833
0.137,0.0077,0.495,0.04340763906312227,1.4427514358531575,0.14466455163708222,0.07007228388113855
0.138,-0.0013,0.495,0.042776210432953335,1.4360437206728591,0.14222927007712013,0.06944040954739983
0.139,0.0033,-0.505,0.04280149596251025,1.4360437206728591,0.14232679081172375,0.06944040954739983
0.14,-0.0011,1.495,0.0426433900757981,1.4360437206728591,0.1417170111279477,0.06944040954739983
0.14100000000000001,-0.010200000000000028,2.495,0.04248279881412112,1.4367641260021538,0.14109764589873985,0.06950827254176292
0.14200000000000002,-0.011199999999999906,0.495,0.041920463731025474,1.4302695123024638,0.13892884297636335,0.06889647260779502
0.14300000000000002,-0.007800000000000296,0.495,0.04224460467391423,1.4302695123024638,0.14017898340923304,0.06889647260779502
0.14400000000000002,-0.018500000000000624,3.495,0.04209739219374763,1.4235029820304355,0.13961121720222705,0.06825905782609423
0.145,-0.041,3.495,0.042164767907929494,1.4570214239027404,0.13987107053559977,0.07141653284653497
0.146,-0.0569,1.495,0.04215146564081696,1.4496660669465895,0.13981976661262724,0.07072364992721704
0.147,-0.012,1.495,0.041178538819004414,1.4563110394516685,0.1360674015231337,0.0713496138302002
0.148,0.0585,0.495,0.040745359982556115,1.4563110394516685,0.13439672588036766,0.0713496138302002
0.149,0.1052,-1.505,0.04129294405578692,1.4563110394516685,0.13650863739713107,0.0713496138302002
0.15,0.011,-1.505,0.041614657378120604,1.4499039856776728,0.13774941503064406,0.07074606213996702
0.151,-0.0762,2.495,0.04190303319643931,1.456311039451673,0.1388616172323444,0.07134961383020062
0.152,-0.1099,0.495,0.04205285585264138,1.4154862386258837,0.1394394503151044,0.06750387155754427
0.153,-0.1195,-0.505,0.04200311279421117,1.4370041808548928,0.13924760226269856,0.06953088597958162
0.154,-0.0532,-3.505,0.04424608437866043,1.4305106570206425,0.14789825109005192,0.06891918871216708
0.155,0.075,-1.505,0.04527107593239737,1.4305106570206423,0.15185141841676095,0.06891918871216707
0.156,0.1298,-3.505,0.04527719594040314,1.3946257619140847,0.1518750219436382,0.06553879112859944
0.157,0.0794,-3.505,0.04525801363781242,1.4377241049231866,0.15180104001512748,0.06959870363861577
0.158,0.0941,-1.505,0.04510145119417046,1.437963999516251,0.15119721305232114,0.06962130197979241
0.159,0.0803,0.495,0.045455810587832025,1.4377241049231844,0.1525638994136166,0.06959870363861556
0.16,0.0429,0.495,0.045379032088283325,1.4589140913475203,0.1522677816020082,0.07159482425404315
0.161,-0.0601,2.495,0.04550679060647808,1.478868013677073,0.15276051814992897,0.07347450623793142
0.162,-0.0739,0.495,0.04565270565599983,1.4985562644832469,0.15332328045186355,0.07532916166474082
0.163,-0.0615,1.495,0.045896882862007216,1.4914057642931369,0.15426501831223544,0.07465557648378454
0.164,-0.0727,0.495,0.04603078157070223,1.4976352792691572,0.15478143622648247,0.07524240381905212
0.165,-0.0001,-1.505,0.0460766233211242,1.5365031219066307,0.1549582377906579,0.0789037984236637
0.166,0.0282,2.495,0.04676196414632236,1.574411717927061,0.15760144684731367,0.08247483091528401
0.167,0.02,1.495,0.04812522017774746,1.5682672347446487,0.16285922597897648,0.08189601367085789
0.168,-0.003,1.495,0.04828770963257411,1.5818411954693827,0.16348591212230476,0.08317469607739914
0.169,-0.0521,-0.505,0.049549835061170326,1.5824952302508832,0.1683536527279173,0.08323630689131926
0.17,0.0058,-1.505,0.04974968655537068,1.6019864980234946,0.16912443605211783,0.08507240629424505
0.171,0.029,-1.505,0.050858760554451925,1.694254972551379,0.173401890905366,0.09376420063856056
0.17200000000000001,-0.006299999999998393,-0.505,0.05160196059853327,1.7122732363937314,0.1762682502629233,0.0954615414102671
0.17300000000000001,0.05160000000000021,-0.505,0.05160277252680917,1.7124746707901566,0.17627138169197776,0.09548051675755183
0.17400000000000002,0.059199999999999024,-0.505,0.05161503889092945,1.7124746707901566,0.17631869036460146,0.09548051675755183
0.17500000000000002,0.024000000000000174,-1.505,0.051631720222296285,1.717902725430826,0.17638302659633426,0.09599184562548653
0.176,0.0302,-0.505,0.0517111891147764,1.7179027254308257,0.17668952066264806,0.0959918456254865
0.177,-0.0107,0.495,0.051751710872438385,1.7235138270449275,0.17684580418305967,0.096520417724726
0.178,0.0158,-1.505,0.05174310765215211,1.7237139478587062,0.17681262345174906,0.09653926933104422
0.179,-0.008,-0.505,0.051670110199829165,1.7354767748576203,0.17653108830894326,0.09764734089834237
0.18,-0.0124,1.495,0.05169396875206076,1.7293061938289063,0.17662310550537838,0.09706606520736616
0.181,-0.0243,-0.505,0.05229811947020732,1.729306193828906,0.17895318214911013,0.09706606520736615
0.182,-0.0205,0.495,0.05303532138770503,1.729306193828906,0.18179640804966923,0.09706606520736615
0.183,-0.0106,-0.505,0.05366686847679564,1.7459754654439548,0.18423214647967773,0.09863632939010987
0.184,-0.0191,-0.505,0.05365581285908721,1.7459754654439548,0.18418950739007525,0.09863632939010987
0.185,-0.0056,0.495,0.05707823681681556,1.7104592593282821,0.1973890450043239,0.09529066272522473
0.186,0.0308,0.495,0.057079754731779064,1.7104592593282824,0.19739489926899229,0.09529066272522474
0.187,0.0258,0.495,0.057105795695705834,1.716094698958732,0.19749533354806123,0.09582152749304824
0.188,-0.0176,0.495,0.05775083342314544,1.716094698958732,0.1999831024075335,0.09582152749304824
0.189,-0.0232,1.495,0.05960270819900016,1.7162956848462494,0.20712537673201475,0.09584046059028811
0.19,-0.0385,-1.505,0.05963163432070046,1.721711692986566,0.2072369384310133,0.0963506546643057
0.191,-0.0431,-0.505,0.06023961764000009,1.7223126138565699,0.20958179657572365,0.09640726208787055
0.192,-0.0648,0.495,0.0602804139929203,1.7052098005537735,0.209739139149743,0.09479615778927065
0.193,-0.0289,0.495,0.06079582676179149,1.710862531554492,0.21172697301065804,0.09532865142367158
0.194,-0.0242,3.495,0.061117276073735134,1.7164966472001775,0.21296673241407538,0.09585939147063734
0.195,-0.0199,0.495,0.06159021444529162,1.6817937822254647,0.214790751852253,0.09259034245837044
0.196,0.0398,1.495,0.061792450018139294,1.6465690917913565,0.21557073004423416,0.0892721368994076
0.197,0.0314,0.495,0.061590160842926525,1.640694863791012,0.21479054511970233,0.08871877799787745
0.198,-0.0701,0.495,0.06158285422545127,1.640694863791012,0.21476236510068983,0.08871877799787745
0.199,-0.0563,-0.505,0.06132840102257432,1.6465690917913565,0.21378099497708025,0.0892721368994076
0.2,0.0573,1.495,0.0604784754950094,1.6400640383800333,0.21050301886746647,0.08865935353283183
0.201,0.0421,-0.505,0.06049762632386438,1.6335330807584627,0.21057687940869035,0.08804412996044063
0.202,0.0283,-2.505,0.06001837445504207,1.6154906530176594,0.20872851019805116,0.08634451292225233
0.203,0.1417,-0.505,0.05902871035666304,1.6157041536169356,0.2049115931084758,0.08636462491945172
0.20400000000000001,0.09599999999999809,-1.505,0.057808392599596664,1.6154906530176594,0.2002050955106666,0.08634451292225233
0.20500000000000002,0.02679999999999966,-1.505,0.05762811814678546,1.5831489948357516,0.19950981653583466,0.08329789225241196
0.20600000000000002,0.01460000000000032,-3.5049999999993338,0.05722892281634128,1.6133540930965768,0.19797020781268637,0.08614324656845838
0.20700000000000002,0.02610000000000086,-0.505,0.055765851914161134,1.5750688377428759,0.19232746464463718,0.08253673234291532
0.20800000000000002,0.05699999999999817,0.49499999999933386,0.05539699941414944,1.5358295014570824,0.19090488155494725,0.07884034261772828
0.209,-0.009,-2.505,0.05471911116561325,1.5290789369807942,0.18829041544983335,0.07820443183198957
0.21,-0.0344,2.495,0.05412829864569213,1.5293045012507842,0.18601178130748586,0.07822568024057344
0.211,-0.042,2.495,0.05413999147880084,1.5293045012507842,0.18605687799694978,0.07822568024057344
0.212,-0.0515,0.49500000000022204,0.05405235478079214,1.5100172123525941,0.18571888249842536,0.0764087958776288
0.213,-0.0447,1.495,0.053858231038254295,1.5100172123525941,0.18497018985452865,0.0764087958776288
0.214,-0.0508,3.495,0.053761076917244056,1.5038389892725512,0.18459548774558682,0.07582680029680008
0.215,-0.0801,3.495,0.05327012609852902,1.510245623608522,0.18270199825439104,0.07643031247549835
0.216,-0.117,0.49499999999933386,0.053320727486261474,1.5031507308229286,0.18289715669441992,0.07576196557475155
0.217,-0.0448,-2.505,0.053328334880060495,1.490017443388197,0.18292649674166034,0.07452479508904061
0.218,0.1111,-1.505000000000222,0.053327023095815496,1.5227515416330761,0.18292143747790532,0.0776083840553362
0.219,0.0445,-2.505,0.05432371215095412,1.5800957792055284,0.18676544828296773,0.08301027589717754
0.22,0.1056,-5.504999999999334,0.05427638143247771,1.6411134516922201,0.1865829040959952,0.0887582094501794
0.221,0.0872,-2.505,0.054570908190682894,1.652420622364286,0.18771882912204385,0.08982335767768122
0.222,0.0037,-0.504999999999778,0.05450189243287191,1.6461482470261235,0.18745265050055984,0.08923249284796964
0.223,-0.0114,0.495,0.05578404113607223,1.6646872905270735,0.1923976164790548,0.09097889165075769
0.224,-0.0252,1.494999999999778,0.05644741130903519,1.6646872905270735,0.19495608955496416,0.09097889165075769
0.225,-0.0376,0.495,0.056364928007567205,1.6830221327414439,0.19463796957517163,0.09270605446208845
0.226,-0.0262,1.494999999999556,0.05639723815069217,1.676864227440601,0.19476258270164787,0.09212597283897109
0.227,0.0047,-0.505,0.056532378349576994,1.6830221327414439,0.19528378877091618,0.09270605446208845
0.228,0.0331,-2.5049999999993338,0.05652240679700458,1.7013621264681844,0.19524533068247424,0.09443370255169342
0.229,-0.0266,0.495,0.05815331661473347,1.7013621264681844,0.201535391689074,0.09443370255169342
0.23,-0.0812,0.495,0.058727108843169507,1.7368657609219909,0.20374838230495085,0.09777818495185472
0.231,-0.0882,0.495,0.059080347885221915,1.7491318188099787,0.20511074771612767,0.0989336614363569
0.232,-0.0822,2.495,0.059039692316833085,1.7550361767214655,0.20495394811712847,0.09948985860949178
0.233,0.0059,0.495,0.05929736361689039,1.7726312554177428,0.20594772973484374,0.10114733486324594
0.234,0.1946,0.495,0.061070624964326144,1.7888968616443763,0.2127868093300285,0.10267957331121974
0.23500000000000001,0.005099999999999309,0.495,0.06119632743165111,1.8050158989655232,0.2132716161412691,0.10419800480302266
0.23600000000000002,-0.019800000000001854,1.495,0.06124704225661058,1.8050158989655232,0.2134672120837709,0.10419800480302266
0.23700000000000002,-0.08650000000000169,0.495,0.06128661789292608,1.8109285241481798,0.21361984662192465,0.10475498076242407
0.23800000000000002,-0.14749999999999538,-0.505,0.06123316281586629,1.8445112002055946,0.21341368212885245,0.10791850671553391
0.23900000000000002,0.018800000000001846,1.495,0.06126661942762028,1.844698194749341,0.21354271693305749,0.10793612181241365
0.24,0.0853,-1.505,0.06125702284139018,1.8452590646828595,0.2135057050074524,0.1079889563925993
0.241,0.0243,0.495,0.061306397196806674,1.8396443008817402,0.21369613105330434,0.10746003931121322
0.242,0.0797,1.495,0.06195977907461808,1.8394567925719463,0.2162160814683209,0.10744237581699248
0.243,0.063,1.495,0.062305623372528006,1.839456792571946,0.217549926975283,0.10744237581699245
0.244,0.0783,0.495,0.06224395772719925,1.839456792571946,0.21731209612350152,0.10744237581699245
0.245,0.0645,-0.505,0.06291966701231569,1.8130225045147799,0.21991815844522264,0.10495223607417219
0.246,0.027,0.495,0.0638188174527534,1.8300601596559136,0.22338598423361605,0.10655720240046981
0.247,-0.0073,1.495,0.06372670094063806,1.830625514419214,0.22303071107588404,0.10661045945667813
0.248,-0.0175,1.495,0.06366415018121593,1.830625514419214,0.22278946653342233,0.10661045945667813
0.249,-0.0271,0.495,0.06332423089857703,1.830625514419214,0.22147847250918146,0.10661045945667813
0.25,-0.0189,0.495,0.06309178948690507,1.830625514419214,0.2205819970302903,0.10661045945667813
0.251,0.0043,0.495,0.06287438280522084,1.8253437035446793,0.2197435072032191,0.10611290691642071
0.252,-0.0168,-0.505,0.06275322958107818,1.8253437035446793,0.21927624582388375,0.10611290691642071
0.253,0.002,0.495,0.06273094282826021,1.808261609941278,0.21919029071260773,0.10450375443686778
0.254,-0.0273,1.495,0.06117767625813853,1.808261609941278,0.21319968266097272,0.10450375443686778
0.255,-0.0325,3.495,0.06046434025796952,1.802340235896717,0.2104485023624108,0.1039459543248096
0.256,-0.0184,-0.505,0.06040991027114911,1.8017660058535487,0.21023857785648958,0.10389186120722979
0.257,0.047,-0.505,0.06040548435226816,1.7673712942500561,0.2102215080593317,0.10065184059001178
0.258,0.0374,-0.505,0.060348762180352455,1.767176117344144,0.21000274309887945,0.10063345470538945
0.259,-0.0055,-0.505,0.06014665129720547,1.7671761173441458,0.20922324580769103,0.10063345470538962
0.26,-0.0445,0.495,0.06014968340413238,1.749526176891545,0.20923493997823406,0.09897081041232657
0.261,-0.0516,0.495,0.060063308332113395,1.7326920002366073,0.20890181029408914,0.09738501198887504
0.262,-0.058,0.495,0.060080537373477814,1.7213109625258098,0.20896825892300128,0.09631290540303075
0.263,-0.0523,-0.505,0.060136777235272866,1.7213109625258094,0.20918516371923718,0.09631290540303071
0.264,-0.0045,1.495,0.06082092369331709,1.7213109625258094,0.21182376636407246,0.09631290540303071
0.265,-0.0233,0.495,0.060751798723251475,1.6924216832003536,0.2115571665349062,0.09359150271444
0.266,0.0296,1.495,0.0602225359702856,1.657214753690511,0.20951591632690134,0.09027497025457058
0.267,-0.0198,3.495,0.06024695996482379,1.663652747391924,0.20961011431013749,0.09088143652085494
0.268,-0.1037,4.495,0.06093165779310291,1.651378394516866,0.2122508434688836,0.08972517863921715
0.269,-0.0469,4.495,0.06001583268409703,1.6507516517618002,0.20871870714570864,0.08966613876496221
0.27,-0.057,2.495,0.06009700623465705,1.6320543164181522,0.2090317757038806,0.08790482869209895
0.271,-0.0097,-0.505,0.05928075290334229,1.542997681018613,0.20588366586052959,0.07951559321540799
0.272,0.119,-2.505,0.05864020124231955,1.5229780430372686,0.20341319877405234,0.07762972074301866
0.273,0.1005,-0.505,0.059147279967844364,1.5229780430372695,0.20536889006000064,0.07762972074301874
0.274,-0.0509,-2.505,0.059815506983097226,1.5299809945318994,0.2079460949100221,0.07828940667048193
0.275,-0.0308,-0.505,0.05985473178836065,1.5299809945319016,0.20809737636985323,0.07828940667048213
0.276,-0.0495,-1.505,0.06066276169487169,1.5362786145752443,0.21121377026966384,0.07888264957988811
0.277,0.0003,-2.505,0.06060666364884602,1.5362786145752485,0.2109974124257066,0.07888264957988851
0.278,0.1376,-1.505,0.061349871209486644,1.5423268971090585,0.21386380077298237,0.07945240461473851
0.279,0.0822,-3.505,0.06267928095621267,1.5284020444358584,0.2189910422174661,0.07814066779097896
0.28,0.0656,-2.505,0.06339032625620024,1.547460204780889,0.22173338778848364,0.079935967985846
0.281,-0.0104,-1.505,0.06292169268478097,1.553686977274675,0.2199259710190679,0.08052253697619463
0.28200000000000003,0.05880000000000486,-2.505,0.06279382978277662,1.5536869772746742,0.21943283188571705,0.08052253697619453
0.28300000000000003,0.14639999999999428,2.495,0.06236538730508566,1.5349308809961764,0.21778042333853712,0.07875569155700841
0.28400000000000003,0.04349999999999616,2.495,0.062412117996632,1.541879545713895,0.21796065335341092,0.07941026360887168
0.28500000000000003,-0.025600000000000688,0.495,0.05940913439691007,1.548797035620251,0.20637880508765388,0.08006189895835125
0.28600000000000003,-0.037999999999998105,-1.505,0.05940949634451465,1.568707061126726,0.2063802010400783,0.08193744581200665
0.28700000000000003,-0.003899999999998301,-3.505,0.05961171249399557,1.5693665695788326,0.20716010432039939,0.0819995722518701
0.28800000000000003,0.026699999999997382,-0.505,0.059046329355159875,1.5755067653564863,0.20497954571641008,0.0825779856179334
0.289,-0.0205,-1.505,0.057872928438181606,1.6366955298851662,0.2004539960675206,0.08834203623421738
0.29,-0.0457,-0.505,0.061428621533381265,1.7536598722124286,0.2141675234780651,0.09936020917279183
0.291,-0.0996,0.495,0.06587321702783137,1.8627410048601374,0.2313093522326927,0.10963577487028646
0.292,-0.0922,0.495,0.06705765648605244,1.8629261695555621,0.23587747511100682,0.1096532175933909
0.293,-0.008,0.495,0.06772034048155033,1.9117094667811128,0.2384333017511233,0.1142486592010655
0.294,0.095,-1.505,0.07395717543579124,2.0495955317156627,0.26248740451254915,0.1272376820010019
0.295,0.1085,-2.505,0.08087271231126539,2.1224940555380547,0.2891591115359926,0.13410480514691378
0.296,0.0203,-1.505,0.08162868381271252,2.1369044760703666,0.29207472759989916,0.13546228301053778
0.297,-0.014,0.495,0.08158662116076083,2.1513787035137146,0.29191250118860446,0.13682577155713133
0.298,-0.0243,0.495,0.0816030041504767,2.175288402964147,0.29197568678210756,0.13907809220642034
0.299,-0.015,-0.505,0.08168277000663482,2.185094754050883,0.29228332617211195,0.14000186153662972
0.3,-0.0236,0.495,0.0816643542944382,2.1899814629891,0.2922123008144021,0.1404621950289611
0.301,-0.0161,-0.505,0.08173634627140872,2.1948572920103637,0.2924899580595837,0.14092150362084707
0.302,-0.023,0.495,0.08174241035857545,2.1948572920103637,0.29251334591206546,0.14092150362084707
0.303,-0.0293,-0.505,0.08172639165191072,2.199094997546918,0.2924515652782912,0.14132070026091254
0.304,-0.0236,0.495,0.08185282257996439,2.2434926699513555,0.2929391816025868,0.14550301106511945
0.305,-0.0081,1.495,0.08222573510645696,2.2522365546491483,0.2943774233228003,0.1463266948634319
0.306,-0.0128,0.495,0.08298536211763391,2.2522365546491483,0.29730713788495666,0.1463266948634319
0.307,0.0004,0.495,0.0842612740469736,2.278115460196758,0.3022280499963148,0.14876451694759146
0.308,0.0286,0.495,0.08496046710585942,2.2907947232139048,0.30492468407624645,0.14995891782119883
0.309,0.0107,0.495,0.08581857001306985,2.2907947232139048,0.3082341985433373,0.14995891782119883
0.31,-0.0119,0.495,0.0858224789421841,2.317285060148504,0.30824927442449995,0.15245433743147513
0.311,-0.0444,1.495,0.08820885024705633,2.3306393191719392,0.3174529844818396,0.15371232369001395
0.312,-0.0577,0.495,0.08886774825966864,2.330787312926221,0.3199942094173975,0.153726264868548
0.313,-0.1014,1.495,0.08916693188683553,2.3353691832669674,0.32114809496434704,0.15415788222125554
0.314,-0.0417,1.495,0.08927762536034431,2.348473748247617,0.32157501538252947,0.15539234701940394
0.315,0.001,0.495,0.08939690020949595,2.3445060610421553,0.3220350322820301,0.1550185864106055
0.316,0.1181,-1.505,0.08937853014091225,2.3446531795323153,0.3219641829617116,0.15503244513827236
0.317,0.1014,-1.505,0.08938953766571997,2.340679016086184,0.32200663656755757,0.1546580744603001
0.318,-0.0359,1.495,0.08938466401798278,2.3195167557923297,0.3219878399785259,0.15266456567762843
0.319,-0.0545,-0.505,0.08878226248273738,2.2766021673783396,0.31966450954910985,0.148621963057677
0.32,-0.0378,-1.505,0.08874454321742725,2.237182829943618,0.31951903462625036,0.14490861702128802
0.321,0.0079,-0.505,0.08860209993469355,2.228379877090558,0.3189696621663905,0.14407936893614295
0.322,0.0773,-0.505,0.0886775765425719,2.228225081672526,0.3192607588677318,0.14406478703321393
0.323,0.0898,-1.505,0.0878771964394016,2.2142532439880838,0.3161738685794506,0.1427486241684141
0.324,0.0331,1.495,0.08730016269445717,2.228070275500066,0.3139483761462629,0.14405020411720565
0.325,0.1055,1.495,0.0872722268775305,2.2142532439880838,0.3138406338352977,0.1427486241684141
0.326,0.0014,1.495,0.08724812206620365,2.2142532439880838,0.31374766687161265,0.1427486241684141
0.327,-0.0954,1.495,0.08714688670301185,2.209420219074806,0.3133572243078488,0.14229334777176716
0.328,-0.1327,1.495,0.08714955049734686,2.1953287039470375,0.31336749797760916,0.14096591115685533
0.329,-0.0984,2.494999999999778,0.08626151218129223,2.190453924262866,0.309942529212653,0.1405067014137067
0.33,-0.0258,1.495,0.08603057286329407,2.1667115830632873,0.30905184697919036,0.13827014610036462
0.331,0.0784,0.49499999999977795,0.08598303994467957,2.152340469836924,0.3088685229506899,0.13691637102928472
0.332,0.0371,-0.505,0.08602498303538769,2.147368103992104,0.30903028824052475,0.13644796855976288
0.333,0.0248,-1.505,0.08582750593617956,2.1373886698334172,0.3082686624363738,0.13550789460900378
0.334,0.0362,-1.505,0.08482260713243758,2.1512183673222647,0.3043929884338724,0.13681066770709843
0.335,0.0055,-2.504999999999778,0.08552196014128022,2.1512183673222647,0.30709023940566127,0.13681066770709843
0.336,0.0528,-1.505,0.08577264004974887,2.1512183673222647,0.3080570567613826,0.13681066770709843
0.337,0.0275,1.4950000000006662,0.08588669252375174,2.1746540386829025,0.30849693210680834,0.13901833437580519
0.338,-0.0896,4.495,0.08877595225071035,2.1512183673222647,0.31964017236995723,0.13681066770709843
0.339,-0.2069,6.495,0.08945186144858408,2.1512183673222647,0.32224700571128084,0.13681066770709843
0.34,-0.2528,6.495,0.0895788757050762,2.14640410963944,0.3227368718052601,0.1363571592047225
0.341,-0.1279,-0.5050000000008882,0.08946343114366678,2.151218367322265,0.3222916274844205,0.13681066770709846
0.342,0.1236,-4.505,0.0889327443315292,2.15618185410226,0.32024488499292475,0.13727823375870157
0.343,0.3038,-7.504999999999556,0.08845615827059645,2.15618185410226,0.3184067972178836,0.13727823375870157
0.34400000000000003,0.33639999999998843,-5.505,0.08847371508876344,2.15634182123045,0.31847451000994087,0.13729330284255922
0.34500000000000003,0.12819999999999251,-2.505,0.08796379884610782,2.1513787035136946,0.31650787504355976,0.13682577155712944
0.34600000000000003,-0.006899999999998629,-2.505,0.08730872767652904,2.1370658861806473,0.31398140940117797,0.1354774880249355
0.34700000000000003,0.01780000000000123,-3.504999999999778,0.0874191699575373,2.132057897389723,0.31440736102504974,0.1350057298337215
0.34800000000000003,0.03999999999999663,-2.505,0.08760178678777233,2.1322196743885193,0.3151116740352012,0.13502096940943112
0.34900000000000003,-0.02080000000000102,-1.505,0.08756842891745514,2.132219674388519,0.31498302005503354,0.13502096940943106
0.35000000000000003,-0.03919999999999722,-1.505,0.08759132550326729,2.1465648054285875,0.31507132715824404,0.13637229692926398
0.35100000000000003,0.010799999999999163,0.49500000000022204,0.08756067910663372,2.1510580191796493,0.3149531307366135,0.13679556273125226
0.352,-0.0043,1.495,0.0875519287417172,2.1510580191796493,0.31491938250077817,0.13679556273125226
0.353,-0.0456,4.494999999999556,0.08753594871169579,2.1510580191796493,0.3148577510343235,0.13679556273125226
0.354,-0.0829,2.495,0.08772550755250685,2.164481696802792,0.3155888378547476,0.13806008830016134
0.355,-0.1167,3.495,0.08825128197610459,2.191554569184055,0.31761663434244364,0.14061038340639206
0.356,-0.1473,3.495,0.0889234587682921,2.19202669139641,0.32020907261470055,0.14065485785117043
0.357,-0.1186,2.494999999999334,0.08897219231096357,2.2061392979313608,0.3203970271865224,0.14198428130042193
0.358,-0.1268,-0.505,0.09257018125113808,2.206295642905699,0.33427368038264105,0.1419990091733023
0.359,-0.0099,-3.505,0.0925345045027811,2.210667456194413,0.33413608299911735,0.14241083891484382
0.36,0.2085,-2.505,0.09331505805049974,2.210667456194413,0.33714650661708606,0.14241083891484382
0.361,0.1196,-0.505,0.09372372746685792,2.2246618142899517,0.33872265480902236,0.1437291232277634
0.362,0.0931,-1.505,0.09381657262722835,2.2251269118957335,0.33908073820305745,0.14377293594668147
0.363,0.0685,-2.505,0.09470514240631428,2.2252819228291587,0.3425077567042119,0.14378753815140358
0.364,0.0463,-0.505,0.09440443889660712,2.2210941808319227,0.34134800930408243,0.1433930481330818
0.365,-0.0146,-0.505,0.0943258239371786,2.2167429310032825,0.34104480867001835,0.142983155492667
0.366,-0.0329,-0.505,0.09440097521368962,2.2210941808319222,0.3413346506397211,0.14339304813308174
0.367,0.0173,1.495,0.09367411102489652,2.216431703910101,0.33853129508853075,0.14295383754954336
0.368,0.0022,0.495,0.09312296200320012,2.216431703910101,0.33640563434842574,0.14295383754954336
0.369,-0.0391,1.495,0.09306624028542106,2.216431703910101,0.33618687113947876,0.14295383754954336
0.37,-0.0268,1.495,0.09295775865091209,2.216431703910101,0.3357684812985817,0.14295383754954336
0.371,-0.0379,0.495,0.09289696501241684,2.2116034395982123,0.33553401358565765,0.14249900960691544
0.372,-0.007,0.495,0.09294076572394501,2.2116034395982123,0.33570294331104755,0.14249900960691544
0.373,0.0026,-2.505,0.09302325931252503,2.237952261763478,0.3360211029659721,0.14498109836634562
0.374,0.0457,-0.505,0.09362006744162464,2.2462570818634915,0.33832286085623897,0.14576342178444918
0.375,0.0228,-0.505,0.09472811067950906,2.3071435650413066,0.34259634028991415,0.15149899715662316
0.376,-0.0261,0.495,0.0951736328821208,2.315647116398333,0.34431462158527415,0.15230004128323069
0.377,-0.0069,0.495,0.09520136433479123,2.315647116398333,0.344421575708183,0.15230004128323069
0.378,-0.0597,0.495,0.09518697003995255,2.324119554940391,0.34436606007408843,0.15309815454758474
0.379,-0.0529,1.495,0.09528338483783345,2.324564753182648,0.3447379107760815,0.15314009272401985
0.38,-0.0592,0.495,0.09704054987094853,2.3253065608381807,0.3515149104218062,0.15320997184164828
0.381,0.0287,0.495,0.09747027708792451,2.334482822808398,0.3531722739262698,0.15407438606658042
0.382,-0.0086,1.495,0.09816417301646818,2.398739090053988,0.35584847813776255,0.16012739889777514
0.383,-0.0657,3.495,0.0983523606002051,2.424050083689654,0.3565742763207903,0.16251172303944067
0.384,-0.1176,2.495,0.09855044280359447,2.424050083689654,0.3573382358788828,0.16251172303944067
0.385,-0.0704,0.495,0.09849087439693084,2.419778697775527,0.35710849361606295,0.1621093536698292
0.386,0.0582,-3.505,0.09853117407595904,2.4070623635778627,0.35726392062795426,0.16091146064921485
0.387,0.2246,-1.505,0.09839849007515351,2.402617218388701,0.3567521875752777,0.16049272295996064
0.388,0.1129,-0.505,0.09839961918213334,2.3985952889400566,0.3567565422929383,0.16011385267068975
0.389,0.0518,-0.505,0.09800438545027668,2.357120872640139,0.35523221258554444,0.156206915887851
0.39,-0.0039,-1.505,0.09607395951058066,2.2671916505671454,0.347786983672569,0.14773548176257437
0.391,-0.021,-1.505,0.0926904043909976,2.186988209504513,0.33473735463115,0.1401802271754601
0.392,-0.0058,0.495,0.09239114233390314,2.213630045965533,0.33358316659719356,0.14268991821195917
0.393,-0.0194,-0.505,0.09231591133722668,2.167189117327649,0.33329301716431986,0.13831513036654475
0.394,-0.0066,0.495,0.0875451212306525,2.032702544906731,0.31489312742558356,0.12564634359472862
0.395,-0.0176,-0.505,0.0811044042638979,1.9613899668034247,0.29005269651595555,0.11892861832389894
0.396,-0.0485,0.495,0.08022476055768998,1.9755787581646984,0.28666010391765717,0.12026521846969761
0.397,-0.0583,-0.505,0.0806370573049255,2.009498045661754,0.2882502419281974,0.12346045359999147
0.398,0.0015,0.495,0.08391192302560363,2.00829613387201,0.30088067982707084,0.12334723215409765
0.399,0.0249,-2.505,0.0864710402985759,1.9981400099336553,0.3107506331470248,0.1223905138268549
0.4,0.004,1.495,0.0864514486960379,2.0676854082301896,0.31067507263850275,0.12894176876717917
0.401,0.0101,-0.505,0.08820805759994317,2.1349666029046976,0.3174499274159956,0.13527973317314698
0.402,0.0156,0.495,0.09176581462360205,2.1494538798497644,0.3311714149453527,0.13664445099751732
0.403,-0.0647,2.495,0.09227373287411915,2.1449573057822855,0.3331303440948301,0.13622086864993338
0.404,-0.0991,3.495,0.09216262773548604,2.098475944998946,0.33270183597466796,0.13184227205082494
0.405,-0.1095,-1.505,0.09181985247329882,2.0846272755152175,0.3313798270645044,0.1305377117694193
0.406,0.032,-2.505,0.09116541902155076,2.0561469947221145,0.3288558209597479,0.1278548372037712
0.40700000000000003,0.25549999999998513,-0.505,0.09000386737874866,2.02743678372845,0.3243759713591639,0.1251503029539563
0.40800000000000003,-0.012800000000006006,1.495,0.08922710369889356,2.0130994754601623,0.3213801644292606,0.12379971234804625
0.40900000000000003,-0.12099999999999818,0.495,0.08832271504262934,2.012928124914146,0.317892135992777,0.1237835709333932
0.41000000000000003,-0.08829999999999173,-2.505,0.0883260623124527,1.987586453972554,0.3179050456773994,0.12139635695491706
0.41100000000000003,0.06080000000000448,-1.505,0.0858572159770682,1.971910324008778,0.30838324753952706,0.11991964783560974
0.41200000000000003,0.1415999999999959,-0.505,0.08502125446603225,1.9771495107755503,0.30515912757505975,0.12041318513685212
0.41300000000000003,0.0675999999999971,-0.505,0.08450948421340411,1.971910324008778,0.3031853420993695,0.11991964783560974
0.41400000000000003,0.015700000000001213,0.495,0.08423693981071646,1.956284897932102,0.3021341981910571,0.11844771507964193
0.41500000000000004,0.037599999999998863,1.495,0.08411602109716651,1.9610382142686578,0.30166784126757745,0.11889548283848066
0.41600000000000004,0.017099999999998967,-0.505,0.08410469759881647,1.9663063697831018,0.301624169021169,0.11939174902841947
0.417,-0.0015,-1.505,0.08404720964618718,1.9661309411689771,0.3014024506126758,0.11937522345515209
0.418,0.015,1.495,0.08403066111901289,1.9661309411689771,0.3013386265775488,0.11937522345515209
0.419,-0.0308,-0.505,0.08403035329239734,1.9661309411689771,0.30133743935789375,0.11937522345515209
0.42,-0.0172,0.495,0.08394088211272283,1.961214098422098,0.30099236866645057,0.11891205132406524
0.421,-0.0297,-0.505,0.08389833880601642,1.9564612094045697,0.3008282884753224,0.11846432381916076
0.422,-0.0868,3.495,0.08381365332499989,1.9566375049897173,0.3005016751726267,0.11848093106207612
0.423,-0.1387,2.495,0.08385260100081024,1.956813784691835,0.3006518878050171,0.11849753680879213
0.424,-0.1483,5.495,0.08390681329186947,1.9463890479378445,0.3008609727061951,0.11751551485142327
0.425,-0.1401,2.495,0.08378749738365765,1.9463890479378438,0.30040079745091625,0.11751551485142321
0.426,-0.0231,1.495,0.08375759604728922,1.9462118240070354,0.3002854745631074,0.11749882015729979
0.427,0.0938,2.495,0.0837171565053504,1.946211824007036,0.30012950813068484,0.11749882015729984
0.428,0.1393,-1.505,0.08374255797034695,1.9511664721076978,0.30022747600281885,0.1179655535953431
0.429,0.2084,-2.505,0.08356871088255632,1.956108570568002,0.2995569859633723,0.11843110484311342
0.43,0.0949,-2.505,0.08340454927144063,1.9513432460499565,0.2989238506804556,0.11798220590003772
0.431,0.1404,-5.505,0.0831954703675751,1.951520003979558,0.2981174792635869,0.11799885669632197
0.432,0.0712,-3.505,0.08314809560512766,1.951520003979558,0.2979347652086905,0.11799885669632197
0.433,-0.0673,-1.505,0.08319455016961397,1.946743447398131,0.29811393026213334,0.11754889968021023
0.434,-0.012,-0.505,0.08293634829606536,1.9162149242896382,0.2971181023389802,0.11467307837881316
0.435,-0.0288,-0.505,0.08217242108397829,1.9008575328323616,0.2941718028462708,0.11322639478623402
0.436,-0.0136,0.495,0.08200302952251111,1.9008575328323616,0.2935184967933859,0.11322639478623402
0.437,0.0279,0.495,0.0819963223720643,1.8682879628192102,0.29349262878705457,0.11015830456489253
0.438,0.0158,0.495,0.07886241988352896,1.862557432123897,0.2814058551179424,0.10961848211153229
0.439,0.0728,0.495,0.07815753624293494,1.862557432123897,0.2786872737140578,0.10961848211153229
0.44,0.0002,2.495,0.07861328033551951,1.862557432123897,0.2804449785942371,0.10961848211153229
0.441,-0.104,3.495,0.07874147473302348,1.862557432123897,0.28093939623293107,0.10961848211153229
0.442,-0.118,0.495,0.0788870658781744,1.8568092158067226,0.28150090930683924,0.10907699365265007
0.443,-0.0809,-0.505,0.0789058069674556,1.8568092158067226,0.281573189572509,0.10907699365265007
0.444,0.0677,1.495,0.0798188405310379,1.8723436858178555,0.28509455951803014,0.1105403582446798
0.445,0.0475,3.495,0.0809619189950098,1.8723436858178555,0.2895031621247187,0.1105403582446798
0.446,-0.0818,4.495,0.08108529219777062,1.8723436858178553,0.28997898547405987,0.11054035824467978
0.447,-0.2329,3.495,0.08131529834127853,1.872527900953571,0.29086606865844594,0.11055771151818888
0.448,-0.2127,-1.505,0.08270423876475781,1.8725279009535711,0.29622290684977104,0.11055771151818891
0.449,-0.0096,-5.505,0.08351607248121444,1.8727120979683933,0.29935397120919577,0.11057506308468942
0.45,0.1794,-5.505,0.08410412859468117,1.8618165161609204,0.3016219744971768,0.10954868699234814
0.451,0.2532,-2.505,0.08435607614655527,1.8568092158067226,0.3025936808751287,0.10907699365265007
0.452,0.0967,0.495,0.08435450350412665,1.8623722307670856,0.30258761553864594,0.10960103593488388
0.453,-0.0049,0.495,0.08433999914612762,1.8681033295799137,0.3025316754151126,0.11014091190555465
0.454,-0.0236,-0.504999999999778,0.08414177709122614,1.8523470986947206,0.3017671764804504,0.10865665718912641
0.455,-0.0404,0.495,0.08373151641067964,1.82042556072835,0.3001848911319937,0.10564961231732567
0.456,-0.0252,-0.505,0.08324037226421482,1.82042556072835,0.2982906560181233,0.10564961231732567
0.457,-0.0113,-0.505,0.0832757522855018,1.8034881474791948,0.29842710899050146,0.10405408889028721
0.458,0.0012,0.4949999999995559,0.07925831079901927,1.803296879626409,0.2829327194382886,0.10403607124287731
0.459,0.0124,-1.505,0.07945988083434076,1.8038706223432786,0.2837101307981885,0.10409011845377025
0.46,0.0223,0.4949999999995559,0.07853972181221176,1.8092151226776578,0.28016127952385844,0.10459357641183491
0.461,-0.0062,-1.505,0.07819334216944668,1.808261609941316,0.27882536930935586,0.10450375443687136
0.462,0.0023,-0.505,0.07828435656492,1.8347644916581491,0.2791763918452329,0.10700035577977984
0.463,0.0101,-0.505,0.07772786426387576,1.8504840322917686,0.2770301232501087,0.10848115423313717
0.464,-0.0108,1.494999999999334,0.0774391738363163,1.8502976224756946,0.2759167076696573,0.10846359421826354
0.465,-0.0046,-1.505,0.07872855953948776,1.856066005236451,0.28088958516773993,0.10900698237887128
0.466,-0.0106,0.49500000000022204,0.07896342416415944,1.8510431491052786,0.28179540644701473,0.10853382366744119
0.467,0.0048,1.495,0.07900068093568843,1.867549320340637,0.28193909763292757,0.11008872361050283
0.468,-0.0,0.495,0.07914638700196626,1.8675493203406373,0.28250105393238467,0.11008872361050284
0.46900000000000003,0.004399999999999773,0.495,0.07919282050966521,1.8681033295799137,0.2826801377744229,0.11014091190555465
0.47000000000000003,0.00029999999999980016,-0.505,0.07914842419650278,1.8681033295799137,0.2825089109443284,0.11014091190555465
0.47100000000000003,-0.003299999999998351,-0.505,0.07912999207639859,1.8738168998177887,0.2824378223049223,0.11067913666469927
0.47200000000000003,0.02640000000000021,-0.505000000000222,0.07915906491784988,1.8738168998177887,0.28254994986977966,0.11067913666469927
0.47300000000000003,0.03019999999999778,-1.505,0.07882991609931893,1.8422674133124992,0.2812804951603261,0.10770713946006508
0.47400000000000003,-0.009799999999999722,-0.504999999999778,0.07762092539095625,1.8432033344943526,0.2766176835018598,0.10779530429075922
0.47500000000000003,-0.0047999999999997385,0.495,0.07619661473058252,1.7669826163503313,0.27112443007440973,0.10061522669357667
0.47600000000000003,-0.0001000000000012046,0.49500000000022204,0.07489898551952313,1.7503163401338202,0.26611975917674136,0.09904524468075286
0.47700000000000004,-0.021800000000000205,1.495,0.07490022580563399,1.744791435262979,0.26612454268789454,0.09852479241192569
0.47800000000000004,-0.02549999999999898,1.494999999999556,0.0743706388900507,1.7281107425885154,0.2640820422558629,0.09695345235250646
0.47900000000000004,-0.007099999999999806,-0.505,0.073061588575633,1.722114071896004,0.2590333226707039,0.09638855921130533
0.48,-0.0036,-0.504999999999778,0.07004478942601626,1.709654183895637,0.247398190863004,0.09521482371165028
0.481,-0.0064,0.495,0.06960631472467277,1.6971028196315856,0.24570709023234996,0.09403247104480571
0.482,0.029,-0.504999999999778,0.06834939979480174,1.6110024662328473,0.24085944537605478,0.08592172066615328
0.483,-0.0042,0.495,0.06803084114642922,1.5785688569303344,0.23963083462721926,0.08286643809706598
0.484,-0.0347,0.495,0.06776848421183428,1.572001836526519,0.23861898154609382,0.08224781736992219
0.485,-0.0466,0.495,0.06779899516520156,1.6103600094778598,0.23873665559279064,0.0858612005153863
0.486,-0.0574,0.495,0.06918548321897057,1.6167712337103004,0.24408403553270253,0.08646514506750767
0.487,-0.0083,0.495,0.06921311226074393,1.6167712337103006,0.24419059467927162,0.08646514506750769
0.488,0.0411,-0.505,0.06916186747086644,1.6227320666473355,0.24399295477846542,0.08702666225173156
0.489,0.0991,-0.505,0.06970422275333235,1.6586710867567291,0.2460846999975314,0.0904121584715988
0.49,0.045,-1.505,0.07094611438402294,1.7170993931430907,0.2508744032881201,0.09591617081812821
0.491,0.0522,0.495,0.07230698207053643,1.7056143139525903,0.2561229710979578,0.09483426340757664
0.492,-0.0182,0.495,0.07170411070393201,1.670685420431611,0.2537978286321686,0.09154392225137711
0.493,-0.122,2.495,0.07215644864656139,1.6708918684553897,0.25554239673998747,0.09156336988801202
0.494,-0.1358,0.495,0.07511015902793886,1.6708918684553897,0.2669342090233689,0.09156336988801202
0.495,-0.0481,-0.505,0.07497723475971665,1.6708918684553897,0.2664215493120308,0.09156336988801202
0.496,0.0779,-0.505,0.07484308258521916,1.6417457008344247,0.26590415383584665,0.08881776803231192
0.497,0.1617,-0.505,0.07439690067102402,1.5872832508326558,0.2641833281777872,0.0836873438291906
0.498,0.1161,-0.505,0.07091486839815836,1.5565723332090473,0.2507538943825,0.0807943407587979
0.499,0.1023,-1.505,0.06779245075230945,1.5499121157292315,0.23871141522946934,0.080166940762004
0.5,0.0652,-0.505,0.06784512590273788,1.448716071680814,0.23891457171680228,0.0706341593019472
0.501,0.0087,-1.505,0.0654444049273339,1.3468293218344807,0.22965551813152008,0.06103631257687298
0.502,-0.0011,-1.505,0.06078855517539502,1.3308605389156103,0.21169892809882335,0.0595320352191944
0.503,-0.029,0.495,0.060609772004088826,1.3308605389156103,0.2110094006692593,0.0595320352191944
0.504,-0.0541,-0.505,0.06069830211368527,1.3388687381883027,0.2113508418600776,0.06028641662088868
0.505,-0.0615,-1.505,0.06069986551356958,1.3386110846957548,0.21135687155009672,0.06026214537135542
0.506,-0.0403,-0.505,0.06093440544115297,1.3603308097720777,0.21226144054400797,0.062308167965144136
0.507,0.0046,0.495,0.061550425811496966,1.3814594912382965,0.214637295829598,0.06429851358438839
0.508,0.0579,-1.505,0.06210710553993317,1.3881824814761148,0.21678428729101257,0.06493182684576997
0.509,0.0091,1.495,0.06211970525850736,1.3884309359506444,0.2168328816385578,0.06495523153743292
0.51,-0.0486,2.495,0.06361051165901278,1.380710230225587,0.22258259453271814,0.06422793235210936
0.511,-0.0717,3.495,0.06416880618978774,1.388430935950646,0.22473581393213019,0.06495523153743307
0.512,-0.1068,2.495,0.06417544196131351,1.387685439075442,0.22476140664563848,0.06488500489115158
0.513,-0.0101,0.495,0.06417566844105432,1.387685439075442,0.2247622801282621,0.06488500489115158
0.514,0.1427,-1.505,0.06417444980378548,1.3874368511014863,0.2247575801119383,0.06486158762369215
0.515,0.0715,-0.505,0.06416577703286745,1.3881824814761246,0.2247241311391149,0.0649318268457709
0.516,-0.0298,-2.505,0.06416951876111039,1.380460386183545,0.2247385621632355,0.06420439676161983
0.517,-0.0481,-1.505,0.06419275457286576,1.3807102302255947,0.2248281775864124,0.06422793235211009
0.518,-0.0311,-1.505,0.06469151286183408,1.4159735222787273,0.22675177877579442,0.06754977422711297
0.519,-0.0156,-0.505,0.06578096959932889,1.4227758620973407,0.23095357415920573,0.06819056230848164
0.52,-0.0013,-1.505,0.0669814434047817,1.4302695123024962,0.2355835379935263,0.06889647260779808
0.521,0.0365,-0.505,0.06704869048356549,1.4374841702953165,0.23584289520841797,0.06957610152611529
0.522,0.0481,-0.505,0.0693698541685552,1.444662798675597,0.24479511379596727,0.07025233641430356
0.523,0.0173,-2.505,0.07236051400897106,1.4446627986755964,0.25632943202847336,0.07025233641430349
0.524,0.0078,-1.505,0.07265652880907743,1.4446627986755964,0.2574710961053494,0.07025233641430349
0.525,-0.0005,0.495,0.07265027596575553,1.4645753704724196,0.2574469802618295,0.07212812313138094
0.526,-0.0235,0.495,0.07268878318653975,1.4711530014810936,0.2575954941559114,0.07274774338946713
0.527,-0.0302,-0.505,0.07278074649938544,1.471153001481093,0.25795017645770413,0.07274774338946707
0.528,-0.0113,-0.505,0.07277027598385659,1.471153001481093,0.25790979397871533,0.07274774338946707
0.529,-0.0171,1.495,0.0727976490775476,1.4645753704724234,0.25801536598973895,0.0721281231313813
0.53,-0.0539,1.495,0.07295053350478174,1.4645753704724243,0.2586050076509811,0.07212812313138138
0.531,-0.049,1.495,0.07298099320731463,1.4716218528623566,0.25872248403446474,0.07279190971826836
0.532,-0.0272,1.495,0.07298365023784163,1.4716218528623568,0.258732731617703,0.07279190971826838
0.533,-0.031,-0.505,0.07296966746454332,1.4713874458464171,0.25867880313181635,0.0727698283130448
0.534,0.0235,-3.505,0.07305541142196384,1.4713874458464165,0.25900949874555257,0.07276982831304472
0.535,0.1407,-1.505,0.07325364010274404,1.4716218528623568,0.25977402323477394,0.07279190971826838
0.536,0.0237,0.495,0.07316759022988252,1.4718562225467644,0.25944214777236313,0.07281398760681955
0.537,0.0085,1.495,0.07353032711826316,1.4720905549174703,0.26084114429102756,0.07283606198037794
0.538,-0.0883,3.495,0.07375948128535147,1.4793344199106664,0.26172494158946386,0.07351844223106496
0.539,-0.151,4.495,0.07364776477483036,1.5200328654391693,0.2612940755421917,0.07735228169223618
0.54,-0.1397,1.495,0.07300838932285594,1.5268234259542914,0.25882814483570926,0.07799196014993338
0.541,-0.0461,0.495,0.07293052354293887,1.520032865439167,0.2585278336224952,0.07735228169223597
0.542,0.1428,-0.505,0.07274612986405511,1.520032865439167,0.25781666769731526,0.07735228169223597
0.543,0.2236,-0.505,0.07273706979879947,1.520032865439167,0.2577817250152845,0.07735228169223597
0.544,0.0509,1.495,0.07170951269558178,1.5006264145583976,0.25381866292764266,0.07552417213616291
0.545,-0.016,-1.505,0.07050495753968282,1.5008562549751348,0.24917295822094734,0.07554582336259223
0.546,0.0044,-1.505,0.07071820986689818,1.5070467059924801,0.24999542561516042,0.07612897082890331
0.547,0.06,-1.505,0.07034898586587827,1.5070467059924801,0.2485714097276663,0.07612897082890331
0.548,0.0435,-0.505,0.06846361721910015,1.51389551689354,0.241299956898546,0.07677413653864015
0.549,0.0283,-0.505,0.06756925050314898,1.5200328654391555,0.2378505808849544,0.07735228169223488
0.55,0.0145,1.495,0.06697965116097636,1.5132118324899435,0.23557662570275967,0.07670973269688508
0.551,-0.0734,1.495,0.06669044065805067,1.5129838690349537,0.2344612043058334,0.07668825828236886
0.552,-0.0849,0.495,0.06670356162734684,1.5122997724912792,0.23451180900294258,0.0766238156165537
0.553,-0.0332,-1.505,0.0667142326091928,1.5122997724912792,0.23455296463649253,0.0766238156165537
0.554,-0.024,0.495,0.066653037484265,1.5186707147533882,0.23431694847856763,0.07722396556164707
0.555,-0.067,2.495,0.06644152833840009,1.5186707147533882,0.23350120415200715,0.07722396556164707
0.556,-0.0905,2.495,0.06616274211435914,1.5179891810440451,0.23242598690948724,0.07715976431771583
0.557,-0.0838,1.495,0.06604505151693076,1.5179891810440451,0.2319720801209693,0.07715976431771583
0.558,0.0125,-0.505,0.06604428405220862,1.524336344688788,0.2319691201780772,0.07775767429024008
0.559,0.1374,0.495,0.06581187055265093,1.5236573452244413,0.23107275235008107,0.07769371177504515
0.56,0.0873,-1.505,0.06583296722968787,1.5173073412080975,0.23115411760041946,0.07709553423631324
0.561,0.011,1.495,0.0657980026349574,1.4978655786615753,0.23101926683703883,0.07526409828150814
0.562,-0.003,-0.505,0.06577020822927282,1.477934759644937,0.23091206991817936,0.07338659265574818
0.5630000000000001,0.009299999999998745,0.495,0.06495190005223812,1.4582046289357065,0.22775603498614655,0.07152799209484619
0.5640000000000001,-0.0019999999999988677,-1.505,0.06496074390145455,1.4655171319041949,0.22779014377039677,0.07221683812020331
0.5650000000000001,0.008199999999996837,0.495,0.06407265999931744,1.4582046289357018,0.22436499918993158,0.07152799209484575
0.5660000000000001,-0.02030000000000667,-0.505,0.0636887595304062,1.4582046289357016,0.22288437938884623,0.07152799209484573
0.5670000000000001,-0.08040000000000432,3.495,0.06369302337583498,1.4441851951262736,0.22290082410429163,0.0702073456214019
0.5680000000000001,-0.1193000000000008,1.495,0.06354667445093612,1.4367641260021506,0.22233638844030992,0.06950827254176263
0.5690000000000001,-0.12639999999998933,-1.505,0.06348127073313224,1.4367641260021506,0.22208414066390147,0.06950827254176263
0.5700000000000001,-0.030099999999976906,-1.505,0.06347777963066008,1.4367641260021506,0.22207067624833937,0.06950827254176263
0.5710000000000001,0.17790000000000328,-1.505,0.06348414931616499,1.436043720672856,0.22209524272649972,0.06944040954739952
0.5720000000000001,0.20749999999998495,-0.505,0.06339882963651738,1.4432295138721127,0.22176618345895893,0.07011731936961454
0.5730000000000001,0.07209999999999177,-1.505,0.0632233953132622,1.4429904946616732,0.22108957180089475,0.07009480349046826
0.5740000000000001,-0.0020000000000024647,2.495,0.06320375769764477,1.4280973774829087,0.2210138338300303,0.06869185505844999
0.5750000000000001,-0.02419999999999326,1.495,0.06320426878954749,1.4205922692730566,0.22101580499925935,0.06798486540217086
0.5760000000000001,0.03649999999999792,0.495,0.06320693799432058,1.4205922692730566,0.22102609953589117,0.06798486540217086
0.577,0.0178,1.495,0.06317179285517788,1.4205922692730566,0.22089055245236153,0.06798486540217086
0.578,-0.0324,0.495,0.06318919240623842,1.420349440627474,0.2209576586997264,0.06796199066993851
0.579,-0.0478,-0.505000000000222,0.06318053751746508,1.4276142320383236,0.22092427869440795,0.06864634221276554
0.58,0.0213,-1.505,0.06315771578111003,1.42107780208318,0.2208362602691159,0.06803060314038106
0.581,0.0088,0.495,0.0629470936466514,1.42107780208318,0.22002393695075492,0.06803060314038106
0.582,-0.0254,0.495,0.06275718690587034,1.42107780208318,0.21929150835654806,0.06803060314038106
0.583,-0.0357,0.49499999999977795,0.06278678230546264,1.4145111677285376,0.21940565131339743,0.06741201877950469
0.584,-0.0641,-0.505,0.0628248572199179,1.4218057904145507,0.21955249789690637,0.06809918046209047
0.585,0.03,-0.505,0.06280942391913334,1.3782097516610314,0.21949297504505225,0.06399238445173827
0.586,0.0927,-0.505,0.06148493916034479,1.3706831353547644,0.21438472819747798,0.0632833687085239
0.587,0.0586,-1.505000000000444,0.06236586318797948,1.3777091113578266,0.21778225871435103,0.06394522357064429
0.588,0.0069,-3.505,0.06281203952506359,1.3777091113578266,0.21950306286271798,0.06394522357064429
0.589,-0.0215,-1.5049999999997778,0.06220290071490671,1.341440315322885,0.2171537482435259,0.06052866208672848
0.59,-0.03,-0.505,0.06055242095542752,1.274206141775784,0.21078821026930547,0.05419512712398436
0.591,-0.0069,0.495,0.06148958659600876,1.3141729725866007,0.2144026523362212,0.05796004765376606
0.592,-0.0141,0.495,0.06159720295060274,1.3600772220677326,0.2148177049825083,0.06228427971744424
0.593,0.0047,0.49499999999977795,0.060433543417592266,1.367662206838763,0.21032972571229952,0.06299879383585677
0.594,-0.036,-0.505,0.0561906721808165,1.375205357044056,0.1939659031193183,0.06370936709100336
0.595,-0.073,1.494999999999556,0.05610263716244269,1.3684186121570616,0.19362637138661987,0.06307004806977837
0.596,-0.0296,-0.505,0.056195307993567506,1.3608378434149546,0.1939837824310387,0.06235593110604449
0.597,-0.0004,-1.5049999999993338,0.056414432860510226,1.3529596860272943,0.19482889892132516,0.061613799796558066
0.598,0.0364,1.495,0.056107742410190925,1.3679143884186136,0.193646061206033,0.06302254962504372
0.599,0.0504,-0.504999999999778,0.0559384667681117,1.367662206838763,0.19299320222877062,0.06299879383585677
0.6,0.0198,0.495,0.05594283495912017,1.3674099787508796,0.19301004938220184,0.06297503366556069
0.601,0.0158,1.494999999999334,0.055952725896715315,1.3681665235161486,0.19304819655638011,0.06304630103554414
0.602,0.0119,-1.505,0.05547530298981384,1.361344688212891,0.1912068812502154,0.06240367645753849
0.603,-0.0046,1.494999999999556,0.0548448058260287,1.3691745995966484,0.1887751921515384,0.0631412629390541
0.604,0.0101,-0.505,0.05478020656289821,1.361598039860901,0.18852604698014078,0.062427542468465456
0.605,-0.0088,1.494999999999556,0.05478930553018458,1.3686706543670224,0.18856113969876087,0.06309379073016454
0.606,0.0078,-0.505,0.054659740009667314,1.3542338136943148,0.18806143393971383,0.0617338240595234
0.607,-0.0035,1.495,0.053911714381667517,1.332414705040528,0.18517646336471855,0.059678439420670644
0.608,-0.0173,1.495,0.05325777370082321,1.3254088690903747,0.1826543577691216,0.0590184817742446
0.609,-0.0191,0.495,0.053267490222809286,1.3254088690903747,0.18269183226059865,0.0590184817742446
0.61,-0.0436,0.495,0.05163953780280293,1.33267355651556,0.17641317728754738,0.0597028235215048
0.611,-0.0691,2.494999999999334,0.05090340872472148,1.3246279040472622,0.17357408909301297,0.058944913986551495
0.612,-0.0264,-0.505,0.05120209457417005,1.317318847587112,0.17472605482061881,0.05825639262616619
0.613,0.0146,-1.5049999999995558,0.05141492066751208,1.3170569783348944,0.1755468783243867,0.058231724247318255
0.614,0.0944,0.495,0.05154977435501343,1.317318847587112,0.17606697938216906,0.05825639262616619
0.615,0.0147,-0.505,0.05164787365506341,1.317318847587112,0.17644532683909858,0.05825639262616619
0.616,-0.0307,-1.505,0.052560580511399155,1.3254088690903747,0.17996543674651716,0.0590184817742446
0.617,0.021,0.495,0.05265949169434612,1.333191108690356,0.18034691545748457,0.059751577519972836
0.618,0.0114,-1.505,0.05204333801375234,1.2956767561186742,0.1779705460235371,0.05621768320578145
0.619,-0.0141,-0.505,0.05078651746131871,1.2956767561186742,0.1731232651602919,0.05621768320578145
0.62,0.009,1.495,0.0491919325519377,1.2873999115624566,0.16697330134795976,0.055437995115449265
0.621,0.0159,-1.505,0.049118985078490905,1.2790695087585475,0.16669195896270353,0.05465326177779117
0.622,0.0099,0.495,0.0457892607915793,1.2709559182789296,0.15384994362123208,0.05388895240556326
0.623,-0.0074,1.495,0.04081589750798351,1.2709559182789296,0.13466877362535626,0.05388895240556326
0.624,0.0082,0.495,0.040639555185938744,1.2701414724846416,0.13398866001536422,0.053812230693355854
0.625,-0.0059,0.495,0.040773059978079985,1.2468516688767124,0.13450355867997046,0.05161830493143767
0.626,-0.0103,0.495,0.040789607114930494,1.2390839141108392,0.13456737735292396,0.05088657367341581
0.627,0.0335,0.495,0.040931527623207446,1.2393622586781605,0.13511473358650944,0.050912794045524415
0.628,0.004,-1.505,0.04128887202636403,1.2315472667597565,0.13649293247389607,0.050176612994468586
0.629,-0.0013,-0.505,0.041162194889515835,1.2401969175572949,0.1360043665763493,0.05099141985311702
0.63,-0.0156,1.495,0.04089247052222482,1.2476813175901225,0.13496409892526018,0.051696458775769484
0.631,-0.0026,1.495,0.04085717338383463,1.2393622586781596,0.13482796561401317,0.05091279404552433
0.632,0.0332,-0.505,0.04085182726050334,1.2393622586781596,0.13480734679037434,0.05091279404552433
0.633,0.0378,-1.505,0.04084048934067993,1.2393622586781596,0.13476361892351013,0.05091279404552433
0.634,-0.0191,-0.505,0.04078399293502493,1.2396405407469644,0.1345457246939454,0.0509390085302022
0.635,-0.058,-0.505,0.04034812816216968,1.2396405407469644,0.13286468998431009,0.0509390085302022
0.636,-0.1072,1.495,0.040281778039849454,1.2396405407469644,0.13260879213351984,0.0509390085302022
0.637,-0.0753,1.495,0.03926697746371983,1.2396405407469644,0.1286949291694249,0.0509390085302022
0.638,0.0129,1.495,0.03890006990138246,1.2309869805193812,0.12727984727722153,0.050123833398835194
0.639,0.0501,-1.505,0.03929312708798874,1.1800718190423178,0.12879578252757082,0.04532756777473507
0.64,0.1758,-3.505,0.039324579725738745,1.1791946031147988,0.12891708844413066,0.045244933045196445
0.641,0.0586,-3.505,0.039226199124826604,1.1791946031147988,0.12853765607155163,0.045244933045196445
0.642,-0.0789,-1.505,0.039225608360226316,1.1791946031147988,0.12853537762222478,0.045244933045196445
0.643,-0.0235,-1.505,0.0392728596020183,1.1794870809138447,0.12871761528507913,0.045272484783670415
0.644,-0.0402,-0.505,0.039609132621690885,1.18764469098088,0.1300145464738064,0.046040940850670425
0.645,0.0359,-0.505,0.03993990271162891,1.1954581498153254,0.13129025407103329,0.046776977483488615
0.646,0.0498,0.495,0.03971410374983643,1.1876446909808855,0.13041939706259403,0.046040940850670946
0.647,0.0125,-2.505,0.03979210408423521,1.1963234403967338,0.13072022722289484,0.04685848883197635
0.648,0.0014,0.495,0.03979263228492514,1.2132104665186056,0.13072226437695894,0.04844926573480719
0.649,-0.0293,0.495,0.040180493956659936,1.214063104683227,0.13221816166742406,0.04852958521136649
0.65,0.0179,-1.505,0.04133816030159876,1.214063104683228,0.13668302652739084,0.04852958521136657
0.651,-0.0076,-0.505,0.042184129294880725,1.214063104683228,0.1399457431531607,0.04852958521136657
0.652,0.0154,-1.505,0.04221572834757329,1.2140631046832362,0.14006761376000013,0.04852958521136735
0.653,-0.0198,-0.505,0.042199493457984356,1.2132104665186147,0.14000499935616262,0.04844926573480805
0.654,-0.026,1.495,0.0422002422563045,1.2052259116439217,0.14000788730684152,0.0476971116620672
0.655,-0.0554,1.495,0.042294674978698855,1.2129261206036939,0.14037209357896205,0.04842248002898833
0.656,-0.0075,0.495,0.042300570248064315,1.2049396815070597,0.14039483033825798,0.04767014846041593
0.657,-0.0013,-0.505,0.04232748766957003,1.2046533833608493,0.14049864492173206,0.04764317885220736
0.658,0.0161,-0.505,0.04238336499022355,1.2046533833608493,0.1407141514764019,0.04764317885220736
0.659,0.0426,1.495,0.04235557899127043,1.1966117315446694,0.1406069869804595,0.04688564618319479
0.66,0.0092,0.495,0.042484237424181025,1.2055120738198855,0.14110319430181104,0.047724068461725215
0.661,-0.0564,0.495,0.042340753975462504,1.2143471843672646,0.1405498101501762,0.0485563458379368
0.662,-0.0469,0.495,0.04179771784268508,1.1902557163330576,0.13845543904097868,0.04628690238309029
0.663,-0.0385,-0.505,0.04253784307415464,1.1899658853244186,0.1413099395215449,0.04625959997525722
0.664,0.0318,-1.505,0.04286650977007706,1.1890959684370128,0.14257753478997515,0.04617765282352781
0.665,0.0978,-1.505,0.04181534932715755,1.189386011428061,0.13852343980457896,0.046204975200342856
0.666,0.038,-1.505,0.041790029345880345,1.189386011428061,0.13842578619725604,0.046204975200342856
0.667,-0.0009,1.495,0.04171793248570583,1.1803640794795303,0.13814772444058973,0.04535509903747923
0.668,-0.036,1.495,0.04178526394799302,1.1893860114280594,0.13840740710412278,0.04620497520034271
0.669,-0.004,0.495,0.04194131408926739,1.1885156701104016,0.13900925822920288,0.046122988066804954
0.67,0.0135,0.495,0.04204153956660318,1.2368549025603603,0.13939580588499878,0.050676598271882416
0.671,0.0085,-0.505,0.042597972972663975,1.2760996536056242,0.1415418473351057,0.05437349807351736
0.672,0.0039,-0.505,0.04337777173696124,1.2906087237509345,0.14454935991917442,0.05574026884192508
0.673,-0.0615,1.495,0.04340291413728996,1.2908759583513882,0.14464632863577717,0.05576544264262694
0.674,-0.0331,0.495,0.0446483552155664,1.3073332352388176,0.1494497213662184,0.05731573668297941
0.675,0.0267,0.495,0.04469088129345772,1.3075970518426483,0.1496137351095904,0.057340588504545174
0.676,0.0499,-0.505,0.04549624878107487,1.3075970518426483,0.15271986064441498,0.057340588504545174
0.677,0.057,0.495,0.04721709034932029,1.3149601469093977,0.15935676866305062,0.05803420036260715
0.678,-0.0007,-1.505,0.04725813434772559,1.3149601469093977,0.15951506635132112,0.05803420036260715
0.679,-0.0081,1.495,0.04908083615510792,1.3070693653867014,0.1665448269430133,0.05729087984536511
0.68,0.0129,-0.505,0.05025007109498529,1.3303420800634638,0.17105430933310534,0.05948319581069756
0.681,-0.006,0.495,0.05094989442159593,1.3230645910216101,0.17375337421724,0.058797648136711844
0.682,-0.0235,0.495,0.051008988988692536,1.3230645910216101,0.1739812889849087,0.058797648136711844
0.683,-0.0285,-0.505,0.05090420458696079,1.3447789134026362,0.1735771585588925,0.06084316179051143
0.684,-0.0238,-0.505,0.05095105883493302,1.3368061197784762,0.173757865103767,0.060092115640833006
0.685,-0.0193,-0.505,0.05099536744724829,1.343752535931366,0.1739287536909538,0.060746475875353874
0.686,-0.0232,-0.505,0.050681180738454366,1.3514291471807065,0.1727170045529613,0.06146962131134309
0.687,0.0239,0.495,0.04959802867766363,1.3445223924891547,0.16853952492304192,0.06081899723120332
0.6880000000000001,0.05579999999999675,0.495,0.04915534862250949,1.3375799744164645,0.16683220516626837,0.06016501362034556
0.6890000000000001,0.02649999999999828,1.495,0.049140738454208445,1.3303420800634507,0.16677585695563693,0.059483195810696325
0.6900000000000001,0.01099999999999949,-0.505,0.04899702916817125,1.344265822624815,0.1662216017990596,0.06079482806066917
0.6910000000000001,0.006399999999996637,0.495,0.045808529459106684,1.34246846059188,0.15392425864033712,0.0606255145304251
0.6920000000000001,-0.0239000000000031,-0.505,0.045559915497288425,1.304163273378277,0.15296540918714852,0.0570171227012037
0.6930000000000001,-0.051800000000001206,1.495,0.04489817464555531,1.2962067665311523,0.15041322004541113,0.056267610784287304
0.6940000000000001,-0.06269999999999964,1.495,0.0448386595063102,1.2879333280670844,0.15018368322332654,0.055488243551676385
0.6950000000000001,-0.059399999999997705,-0.505,0.044659208236645015,1.2879333280670844,0.14949157908511146,0.055488243551676385
0.6960000000000001,-0.03869999999999548,-1.505,0.04451953432722252,1.2876654827704133,0.14895288748993718,0.055463012222702224
0.6970000000000001,0.002000000000007161,-2.505,0.04427201444871712,1.2876654827704133,0.1479982576758171,0.055463012222702224
0.6980000000000001,0.06650000000000476,-1.505,0.04450966684296336,1.2709535583206741,0.1489148307701253,0.053888730094834456
0.6990000000000001,0.10939999999999743,-0.505,0.04528448623713571,1.278527702234249,0.15190313901713032,0.05460222299225031
0.7000000000000001,0.08629999999999294,0.495,0.04557912385943512,1.278527702234249,0.15303949162164376,0.05460222299225031
0.7010000000000001,0.02269999999999719,1.495,0.04558635437385914,1.2704106514638462,0.15306737812790044,0.05383758765672857
0.7020000000000001,-0.002599999999999145,1.495,0.04566776491935576,1.2943426700097556,0.15338136072349692,0.056092010789978976
0.7030000000000001,0.005099999999996092,0.495,0.046447953498762906,1.2935429491614105,0.15639037673883807,0.056016676184283555
0.704,-0.0301,1.494999999999778,0.04664522974097746,1.2932762656515446,0.1571512278816746,0.05599155429693649
0.705,-0.0113,0.495,0.04657371381580351,1.2857890034236563,0.15687540666372765,0.05528624575228184
0.706,-0.0171,0.49500000000022204,0.04625199328638165,1.278257886090594,0.1556346012340583,0.0545768060072679
0.707,-0.0221,1.495,0.04626883642750502,1.2857890034236563,0.1556995615304874,0.05528624575228184
0.708,-0.0079,0.4949999999995559,0.04636728675201879,1.3081222325312019,0.15607926281168605,0.05739006111761123
0.709,-0.0382,-1.505,0.046655239832620286,1.31522015312541,0.1571898346068476,0.058058693241343745
0.71,-0.0261,-1.5049999999997778,0.04664218659567754,1.3078585218649688,0.15713949113855097,0.05736521927548662
0.711,0.0139,-0.505,0.046633673648303745,1.31522015312541,0.15710665857003916,0.058058693241343745
0.712,0.0832,0.49500000000022204,0.04662350188622106,1.3154823880291295,0.15706742831748371,0.058083396064975486
0.713,0.0549,1.495,0.047558543908327866,1.3235836344069876,0.16067368005430652,0.05884654260889816
0.714,-0.005,-0.505,0.04796302278098439,1.3313765430176412,0.1622336662394612,0.05958064338746232
0.715,0.0025,-0.505,0.04789949399852803,1.3305990805704102,0.16198864967693788,0.05950740554825086
0.716,-0.0184,0.4949999999995559,0.04688892902921738,1.3305990805704102,0.15809112251817178,0.05950740554825086
0.717,-0.0318,-1.505,0.04673935628156386,1.3225408081264,0.1575142532778017,0.058748307197354924
0.718,-0.038,1.4950000000004442,0.04673944393653166,1.3154823880291293,0.1575145913437628,0.058083396064975465
0.719,-0.0323,3.495,0.046602793138549356,1.3154823880291293,0.15698755922551472,0.058083396064975465
0.72,-0.0693,3.494999999999778,0.046609216052792335,1.3228015917692368,0.15701233099522838,0.05877287331057503
0.721,-0.0835,2.495,0.046607786510489906,1.3300805198030803,0.1570068175645064,0.059458556539228824
0.722,-0.0179,-0.5050000000004441,0.046600070834063534,1.3370618778143526,0.15697705989495198,0.06011620833621047
0.723,0.1049,-2.505,0.04662873667132075,1.3440069720984535,0.15708761773401403,0.060770444049200865
0.724,0.0211,-0.504999999999778,0.046242175189828906,1.336803876070401,0.15559673499178414,0.06009190428100228
0.725,-0.0855,0.495,0.046353155959725126,1.34477668299686,0.15602476344904043,0.060842951683772246
0.726,-0.1268,1.494999999999778,0.04633964108355756,1.34477668299686,0.1559726395396332,0.060842951683772246
0.727,-0.039,0.495,0.046070678033269676,1.3516821383287003,0.1549353081210341,0.06149345336276202
0.728,0.1325,-0.5050000000004441,0.04576664813380815,1.35880636628228,0.1537627315661229,0.06216456366941204
0.729,0.1077,-2.505,0.045766743643778446,1.3509163619536424,0.1537630999271036,0.06142131636472671
0.73,0.0855,0.49500000000022204,0.045843617575466324,1.3440069720984535,0.15405958579951518,0.060770444049200865
0.731,0.0246,1.495,0.04612870652713897,1.3509163619536422,0.15515911127838294,0.06142131636472669
0.732,0.0062,2.494999999999556,0.04663702501403423,1.3588063662822798,0.1571195840516759,0.06216456366941202
0.733,-0.0438,0.495,0.046641111585403947,1.3588063662822798,0.1571353450600063,0.06216456366941202
0.734,-0.0286,1.494999999999334,0.047112119251037955,1.3663984056917104,0.15895191818943882,0.06287974234271682
0.735,0.0126,-1.505,0.048403697488869246,1.3663984056917104,0.16393325181220686,0.06287974234271682
0.736,0.0247,-0.505,0.04941037665122502,1.3661459442714214,0.16781579226690116,0.06285596019224501
0.737,0.0358,-0.505,0.04941762385900916,1.3658934361880721,0.16784374315578188,0.06283217364606031
0.738,0.0049,0.4950000000004441,0.04936562935310154,1.3661459442714212,0.1676432117648909,0.062855960192245
0.739,0.0332,2.495,0.04910193026785081,1.3661459442714214,0.1666261823034327,0.06285596019224501
0.74,-0.0266,3.49499999999889,0.04916804944476494,1.359060191116217,0.16688118944850905,0.0621884742549869
0.741,-0.0343,-1.505,0.049216712015653426,1.3588063662822798,0.1670688702977499,0.06216456366941202
0.742,0.015,-0.504999999999778,0.049342670626661235,1.3588063662822798,0.1675546649989241,0.06216456366941202
0.743,-0.0039,0.495,0.04935220932751632,1.358552494025041,0.16759145367334985,0.06214064861650867
0.744,0.0019,-0.505,0.04908108542127876,1.3514269277505364,0.16654578830789346,0.061469412238518394
0.745,0.0069,0.495,0.04869229581756945,1.3521924149809588,0.16504631218758367,0.06154152199880299
0.746,-0.0171,0.495,0.048450240992689,1.3521924149809588,0.16411275988512708,0.06154152199880299
0.747,-0.0477,1.495,0.04829612902649969,1.3514269277505364,0.16351838387571185,0.061469412238518394
0.748,-0.0835,1.495,0.048508830148124855,1.3282639628351247,0.16433872539101255,0.059287434824461215
0.749,-0.0595,0.495,0.04846006470678523,1.3201914372208603,0.16415064779303282,0.05852699380885516
0.75,-0.0198,-0.505,0.04723151347762442,1.3201914372208603,0.1594123955014894,0.05852699380885516
0.751,0.0282,-2.505,0.04676519798644676,1.3201914372208603,0.15761391905849725,0.05852699380885516
0.752,0.0861,1.495,0.047453268847311755,1.3128576819057254,0.16026765726318312,0.057836145788479364
0.753,0.0471,0.495,0.04781031589394627,1.3054827287124366,0.16164470931176592,0.05714141688152592
0.754,-0.0024,0.495,0.04807639965117421,1.3136456443887974,0.1626709359293478,0.0579103727429071
0.755,-0.0087,0.495,0.048008155062339256,1.3065391701272697,0.1624077315372497,0.0572409348540678
0.756,-0.0146,1.495,0.04799611520597406,1.3068031470364805,0.1623612964552945,0.05726580177658113
0.757,-0.0303,2.495,0.04797421441535395,1.3068031470364796,0.16227682991545533,0.05726580177658105
0.758,-0.0543,1.495,0.04794414845573836,1.2996592588673526,0.16216087211193475,0.056592839455457206
0.759,-0.0413,0.495,0.04797431765444118,1.307858521864972,0.16227722808594267,0.057365219275486934
0.76,0.0025,1.495,0.04799398626595387,1.2996592588673541,0.1623530856011683,0.05659283945545735
0.761,0.0554,-0.505,0.04812976402085478,1.298862811491985,0.1628767505839784,0.056517813214607485
0.762,0.1048,-1.505,0.04835056083680376,1.306011056240212,0.1637283154144091,0.05719118593039512
0.763,0.073,-1.505,0.04773556032452336,1.3133830427541227,0.16135639349740163,0.05788563537280585
0.764,0.0201,1.495,0.04743460625857378,1.3060110562402112,0.16019567975686924,0.05719118593039504
0.765,-0.0009,-1.505,0.04746919720664568,1.3057469191976205,0.16032908944714344,0.057166303923136756
0.766,-0.0071,0.495,0.047520964347849644,1.3054827287124418,0.1605287439423035,0.05714141688152641
0.767,-0.0013,-0.505,0.047565324678990106,1.312857681905732,0.16069983199764123,0.057836145788479995
0.768,0.0038,1.495,0.047848860646279495,1.30495418728448,0.1617933679567901,0.05709162768301847
0.769,0.0086,1.495,0.04775148584829546,1.2975343128175376,0.1614178147452227,0.056392667141432706
0.77,0.013,1.495,0.04784837265390511,1.2512653112036884,0.16179148587736902,0.052034075015550726
0.771,0.0012,1.495,0.047351037374401994,1.2112161669482735,0.15987337292299048,0.048261400466469574
0.772,-0.0169,1.495,0.047156713323320235,1.186770545274889,0.1591239077330292,0.045958595339461776
0.773,-0.0136,0.495,0.04754994591614984,1.1945897216521089,0.1606405194866613,0.04669517057125654
0.774,-0.0461,-1.505,0.046922736947577634,1.1765564818428755,0.15822151223480754,0.04499641904658263
0.775,-0.0244,0.495,0.04714591329958432,1.1853164206211275,0.15908225441324833,0.045821615157377225
0.776,0.0034,1.495,0.04636890157070271,1.193434185435664,0.1560854908127233,0.04658631775666155
0.777,0.0215,1.495,0.04474488158386946,1.193434185435667,0.14982200237082802,0.04658631775666182
0.778,-0.0012,0.495,0.044678283981238465,1.193434185435667,0.1495651500428277,0.04658631775666182
0.779,-0.0278,-0.505,0.042809493056341436,1.241581937230125,0.14235763384640712,0.051121890268073684
0.78,-0.0529,1.495,0.041944008467370245,1.2401920805738582,0.13901964985383933,0.05099096420382301
0.781,-0.069,-1.505,0.041168479254197206,1.2401920805738575,0.13602860399083036,0.050990964203822944
0.782,-0.0243,0.495,0.041096195862843646,1.257312946258202,0.1357498228243702,0.0526037690571209
0.783,0.0722,-1.505,0.0414175616367949,1.2424151049222159,0.13698926004009646,0.051200375604165294
0.784,0.1135,-0.505,0.04230096992468114,1.2509896150624393,0.140396371803197,0.05200810412816454
0.785,0.101,0.495,0.04221340040893738,1.2518165213308512,0.1400586354119147,0.05208599963108509
0.786,-0.0247,0.495,0.04229202337074845,1.2435251268266654,0.1403618669094109,0.05130494091924748
0.787,-0.0079,-0.505,0.04240679842442211,1.2509896150624453,0.1408045290859428,0.0520081041281651
0.788,-0.023,0.495,0.042904351662060844,1.2507138581492132,0.14272348265698512,0.051982127515989594
0.789,-0.0369,0.495,0.04330629595227777,1.2507138581492117,0.14427369351428415,0.05198212751598945
0.79,-0.0246,0.495,0.04319013203521202,1.227336441669221,0.1438256747966541,0.049779948522729024
0.791,-0.0359,0.495,0.04310915789297262,1.1864798629157307,0.14351337531258318,0.04593121273344979
0.792,-0.0258,0.495,0.04299421442363275,1.2264930309490318,0.1430700635938121,0.04970049828184031
0.793,0.0025,0.495,0.04300228400694699,1.2498862223753655,0.14310118620451237,0.051904163292834385
0.794,0.0109,-1.505,0.04300752050695391,1.2498862223753655,0.14312138223506324,0.051904163292834385
0.795,0.0341,-0.505,0.04313367344387838,1.2496102219717022,0.14360792640862255,0.0518781637435857
0.796,-0.001,1.495,0.04331706776419838,1.2573129462582386,0.1443152380272889,0.05260376905712435
0.797,-0.0455,0.495,0.04329311502927809,1.2649687675199643,0.14422285758890677,0.05332495605283704
0.798,-0.063,0.495,0.04312186935786422,1.2575872561600525,0.1435624006411343,0.05262960935919258
0.799,-0.0152,-0.505,0.04255412780543664,1.2584098270988482,0.1413727461538469,0.05270709646917468
0.8,0.0554,0.495,0.04258470551983716,1.2668760858876986,0.14149067768318768,0.05350462759380819
0.801,0.0836,0.495,0.04254764537685568,1.2668760858876986,0.1413477448504015,0.05350462759380819
0.802,0.0583,0.495,0.04248214899041153,1.2421374444526465,0.14109513967139825,0.051174219674836326
0.803,0.0507,-1.505,0.0417000530051937,1.2343400232265607,0.13807876721072634,0.05043969380280994
0.804,0.0156,-0.505,0.04144964513941772,1.2343400232265607,0.13711299906392793,0.05043969380280994
0.805,-0.0033,-0.505,0.04160351931911704,1.2343400232265607,0.137706457983071,0.05043969380280994
0.806,-0.009,0.495,0.04162899641802019,1.2343400232265598,0.13780471755857296,0.050439693802809854
0.807,-0.0141,-0.505,0.041665665929355125,1.2267742322832402,0.13794614381088416,0.04972698776461102
0.808,-0.0188,-1.505,0.041732243450734896,1.2115009141987934,0.1382029186899085,0.04828822397855528
0.809,-0.0406,0.495,0.04140448342137133,1.2123547546767388,0.13693882023528478,0.04836865671438544
0.81,-0.0446,1.495,0.04169405123226166,1.2126392345685053,0.1380556196905631,0.0483954550409751
0.811,-0.0483,1.495,0.04228137171097148,1.2049371922511478,0.14032078579683782,0.047669913969702105
0.812,-0.0321,1.495,0.04195185289052085,1.2126392345685024,0.13904990407123538,0.04839545504097483
0.8130000000000001,0.01250000000000069,0.495,0.04062142355001663,1.2037915887559998,0.1339187302774598,0.0475619968286536
0.8140000000000001,0.01869999999999544,0.495,0.03995955108350859,1.2029316701612374,0.13136603352643914,0.04748099152736547
0.8150000000000001,-0.022400000000000576,0.495,0.03990980727060476,1.1948784310985359,0.13117418256419422,0.04672236732666454
0.8160000000000001,-0.02760000000000371,1.495,0.039953154369727475,1.1940120933314293,0.13134136280615308,0.04664075733210321
0.8170000000000001,-0.06099999999999574,-0.505,0.04001501399163996,1.1943009424133,0.13157994178301924,0.04666796724132746
0.8180000000000001,-0.02260000000000242,0.495,0.040180263890358316,1.2183124209194096,0.13221727435222305,0.04892987559242939
0.8190000000000001,-0.04439999999999424,0.495,0.04131457884421765,1.2343400232265493,0.13659207802494192,0.050439693802808876
0.8200000000000001,0.007500000000007105,1.495,0.04415048592256548,1.3044254316963138,0.1475295488390523,0.05704181831037775
0.8210000000000001,0.0714999999999991,0.495,0.046553838615114564,1.3416951899745804,0.15679875237941782,0.060552671566319966
0.8220000000000001,0.06350000000000086,1.495,0.047588952080373344,1.3347380667592104,0.1607909576960167,0.05989730271443996
0.8230000000000001,0.07129999999999768,1.495,0.047559723332284046,1.3506610066802451,0.16067822883349492,0.06139726161002894
0.8240000000000001,0.05039999999999502,-1.505,0.0518107941564484,1.3585524940250495,0.17707367543434124,0.06214064861650946
0.8250000000000001,0.0054999999999954365,1.495,0.05291069723093619,1.3585524940250495,0.18131576004543828,0.06214064861650946
0.8260000000000001,-0.035599999999999424,1.495,0.052886510314497426,1.3663984056917189,0.18122247642036746,0.0628797423427176
0.8270000000000001,-0.03040000000000052,0.495,0.05288909165486657,1.3671555102327075,0.18123243208328899,0.06295106244420506
0.8280000000000001,-0.03510000000000337,3.495,0.05292119348707163,1.3827051881258106,0.18135624180029383,0.0644158596358651
0.8290000000000001,-0.06549999999999603,2.494999999999556,0.053145374525102464,1.3827051881258106,0.18222085883209296,0.0644158596358651
0.8300000000000001,-0.029699999999996292,0.495,0.0531592957123772,1.3827051881258106,0.18227454979421145,0.0644158596358651
0.8310000000000001,0.0037000000000053405,-2.504999999999778,0.05291412325090731,1.3827051881258108,0.18132897345208646,0.06441585963586512
0.8320000000000001,0.05180000000000495,-1.505,0.052543819222743884,1.3752031759861665,0.1799007921370821,0.06370916163289075
0.833,0.0964,-1.505,0.05251017323092301,1.3754539749733663,0.17977102693554842,0.06373278718029096
0.834,0.0085,-1.505,0.052011182750768756,1.3676600137515333,0.17784653023575325,0.06299858724456678
0.835,-0.0288,-0.5049999999995559,0.0507629615458664,1.3674077852591193,0.17303241516745316,0.06297482703616344
0.836,-0.0399,1.495,0.04974672794598481,1.3744505044415587,0.16911302534544997,0.06363825912466112
0.837,0.0743,0.495,0.04969743034447076,1.3747014407453166,0.16892289532254395,0.06366189760743594
0.838,0.059,0.495,0.04979435623298649,1.38220617608765,0.1692967171888761,0.06436885213917436
0.839,-0.0102,-0.5049999999995559,0.049749385708211746,1.382455704622191,0.16912327575069416,0.06439235800850152
0.84,0.0021,1.495,0.04961332593848105,1.3827051881258106,0.16859852309861817,0.0644158596358651
0.841,0.0134,3.494999999999778,0.04966934885175183,1.3829546266228794,0.16881459117203954,0.06443935702356085
0.842,-0.0173,2.495,0.04956821015054494,1.3906628719257652,0.16842452141232375,0.06516548242306523
0.843,-0.0078,0.495,0.04955038611481516,1.4115819137753316,0.16835577802080978,0.06713607975402697
0.844,-0.0331,0.495,0.04962227135467715,1.432195438912734,0.16863302360440413,0.06907789706619608
0.845,-0.0405,1.495,0.049847851535442855,1.431472734340286,0.1695030368224691,0.06900981748053525
0.846,0.009,1.495,0.050101141199479615,1.4718541847103186,0.1704799194322942,0.07281379564032844
0.847,0.028,-0.505000000000222,0.051411210834993844,1.485148100029651,0.17553257031507172,0.074066097453896
0.848,0.0457,-1.505,0.051210387798535525,1.5058998854852426,0.17475803996574038,0.07602093904394365
0.849,0.0615,-1.5049999999997778,0.052187271866530036,1.5461222180716647,0.17852566728471594,0.07980992812909633
0.85,0.0085,-0.505,0.05317784083646953,1.552798691151702,0.18234607426518323,0.08043885942176125
0.851,0.0155,0.495,0.05363755610199977,1.5596677528555971,0.18411909508731375,0.08108593277996039
0.852,-0.0291,0.495,0.05323519408889345,1.5658459813372558,0.1825672731645655,0.08166792886962741
0.853,0.0119,0.495,0.052944011640849116,1.5658459813372558,0.18144424640837095,0.08166792886962741
0.854,-0.0359,0.495,0.0527052697201033,1.5651849894460559,0.18052347124962234,0.08160566268812862
0.855,-0.017,0.49499999999977795,0.052723094066362476,1.571121996260017,0.18059221583878002,0.08216493542469211
0.856,-0.0228,-0.505,0.05272400796332681,1.5709024365327295,0.1805957405386726,0.08214425265080168
0.857,-0.0384,-1.505,0.05282873153545297,1.5709024365327293,0.1809996363582587,0.08214425265080166
0.858,0.0146,-1.505,0.05288283668712257,1.5706828461140305,0.18120830804633956,0.08212356698574566
0.859,0.064,-0.505,0.05285117324447423,1.5638621675268194,0.18108618910158122,0.08148105137169592
0.86,0.0702,-0.505,0.05270464906204709,1.5706828461140305,0.18052107750780083,0.08212356698574566
0.861,0.0173,1.494999999999778,0.05254255046662833,1.5645237182939944,0.17989589882337303,0.08154337019994176
0.862,-0.0037,0.495,0.05234798711859911,1.5583402475493149,0.17914551071763687,0.0809608802831869
0.863,0.0025,1.494999999999778,0.05229846700133718,1.5523543574800343,0.17895452250035748,0.08039700268885056
0.864,-0.0032,0.495,0.05228478141492581,1.552576540211414,0.1789017401990292,0.08041793255268424
0.865,-0.0187,1.494999999999556,0.05238243214609823,1.559446580447703,0.17927835762430716,0.08106509808973829
0.866,-0.0234,-0.505,0.05233860272335408,1.5662864876277336,0.1791093171660624,0.08170942505891418
0.867,-0.0365,2.495,0.05226659150760194,1.578785450685947,0.17883158572112504,0.08288684147308016
0.868,-0.0963,2.495,0.05193564500028643,1.5970265850056613,0.17755519772081582,0.08460517689506743
0.869,-0.156,4.494999999999778,0.05198861479811104,1.5970265850056613,0.177759490598449,0.08460517689506743
0.87,-0.1483,3.495,0.052000737948712406,1.6152752673026525,0.17780624692798105,0.0863242233450254
0.871,-0.0988,-0.505,0.052000099733996955,1.6092868144576498,0.17780378547398043,0.08576010433432621
0.872,-0.0023,-2.505,0.051591137154878786,1.6092868144576495,0.1762265066176597,0.08576010433432618
0.873,0.2059,-1.505,0.051258799658903495,1.603491121036359,0.17494475387956154,0.08521414347870007
0.874,0.1167,-1.505,0.05076048513115249,1.604136328784191,0.1730228641797414,0.0852749227760951
0.875,-0.0184,-1.505,0.050508916263722003,1.6034911210363587,0.17205261830452645,0.08521414347870004
0.876,0.0062,-1.505,0.050613039655838375,1.597674403405659,0.17245419936161896,0.08466620211884027
0.877,0.0283,-2.505,0.05069665101478879,1.5916197288690608,0.1727766700113911,0.08409584495011986
0.878,0.0487,0.495,0.050935167158353556,1.5916197288690608,0.17369657439713482,0.08409584495011986
0.879,0.0302,-0.505,0.05161288313976373,1.5728773707294594,0.17631037610577485,0.08233029367910918
0.88,0.0137,1.495,0.05125669543634959,1.560994129221253,0.17493663835527468,0.08121087892925385
0.881,0.029,-0.505,0.052488782783148086,1.5678272849770178,0.17968852867598792,0.08185456990665085
0.882,0.0152,-0.505,0.053368516351989685,1.5481287644970714,0.18308146785472995,0.07999894706499176
0.883,0.0028,0.495,0.05368655174615361,1.5414320644892638,0.18430806052699358,0.0793681103729226
0.884,-0.0085,0.495,0.05317034751183409,1.5347061436666107,0.18231717415765625,0.078734521047145
0.885,0.0014,1.495,0.05318742960255329,1.5279506161458378,0.18238305603020127,0.0780981427370194
0.886,0.0107,-0.505,0.05317015158654488,1.527724851978541,0.18231641851684247,0.07807687549788381
0.887,-0.0321,-1.505,0.053036795054887786,1.5213918250669187,0.18180209166036443,0.0774802972215604
0.888,-0.0089,-0.505,0.05251305659107648,1.5277248519785411,0.17978214742245222,0.07807687549788384
0.889,-0.0021,-0.505,0.052194257541764495,1.5340317341324008,0.17855260949998708,0.07867099090854465
0.89,-0.0341,-0.505,0.05220797654570715,1.5340317341324023,0.17860552068539476,0.0786709909085448
0.891,-0.0168,-1.505,0.05221259276277615,1.5277248519785427,0.178623324420873,0.07807687549788397
0.892,-0.0221,2.495,0.05229091511074826,1.488859520392456,0.17892539651680944,0.07441571743714454
0.893,-0.0269,2.495,0.052263762984460324,1.4690413185198172,0.17882067672853333,0.07254882047333869
0.894,-0.0487,1.495,0.05237833122698428,1.4690413185198172,0.17926254127987812,0.07254882047333869
0.895,-0.0609,3.495,0.0522770384852618,1.4690413185198172,0.17887187741972221,0.07254882047333869
0.896,-0.1154,2.495,0.05213005585797266,1.4626900285342865,0.1783049977047871,0.07195052179485929
0.897,0.0015,-2.505,0.05212386660931861,1.4633973164033123,0.1782811271319352,0.07201714910967355
0.898,0.1185,-3.505,0.05205534323110663,1.4633973164033114,0.1780168475104342,0.07201714910967347
0.899,0.1032,-1.505,0.05185574594914735,1.456074167616892,0.17724704462702054,0.07132730023626281
0.9,0.0893,-1.505,0.05151195696222466,1.448952076355059,0.17592112600317403,0.0706563912083847
0.901,0.0519,1.495,0.05160181387452453,1.4489520763550587,0.17626768438064333,0.07065639120838467
0.902,0.0177,0.495,0.05162921998450935,1.4563110394516776,0.17637338372826156,0.07134961383020107
0.903,0.0074,1.495,0.051675398349129285,1.4565478727650596,0.17655148353947545,0.07137192379537965
0.904,-0.0209,1.495,0.05184202880048261,1.463868651796195,0.17719414059701233,0.07206154943517037
0.905,0.0044,0.495,0.051726688991170694,1.463868651796194,0.1767493002820084,0.07206154943517029
0.906,-0.0345,0.495,0.051811172869693584,1.4641042625917062,0.17707513604815955,0.07208374423778702
0.907,-0.0278,0.495,0.05201664415517651,1.4638686517961956,0.17786759367318744,0.07206154943517044
0.908,0.0039,0.495,0.05188002696568788,1.463161591769285,0.17734069117551876,0.07199494358334034
0.909,0.0097,-1.505,0.05268875258487627,1.4558372572419094,0.18045976828634203,0.07130498301179454
0.91,-0.0167,0.495,0.05332807021583947,1.4955609888811847,0.18292547598988215,0.07504700332549352
0.911,0.0168,0.495,0.0536961665912826,1.49533033455343,0.18434514287316192,0.07502527542772855
0.912,-0.0226,-0.505,0.05367694840750567,1.4888595203924624,0.18427102255879574,0.07441571743714515
0.913,0.0038,-0.505,0.055341923597202566,1.49602219085095,0.19069246622405756,0.07509044907110603
0.914,0.037,-1.505,0.05737692249635791,1.5302064258316441,0.19854101007663877,0.07831064255311875
0.915,0.0062,-1.505,0.05786776334396558,1.5371764471626708,0.20043407543342392,0.07896722642203778
0.916,0.002,2.495,0.05784097649822001,1.551022526535976,0.20033076445198128,0.0802715427121209
0.917,-0.0163,2.495,0.057878756378243953,1.557677996201285,0.20047647315248046,0.08089849545943453
0.918,-0.0326,0.495,0.05792034441006698,1.5781317790397664,0.20063686905816916,0.08282526486691666
0.919,-0.0458,2.495,0.057193538756794796,1.5596696759564195,0.19783373926562808,0.08108611393822639
0.92,-0.0072,0.495,0.055065141186646495,1.4953323403966072,0.1896249772500959,0.07502546438041768
0.921,0.0297,0.495,0.053035063537505145,1.4626920791383062,0.18179541357807416,0.07195071496407025
0.922,0.0249,-0.505,0.05210872829005992,1.4823624834335078,0.17822274195904617,0.073803689229422
0.923,0.0032,-1.505,0.05214116957517504,1.4615125070405541,0.17834786087137866,0.07183959794235277
0.924,-0.0005,1.495,0.048047082011940336,1.4541798665160979,0.16255786423320254,0.07114885493651596
0.925,-0.033,-0.505,0.04693008589218353,1.454179866516093,0.15824985550026754,0.0711488549365155
0.926,-0.046,0.495,0.04705972682753563,1.4468100635970063,0.15874985211777085,0.07045461119119943
0.927,-0.0579,0.495,0.0471688572356964,1.439402527464219,0.15917074413616722,0.06975681293460406
0.928,-0.0905,2.495,0.04750937780948225,1.417920982288926,0.16048405720831366,0.0677332271560688
0.929,-0.0249,-1.505,0.04728669880868455,1.4181642267533001,0.15962523320426378,0.0677561410589002
0.93,0.1168,-1.505,0.04726472430711225,1.4179209822889252,0.15954048237746954,0.06773322715606872
0.931,0.0965,-0.505,0.04750769137110549,1.4179209822889274,0.1604775529858494,0.06773322715606893
0.932,0.078,-0.505,0.048443605133644055,1.4382038540945485,0.16408716683407656,0.06964389655153289
0.933,0.0615,-0.505,0.04859299607069591,1.4379639995162679,0.16466333487088303,0.06962130197979399
0.934,0.0159,-0.505,0.04868085786523892,1.444662798675603,0.1650021985173074,0.07025233641430412
0.935,-0.0254,0.495,0.0486736871195981,1.4446627986756018,0.16497454252612184,0.07025233641430399
0.936,-0.0131,0.495,0.04996062768657262,1.445378908092963,0.1699379896708636,0.07031979472891882
0.937,-0.002,1.495,0.05088932642068848,1.4453789080929635,0.17351977673894034,0.07031979472891886
0.9380000000000001,-0.012399999999996891,1.495,0.05264767520735503,1.4453789080929635,0.18030134186215166,0.07031979472891886
0.9390000000000001,0.015599999999999066,-0.505,0.05270092671258087,1.4664582885357371,0.1805067212233663,0.07230549613616175
0.9400000000000001,0.007199999999995681,0.495,0.05294504443169463,1.4662230560141825,0.18144822965585325,0.07228333696737838
0.9410000000000001,-0.03169999999999609,-0.505,0.052965169536057344,1.4659877857471975,0.18152584776375202,0.07226117424293291
0.9420000000000001,0.0035000000000035415,0.495,0.05299693019485258,1.4659877857471975,0.18164834164983953,0.07226117424293291
0.9430000000000001,0.03539999999999545,0.495,0.05296892944965648,1.445856117328124,0.18154034892479784,0.07036474837698171
0.9440000000000001,-0.005599999999998279,0.495,0.05290227585276472,1.4256821167770677,0.18128328063923055,0.06846433477646319
0.9450000000000001,0.009899999999998424,-0.505,0.05269518934764365,1.4264077552301508,0.18048459346677306,0.06853269073698814
0.9460000000000001,-0.004300000000000488,-1.505,0.05234548387801577,1.3847016040617186,0.1791358562684379,0.06460392426822642
0.9470000000000001,-0.008699999999999555,-0.505,0.051059860290383854,1.3636231584913325,0.1741774884238017,0.06261831092701663
0.9480000000000001,-0.004700000000001199,0.495,0.051067861215546,1.3406709261750602,0.17420834623508719,0.06045618476142469
0.9490000000000001,-0.015500000000001799,-0.505,0.04967305990981361,1.2940784690971083,0.16882890390800684,0.05606712276608934
0.9500000000000001,-0.031699999999999035,-0.505,0.048588471433755144,1.2857913361527702,0.1646458843398477,0.0552864654979948
0.9510000000000001,-0.023000000000001488,-1.505,0.04779568918008457,1.2774504436847394,0.16158829728854054,0.054500744022148086
0.9520000000000001,-0.036400000000000765,-0.505,0.04804907297229981,1.2774504436847394,0.16256554293007877,0.054500744022148086
0.9530000000000001,-0.043299999999996244,-1.505,0.04845178479653869,1.3228038592276459,0.16411871399754407,0.05877308690771399
0.9540000000000001,-0.00949999999999517,0.49499999999977795,0.048664143695165994,1.315746850287981,0.16493773563389683,0.058108308707972255
0.9550000000000001,0.03400000000000193,-0.505,0.04862442961422806,1.3086517864191114,0.16478456714523784,0.05743994569098793
0.9560000000000001,0.051399999999993506,0.49500000000022204,0.049133343749092374,1.316008980239245,0.16674733720193854,0.05813300164496433
0.9570000000000001,-0.00710000000000956,1.495,0.049092378456289616,1.3233252714441535,0.1665893430638927,0.05882220452646392
0.9580000000000001,-0.09320000000000125,0.49500000000066613,0.04901635818424435,1.3233252714441537,0.16629614956925245,0.05882220452646394
0.9590000000000001,-0.10439999999999888,3.495,0.04902841304695561,1.3233252714441537,0.16634264252738892,0.05882220452646394
0.96,-0.0943,0.495,0.049024137670388476,1.3152224336543052,0.16632615333887515,0.05805890806973725
0.961,0.0097,0.495,0.04905878972101013,1.3152224336543052,0.1664597986882652,0.05805890806973725
0.962,0.1347,-1.505000000000444,0.04903862098499962,1.3225430760319148,0.1663820123026827,0.058748520836611744
0.963,0.1514,-3.505,0.04898895409636112,1.3222822414039919,0.166190458020436,0.05872394992053903
0.964,0.0752,-1.505000000000222,0.048987420975157576,1.3222822414039919,0.16618454510863917,0.05872394992053903
0.965,0.006,-2.505,0.04884841387550303,1.3144354164068959,0.1656484252523033,0.0579847701575748
0.966,-0.0314,-1.505000000000444,0.0488443874843602,1.350663227368983,0.16563289634589196,0.061397470801412134
0.967,-0.0426,-3.505,0.048853137073474454,1.328785489769506,0.16566664158962835,0.05933656324976419
0.968,0.0298,-0.505,0.04895308173422592,1.313910476345166,0.16605210619752805,0.05793532021182686
0.969,0.0204,-0.505,0.04889798878480197,1.3212383879610772,0.16583962479043668,0.05862561774914632
0.97,-0.0051,-1.5049999999991117,0.04868375550581557,1.2991306569798011,0.1650133740806673,0.056543044561587735
0.971,0.0025,2.495,0.049203400853487234,1.3073332352388043,0.1670175320685088,0.05731573668297816
0.972,-0.0186,-0.504999999999778,0.05026051465527716,1.3154846681034136,0.17109458785166465,0.0580836108505441
0.973,-0.0376,0.495,0.05020914269411495,1.3154846681034136,0.1708964574791411,0.0580836108505441
0.974,-0.0551,-1.5049999999995558,0.05055033196397108,1.3154846681034136,0.1722123495651798,0.0580836108505441
0.975,-0.0395,0.495,0.05076212770893377,1.3154846681034136,0.17302919924152102,0.0580836108505441
0.976,0.0326,0.49499999999977795,0.05077618070921174,1.3154846681034136,0.17308339857744587,0.0580836108505441
0.977,0.0634,-0.505,0.050769897460231146,1.3235859005256658,0.17305916546597766,0.05884675607983298
0.978,0.0163,-0.504999999999778,0.05103411908574339,1.3238464782964572,0.1740782102504706,0.058871302799674265
0.979,-0.0267,0.495,0.050596624179329794,1.301518045266035,0.17239088847369066,0.056767939230218056
0.98,-0.05,1.4950000000002222,0.05055801843678566,1.2932785848756376,0.1722419946028169,0.05599177277046125
0.981,-0.0992,2.495,0.04927235128365406,1.2924782056248176,0.16728345873561573,0.05591637614251026
0.982,-0.0411,0.49500000000022204,0.048344189144045126,1.2924782056248176,0.16370374119471195,0.05591637614251026
0.983,0.0293,1.495,0.0477123144616749,1.2922113023757198,0.16126673930936597,0.05589123355547977
0.984,0.001,0.4949999999995559,0.047338119153120334,1.2922113023757198,0.1598235501804482,0.05589123355547977
0.985,0.1126,-1.505,0.047374673143241036,1.3001922596351465,0.15996453089280543,0.05664304872880579
0.986,0.0973,-0.505000000000222,0.047420678935479924,1.3447789134026322,0.16014196513024387,0.060843161790511045
0.987,0.1386,-1.505,0.04793935383201199,1.3519395193220627,0.1621423803011585,0.06151769894256474
0.988,0.0252,-2.5049999999993338,0.048204476995394624,1.3447789134026322,0.16316490211923287,0.060843161790511045
0.989,-0.0509,0.495,0.04822431137464275,1.3378378264900248,0.16324139896421017,0.060189303576434136
0.99,-0.0371,0.4949999999995559,0.04869840636061511,1.3378378264900248,0.16506987921018834,0.060189303576434136
0.991,-0.0249,-1.505,0.049849935347091374,1.3378378264900248,0.16951107362637632,0.060189303576434136
0.992,-0.0138,0.49499999999977795,0.04999891049622833,1.3605843502123427,0.17008563806050528,0.06233205176051441
0.993,-0.0038,-0.505,0.05064433808634458,1.3684186121570883,0.17257491053470453,0.06307004806978088
0.994,-0.0134,-1.5049999999997778,0.05079173889769837,1.376208277170691,0.17314340309374054,0.06380384329784529
0.995,-0.0052,-0.505,0.05079401552070355,1.383954098302509,0.17315218352870754,0.06453350838280633
0.996,0.0023,-0.504999999999778,0.0508061431504464,1.3837048399787852,0.17319895713330466,0.06451002796764287
0.997,0.0091,0.495,0.05093053601171235,1.3837048399787852,0.17367871308157523,0.06451002796764287
0.998,0.0029,0.495,0.050924669580328596,1.4057093612251093,0.1736560875440417,0.06658287868178758
0.999,-0.003,0.495,0.050931475993835434,1.4059547184257035,0.17368233838619662,0.06660599160675328
1.0,-0.0187,0.495,0.050911740549649816,1.4059547184257035,0.17360622311202853,0.06660599160675328
1.0010000000000001,-0.07169999999999849,1.495,0.05081976275822877,1.4057093612251093,0.17325148496955028,0.06658287868178758
1.002,-0.0649,3.495,0.05076925529849047,1.3980840762202806,0.17305668878916752,0.0658645682359079
1.0030000000000001,-0.046099999999988255,-0.505,0.05073655101126122,1.40472750386882,0.17293055553543815,0.06649038661166302
1.004,0.0068,-0.505,0.05055580407861012,1.3970968599457725,0.17223345430962397,0.06577157134964429
1.0050000000000001,0.07059999999999052,1.495,0.05062970746256066,1.3970968599457732,0.17251848343176782,0.06577157134964436
1.006,0.0279,1.495,0.05053984664935333,1.404481932278922,0.1721719100093551,0.06646725349098316
1.0070000000000001,0.00470000000000151,0.495,0.05028711331988362,1.404481932278921,0.1711971730597798,0.06646725349098308
1.008,0.0115,0.495,0.05030789867810166,1.397590555250545,0.17127733762180172,0.06581807800405462
1.0090000000000001,-0.007400000000003886,0.495,0.049449260216840686,1.405218518302655,0.16796575764034977,0.06653664072500805
1.01,-0.0249,0.495,0.048339415049528246,1.362610975393745,0.16368532856058834,0.06252296213786585
1.0110000000000001,-0.009399999999998935,1.495,0.047422588361061134,1.3696783594099378,0.160149329365386,0.06318871768151565
1.012,-0.0046,0.495,0.047416212382482475,1.37746090045819,0.1601247386162222,0.06392184182401092
1.0130000000000001,-0.00010000000000084377,-0.505,0.045460942055235876,1.3696783594099327,0.15258369035648342,0.06318871768151517
1.014,-0.0039,-0.505,0.042863353887426126,1.3241070047868135,0.14256536324364666,0.058895844688840744
1.0150000000000001,-0.00029999999999784615,3.495,0.0423880126870335,1.3380956288752763,0.1407320766223278,0.06021358885182799
1.016,0.0094,0.495,0.042384847825549465,1.3220213553134244,0.14071987044661188,0.05869937415662716
1.0170000000000001,-0.03529999999998712,1.495,0.042320204817709255,1.322021355313419,0.14047055656147553,0.05869937415662666
1.018,0.0227,1.495,0.042106129615885834,1.2750179911757895,0.1396449155206088,0.05427160425292261
1.0190000000000001,-0.0004999999999839906,-0.505,0.042001095199535356,1.2747474321583672,0.1392398208431133,0.05424611728839363
1.02,0.0716,-1.505,0.04195638489447514,1.297270761911933,0.13906738301522403,0.05636784034893945
1.0210000000000001,0.1066999999999786,-1.505,0.042171376017258275,1.2890041526916838,0.13989655656208907,0.05558911643879705
1.022,0.0103,-0.505,0.042692075941214075,1.2663337994933204,0.1419047818190654,0.053453543603964704
1.0230000000000001,-0.05879999999999724,-1.505,0.042983911127733095,1.2660613846538393,0.14303032604421043,0.053427881818905135
1.024,-0.0464,1.495,0.04285524440841941,1.2663337994933213,0.14253408676402193,0.05345354360396479
1.025,-0.0351,-0.505,0.04253017408685806,1.2655163790549775,0.14128036192171076,0.053376541676933065
1.026,-0.0453,-1.505,0.04311995482603367,1.2655163790549775,0.14355501671230983,0.053376541676933065
1.027,0.0776,-0.505,0.043022743828151216,1.2655163790549782,0.14318009524176245,0.05337654167693313
1.028,0.061,0.495,0.04256418810594419,1.2655163790549782,0.1414115465235849,0.05337654167693313
1.029,-0.0151,0.495,0.04253342415096653,1.2655163790549793,0.14129289670523798,0.05337654167693323
1.03,-0.0288,1.495,0.042515699640213435,1.2657889111870195,0.14122453715970262,0.053402214511084144
1.031,-0.0164,-0.505,0.042224319482839105,1.2581380805426756,0.14010074788204077,0.052681497637156335
1.032,-0.0052,0.495,0.04132492961274736,1.2346218667133664,0.13663199866605236,0.05046624377707942
1.033,-0.0154,-0.505,0.041150849863777074,1.242417519088974,0.1359606113035301,0.05120060302139616
1.034,-0.0246,-1.505,0.0410572684571367,1.23490121701875,0.13559968836931716,0.0504925588908476
1.035,-0.0329,3.495,0.041828805267303606,1.2435275388384381,0.138575336410694,0.051305168133476305
1.036,-0.0716,1.495,0.04061401197254862,1.2435275388384384,0.13389014545080527,0.051305168133476325
1.037,-0.0506,0.495,0.03944007504196919,1.2518189173667156,0.12936252851516883,0.05208622534036533
1.038,-0.0186,-0.505,0.03692200796416147,1.2509920126820921,0.11965089678302497,0.052008329986639436
1.039,0.0695,-0.505,0.03688709783654257,1.2259328814056836,0.11951625608733227,0.049647731563221005
1.04,0.1067,0.495,0.036559937895300675,1.2259328814056836,0.11825447204080984,0.049647731563221005
1.041,0.0498,-2.505,0.036422751559894335,1.2259328814056853,0.11772537447232542,0.04964773156322117
1.042,0.0806,-1.505,0.03636510960248496,1.2410285982205518,0.11750306210121608,0.051069765109415674
1.043,0.0524,-1.505,0.03638741018423874,1.2487842566166751,0.11758907054766057,0.051800356875766985
1.044,-0.0074,-1.505,0.03652441293261275,1.2485080126078758,0.11811746006127845,0.051774334378639784
1.045,-0.015,0.495,0.03655389706504487,1.2476789136085016,0.11823117388512613,0.05169623231799002
1.046,-0.0359,-1.505,0.036927197484201486,1.2476789136085016,0.11967091162216066,0.05169623231799002
1.047,-0.0039,-2.505,0.03695010521507271,1.2476789136085025,0.11975926170941649,0.0516962323179901
1.048,-0.0096,-0.505,0.03710017741126361,1.2479553411444209,0.12033805721311253,0.05172227210357887
1.049,0.006,-0.505,0.03713208731297475,1.2482317074639957,0.12046112669635174,0.05174830612251904
1.05,-0.0081,0.495,0.037131336180842044,1.2485080126078794,0.12045822974467031,0.05177433437864012
1.051,-0.0036,0.495,0.03708613572627111,1.248784256616679,0.12028390151775882,0.05180035687576734
1.052,-0.0315,1.495,0.036818993984849925,1.24130650672139,0.11925359448748507,0.05109594440356985
1.053,-0.0062,0.495,0.036249995335002026,1.1931476403778531,0.1170590916515158,0.046559324889101784
1.054,-0.029,0.495,0.036776564338218604,1.1928585120254809,0.11908995265830587,0.04653208867228137
1.055,0.0158,-1.505,0.03782073935283389,1.2014996012230763,0.12311710638078663,0.04734608901856094
1.056,0.01,0.495,0.0371894823494569,1.1934366986844365,0.12068248674767047,0.046586554507529895
1.057,0.016,0.495,0.0371037653641677,1.1856099180683313,0.12035189515952145,0.04584926294785745
1.058,-0.0104,-1.505,0.03715715132193503,1.1945922324698015,0.12055779307466175,0.046695407093114434
1.059,-0.0056,0.495,0.03863527916349049,1.2035075097116594,0.12625860755126145,0.047535236262343496
1.06,-0.01,1.495,0.03872102487882412,1.203794080380841,0.12658930994488254,0.04756223154252324
1.061,-0.006,-1.505,0.03921321941290596,1.2040805828463266,0.12848759617311858,0.04758922039783794
1.062,-0.0022,0.495,0.03957674049694312,1.1963234403967593,0.1298896171622148,0.04685848883197876
1.063,0.0013,0.495,0.03965478967553866,1.22198991817671,0.13019063570385594,0.049276299980887
1.064,0.0401,2.495,0.04084242084220767,1.24685166887674,0.13477106830072996,0.05161830493144026
1.065,0.0031,1.495,0.042220957908161126,1.24685166887674,0.14008778302673555,0.05161830493144026
1.066,-0.0209,-1.505,0.042240580453784426,1.1986278280865563,0.14016346287594217,0.04707556475083158
1.067,0.0009,-0.505,0.0422299674149824,1.1989155651216978,0.140122530715988,0.04710266990399998
1.068,-0.0031,0.495,0.04221852045354268,1.1989155651216978,0.14007838229955602,0.04710266990399998
1.069,-0.0067,2.495,0.04222374341503206,1.1908351667290795,0.14009852611501794,0.046341487263795486
1.07,-0.0429,0.495,0.04254423659118393,1.1986278280865523,0.14133459791266118,0.047075564750831196
1.071,-0.0666,-0.505,0.042021819455825365,1.1899658853244015,0.13931974974841727,0.04625959997525561
1.072,-0.0534,0.495,0.04068481465696225,1.18094838336851,0.1341632158557728,0.04541014112269394
1.073,-0.0175,-0.505,0.04067415586031399,1.1896759837066107,0.13412210721785447,0.04623229091596081
1.074,0.0158,1.495,0.04139279686242148,1.2066560438815555,0.13689374774387372,0.047831831731498194
1.075,0.0812,0.495,0.04127284592123519,1.1986278280865486,0.13643112330587046,0.04707556475083084
1.076,0.0151,0.495,0.04112396923730662,1.1986278280865486,0.13585693863042655,0.04707556475083084
1.077,-0.0103,-0.505,0.040887210632194644,1.1977642022454558,0.13494381268452624,0.04699421022275802
1.078,-0.0026,-0.505,0.04014268011663793,1.1974761885537009,0.13207232199067023,0.04696707900822467
1.079,-0.0237,-0.505,0.039682660773276014,1.1974761885537009,0.1302981284071208,0.04696707900822467
1.08,-0.0049,0.495,0.039773830898660455,1.2055120738198783,0.13064975155906555,0.04772406846172454
1.081,0.048,0.495,0.03974204949144612,1.2055120738198783,0.13052717765088212,0.04772406846172454
1.082,-0.0158,1.495,0.03982261150003566,1.2052259116439163,0.13083788762597323,0.047697111662066694
1.083,0.0096,-0.505,0.039980139657918905,1.2052259116439163,0.13144543913652992,0.047697111662066694
1.084,0.0799,-1.505,0.040433975170770575,1.2129261206036912,0.13319578304381824,0.04842248002898808
1.085,0.0517,-1.505,0.04091227747254488,1.2281817153549965,0.13504048998288554,0.049859574257076704
1.086,0.0091,-1.505,0.04087249723951281,1.1791946031148233,0.13488706636012698,0.04524493304519875
1.087,0.0015,1.495,0.04057993869334007,1.1712726565878309,0.1337587322956529,0.04449867674940972
1.088,-0.0196,0.495,0.0411802400248761,1.1715671120759192,0.1360739627005829,0.044526414788421585
1.089,-0.0135,0.495,0.041162287541595365,1.1715671120759192,0.13600472391507293,0.044526414788421585
1.09,-0.0193,0.495,0.040572594461727944,1.1715671120759192,0.13373040720717488,0.044526414788421585
1.091,-0.0141,2.495,0.03916353705901846,1.1963234403967515,0.1282959822448028,0.04685848883197803
1.092,-0.0188,1.494999999999556,0.03885836607601107,1.1791946031148233,0.12711900478124594,0.04524493304519875
1.093,-0.0319,0.495,0.03805067103911307,1.1783167341306588,0.12400390239999289,0.04516223679698772
1.094,-0.0199,1.495,0.03790703282443236,1.1695043667745526,0.1234499213500297,0.04433210185503973
1.095,-0.0527,-0.505,0.03794115206442874,1.1603278587750783,0.12358151176584735,0.04346766445387415
1.096,-0.0133,-0.505,0.037952268446089746,1.1686192184890523,0.12362438520867065,0.04424871988843458
1.097,0.0345,-0.505,0.03810340829499846,1.1594357048869826,0.12420729841443451,0.043383622551604856
1.098,0.0156,-0.505,0.03823416398171955,1.157947254251592,0.12471159438315998,0.04324340882334418
1.099,-0.0018,-0.505,0.03825629483393823,1.1576493344710248,0.12479694822006152,0.043215344444074405
1.1,0.0033,-0.505,0.03842880645514481,1.1576493344710248,0.12546228765817213,0.043215344444074405
1.101,0.0561,-0.505,0.0393728288926397,1.1668469075488848,0.12910317488497827,0.044081766199377315
1.102,0.0066,-0.505,0.039941904536870534,1.1671424795987808,0.13129797467137397,0.04410960941977052
1.103,-0.0773,0.495,0.03981913626282647,1.1588405540502908,0.1308244843992463,0.04332755867168444
1.104,-0.0886,-1.5049999999991117,0.03987808874366618,1.1588405540502908,0.1310518511714254,0.04332755867168444
1.105,-0.0162,0.495,0.03980179987067791,1.1588405540502908,0.1307576217419348,0.04332755867168444
1.106,0.012,-0.505,0.04008725683166694,1.157947254251592,0.13185856655191816,0.04324340882334418
1.107,0.0204,-1.505,0.040469864010662014,1.157947254251592,0.13333419841781335,0.04324340882334418
1.108,0.1064,-1.5049999999995558,0.04091082556427351,1.1582450974022709,0.13503489029153312,0.043271465983992057
1.109,0.0267,-0.505,0.04097306647719665,1.1492788363268511,0.13527493982409294,0.04242683408015108
1.11,-0.0668,-0.505,0.041017761473157346,1.1576493344710248,0.13544731860814735,0.043215344444074405
1.111,-0.0544,-0.505,0.04125935780860785,1.149578925370675,0.13637910261756042,0.04245510280646573
1.112,0.0252,-2.505,0.04162111291030198,1.1405445382048003,0.13777431260058295,0.04160405334808355
1.113,0.0977,-2.505,0.0417269442670382,1.1405445382048003,0.13818248090213198,0.04160405334808355
1.114,0.107,-0.505,0.04178613463304031,1.1408469247258353,0.138410765145141,0.04163253849934217
1.115,0.0128,0.495,0.04198779301425169,1.115168727923797,0.13918851723573675,0.03921362340533867
1.116,0.0003,-0.5049999999991118,0.042163429695879114,1.106476910634277,0.13986590934560314,0.0383948444155978
1.117,-0.0339,1.495,0.042164180807071995,1.096773189730486,0.13986880621652428,0.037480742964349695
1.118,-0.0238,0.495,0.042194506551012874,1.1061651286038534,0.13998576595113688,0.038365474196760195
1.119,-0.0522,1.495,0.04222877506643264,1.106476910634277,0.1401179320894805,0.0383948444155978
1.12,-0.0269,-0.5049999999995559,0.042226002957122734,1.0885683330845008,0.1401072406726488,0.036707836216336415
1.121,-0.0186,0.495,0.042079230116515265,1.0974020018966497,0.13954117005887412,0.03753997777946357
1.122,0.0045,-1.505,0.04157238345833449,1.1058532586702385,0.137586373805708,0.03833609569734286
1.123,0.0966,-2.505,0.04124189889148231,1.1145499395199798,0.13631176740832016,0.03915533283994084
1.124,0.0339,0.4949999999995559,0.041371974485459595,1.1228721403743176,0.1368134404086864,0.039939293544700626
1.125,-0.0001,-0.505,0.04138479359006139,1.1145499395199798,0.13686288087996124,0.03915533283994084
1.1260000000000001,0.010099999999997913,1.495,0.04058080467460542,1.1148593766532104,0.1337620721952172,0.0391844821668187
1.127,0.0007,0.495,0.040572538388986945,1.115168727923797,0.13373019094692687,0.03921362340533867
1.1280000000000001,-0.0077000000000051515,0.495,0.04056246541791966,1.1234863451257386,0.13369134170962252,0.03999715232487412
1.129,-0.0309,1.495,0.04059865976094787,1.1234863451257386,0.1338309353421253,0.03999715232487412
1.1300000000000001,-0.024000000000001378,1.495,0.040539041723248924,1.1317428345824865,0.13360100166330158,0.040774922941883444
1.131,-0.0302,0.495,0.040538753651667175,1.1317428345824865,0.13359989063447353,0.040774922941883444
1.1320000000000001,-0.035900000000005886,0.495,0.04025951997540898,1.1411492311192215,0.13252294766701564,0.041661016102485925
1.133,-0.0624,1.495,0.04022890720669747,1.1326568013796523,0.13240488094089556,0.04086101964478382
1.1340000000000001,-0.06709999999999121,2.495,0.04021734437904005,1.1326568013796523,0.13236028565390706,0.04086101964478382
1.135,-0.0275,0.495,0.03941696009652996,1.1317428345824865,0.1292733792468301,0.040774922941883444
1.1360000000000001,0.052200000000007574,-0.505,0.03918606003593443,1.1225649119766778,0.12838284842054815,0.03991035228320604
1.137,0.0863,-0.505,0.03955707676428654,1.1216427218675395,0.12981377846366582,0.039823480935045084
1.1380000000000001,0.013899999999997912,-0.505,0.03968537589198504,1.1225649119766778,0.1303086000237205,0.03991035228320604
1.139,0.0045,-0.505,0.0396579034213778,1.1498789360989228,0.1302026447377549,0.04248336415536481
1.1400000000000001,0.012799999999994848,2.495,0.0398884136760409,1.1591381676656065,0.13109167216815987,0.04335559420984227
1.141,-0.0104,-1.505,0.03987249525580886,1.1683240200365517,0.1310302783171328,0.04422091186133731
1.1420000000000001,-0.01729999999998712,1.495,0.03997710283462116,1.152276209901405,0.13143372677598034,0.04270919005077282
1.143,0.0407,-0.505,0.04001728927491095,1.1441679019968831,0.1315887170509257,0.04194537830307568
1.1440000000000001,0.017599999999992184,0.495,0.04020988313064102,1.1534729784503572,0.13233150925737974,0.04282192699758442
1.145,-0.0176,1.495,0.040220239566491,1.1543697406368214,0.13237145175609988,0.04290640300675643
1.1460000000000001,-0.049399999999996114,0.495,0.03999733299372301,1.1540708973327105,0.13151175005693713,0.04287825163052746
1.147,-0.0319,2.495,0.04004171570625746,1.1537719766239485,0.13168292443239638,0.04285009296269307
1.1480000000000001,-0.01619999999998823,0.495,0.04017130992352491,1.1537719766239485,0.13218274086850682,0.04285009296269307
1.149,0.0368,-0.505,0.0408441275549979,1.1534729784503575,0.1347776507171546,0.04282192699758444
1.1500000000000001,0.08599999999999582,-1.505,0.04084417099414854,1.1615163313358747,0.13477781825241905,0.043579619909246754
1.151,0.0672,-0.505,0.04097207103673278,1.1615163313358747,0.1352711006288302,0.043579619909246754
1.1520000000000001,0.00279999999999436,0.495,0.04092684025220465,1.170388845635306,0.1350966554259345,0.044415420761078864
1.153,-0.0226,0.495,0.042368240229493315,1.170388845635306,0.14065581859577955,0.044415420761078864
1.154,-0.0152,0.495,0.04166086525459274,1.1706835234234478,0.13792762866259087,0.04444317974100643
1.155,-0.0504,1.495,0.04075675892070591,1.161813259516163,0.13444068908151666,0.043607590878652104
1.156,-0.0565,0.495,0.041181005443750564,1.1621101118289825,0.13607691475308978,0.043635554701256345
