time_sec,bts_raw,diy_raw,bts_rms,diy_rms,bts_norm_rms,diy_norm_rms
0.0,0.0009000000000003996,-1.397,0.005630819118974152,0.6604773540528847,0.011193768675080323,0.0
0.0009999999999998899,0.0027,0.603,0.005680719899773182,0.6628903138497186,0.011412383922703617,0.00027372527164613744
0.0020000000000000018,-0.008599999999997669,1.603,0.005732014087412495,0.6782428192548134,0.011637103683654174,0.0020153078367482393
0.0029999999999998916,0.0019,0.603,0.0057261867898597656,0.7251275985327925,0.011611574301607122,0.007333899949543813
0.0039999999999997815,-0.0046,2.603,0.0057102479796412664,0.7264306763077563,0.011541746397375098,0.007481720612944836
0.004999999999999893,-0.001,-1.397,0.00571548295127557,0.728625253789644,0.011564680800440718,0.007730672675124412
0.005999999999999783,-0.0064,0.603,0.005745360669405416,0.7452447471073995,0.011695575039825093,0.009615981882925019
0.006999999999999895,-0.0039,-0.397,0.005780477927505726,0.7615016124226662,0.011849423696149114,0.011460154703530956
0.007999999999999785,0.0023,-0.397,0.005778873064933581,0.7627425509628593,0.011842392795570148,0.011600926315000067
0.008999999999999897,0.003,-0.397,0.005806261313556832,0.8047191505938878,0.011962380672690832,0.01636273633432174
0.009999999999999787,-0.0006,-0.397,0.005826673240467903,0.8067007774333846,0.012051805294604145,0.01658753135397116
0.010999999999999899,0.0012,-0.397,0.005843780940475003,0.8078722904263004,0.01212675410328872,0.016720427356898184
0.011999999999999789,-0.001,-0.397,0.005867360901683553,0.8090421070411886,0.012230057878821124,0.01685313092332585
0.0129999999999999,-0.0024,0.603,0.005863865708829349,0.8102102346259615,0.012214745444043995,0.016985642886798616
0.01399999999999979,0.0012,0.603,0.005883967292666974,0.8113766804756378,0.012302810453406901,0.017117964074860714
0.014999999999999902,-0.0002,0.603,0.005843438342368536,0.812541451832874,0.012125253181485865,0.017250095309116434
0.015999999999999792,-0.0071,0.603,0.005859585823775409,0.8137045558884897,0.01219599527388865,0.017382037405289714
0.016999999999999904,0.0038,0.603,0.005862170313735138,0.8156643533051835,0.0122073179206184,0.01760435610324721
0.017999999999999794,-0.0068,0.6029999999999965,0.005860776103562373,0.816823010559676,0.012201209887892712,0.017735793755937014
0.018999999999999906,-0.0031,-0.397,0.005857577831474765,0.8187753437658292,0.012187198262559332,0.0179572657165968
0.019999999999999796,-0.0021,-0.397,0.005847837510967967,0.8207230327814193,0.012144525932679371,0.01817821084198767
0.020999999999999908,-0.001,-0.397,0.005866118233275699,0.822666110592268,0.012224613750345645,0.01839863287400909
0.021999999999999797,-0.0017,0.603,0.005863135628954379,0.8238149202606244,0.012211546965180627,0.018528953420150457
0.02299999999999991,0.0008,-1.397,0.005866174429294443,0.8257507225689228,0.01222485994502149,0.018748550121839163
0.0239999999999998,-0.0013,-0.397,0.005861463930070223,0.8276819973892009,0.01220422325481659,0.018967633226952472
0.02499999999999991,0.0008,0.603,0.005789900443528004,0.8296087763405449,0.011890703725047677,0.019186206322347885
0.0259999999999998,0.0045,-0.3969999999999966,0.005825458062939459,0.8315310906757096,0.012046481603631113,0.01940427295332642
0.026999999999999913,0.003,0.603,0.0058420068595103295,0.8461317435195796,0.012118981857179828,0.021060565640483135
0.027999999999999803,-0.0006,0.603,0.005841196961155072,0.8472487360382978,0.012115433693671176,0.021187276860874783
0.028999999999999915,0.0008,0.603,0.00585418241303173,0.8483642578783612,0.01217232293933146,0.0213138212480209
0.029999999999999805,0.007,-0.397,0.00583125345290604,0.849478314833588,0.012071871198589962,0.021440199459170063
0.030999999999999917,-0.0006,-0.397,0.005742833545208283,0.8637756537456129,0.011684503712417289,0.023062084325484795
0.031999999999999806,0.0019,-0.397,0.005775560512673037,0.8656220959418377,0.011827880508966446,0.02327154404893467
0.03299999999999992,0.0062,0.603,0.005743254878557529,0.8796570841037369,0.011686349573203483,0.02486366794267168
0.03399999999999981,-0.0046,0.603,0.005641232639614859,0.8814702596191024,0.01123939029376134,0.025069353906083405
0.03499999999999992,-0.0003,-0.397,0.005474873201096165,0.8825425269753164,0.010510569837169538,0.025190991520494584
0.03599999999999981,0.0008,-1.3969999999999863,0.005204819993540751,0.883613493133161,0.009327467130240765,0.025312481527441425
0.03699999999999992,-0.0054,0.603,0.005047137404133188,0.8846831628181899,0.008636659936901485,0.025433824462989033
0.03799999999999981,-0.0087,1.603,0.005064221692138498,0.8984204312042019,0.00871150617764049,0.026992175134877887
0.038999999999999924,0.0003,2.603,0.004982880590140671,0.9001958143560895,0.008355150928875479,0.027193573946480157
0.039999999999999813,0.0014,0.603,0.004969071452613207,0.901245803047777,0.00829465311758493,0.02731268427738357
0.040999999999999925,-0.0041,-0.397,0.004989196598537283,0.903015631365433,0.008382821352414081,0.02751345295063417
0.041999999999999815,-0.0067,0.603,0.005020301991810649,0.9040623450942534,0.008519094034804836,0.02763219177095478
0.04299999999999993,-0.0024,-0.397,0.00498786073627272,0.9153788710103925,0.008376968941788802,0.02891593430763114
0.04399999999999982,0.003,-0.397,0.004990667051995269,0.9286621829941227,0.0083892634068607,0.030422788332251722
0.04499999999999993,-0.0083,1.603,0.004966693840559816,0.9303798595748344,0.008284236802659968,0.03061764093164953
0.04599999999999982,-0.0003,0.603,0.0049772263961845465,0.9313958215654063,0.008330379913431723,0.030732891286096523
0.04699999999999993,0.0163,1.603,0.004945746772042599,0.9331084660469957,0.008192467726153606,0.03092717304602116
0.04799999999999982,0.0098,-0.397,0.004829553343560537,0.9348179728629827,0.007683424486086723,0.031121098870314192
0.04899999999999993,0.0039,1.603,0.004815888372796101,0.9358291167273359,0.007623558269173936,0.031235802658295474
0.04999999999999982,0.0093,0.603,0.004810416812856642,0.9375336626989693,0.0075995873730898035,0.03142916572623008
0.050999999999999934,0.0079,-1.3969999999999723,0.0048096680773202765,0.9282094849751774,0.007596307163801173,0.03037143443552619
0.051999999999999824,0.0064,2.6029999999999793,0.004841445533766243,0.9282094849751774,0.007735524153967155,0.03037143443552619
0.052999999999999936,-0.0002,-0.397,0.004766146246747754,0.9282094849751769,0.0074056380877811035,0.030371434435526125
0.053999999999999826,-0.0038,0.603,0.004910451550367916,0.92750800985534,0.008037839411670801,0.030291859355998367
0.05499999999999994,-0.0071,1.603,0.004908629397997266,0.8923933490281092,0.008029856564802705,0.026308465150132507
0.05599999999999983,-0.0064,1.603,0.004938087631209635,0.8818546530135646,0.008158913041377757,0.02511295935133624
0.05699999999999994,-0.0002,-0.397,0.004900371676401996,0.8916636976671951,0.007993679498583548,0.02622569376818274
0.05799999999999983,-0.0057,2.603,0.004918499080893917,0.8923933490281092,0.008073095631123222,0.026308465150132507
0.05899999999999994,-0.0049,0.6029999999999931,0.0049238811251216446,0.8923933490281092,0.008096674359005313,0.026308465150132507
0.05999999999999983,0.0045,-0.397,0.0049193692417472306,0.9028090328178685,0.00807690780454763,0.02749001648740425
0.06099999999999994,-0.0068,-0.397,0.004920433855010322,0.9035296837346324,0.008081571873694586,0.027571766862280803
0.06199999999999983,0.0009,-0.397,0.004922468199669826,0.9035296837346324,0.008090484334669489,0.027571766862280803
0.06299999999999994,-0.0057,-0.397,0.00492506919282209,0.9042497603216019,0.008101879281861572,0.02765345208539677
0.06399999999999983,-0.0046,-0.397,0.0049383427573993065,0.9138184446253727,0.00816003074884119,0.028738920112581643
0.06499999999999995,0.0056,-0.397,0.00497847775803394,0.9232879672309154,0.008335862127861858,0.02981313927320025
0.06599999999999984,0.0019,0.603,0.0049972166153385645,0.9565898545027202,0.008417957034278788,0.03359089311384204
0.06699999999999995,0.0055,-0.397,0.0049605254008971015,0.9559092059842638,0.008257212877528524,0.033513680596312954
0.06799999999999984,0.0023,0.603,0.004984115301066889,0.9649657666369965,0.008360560195635563,0.034541053504929864
0.06899999999999995,-0.0024,0.603,0.004986872486434435,0.9739381148087318,0.008372639420694123,0.035558873380683455
0.06999999999999984,-0.0049,0.603,0.004979574510230305,0.9746061723225726,0.008340666997628431,0.03563465757928106
0.07099999999999995,-0.0042,-0.39699999999998614,0.004980447185199644,0.9752737722205626,0.008344490185391466,0.035710389866104905
0.07199999999999984,-0.002,0.603,0.004979502062178358,0.9848132772913127,0.008340349602818922,0.0367925478118307
0.07299999999999995,-0.0013,0.603,0.005058719172622896,0.993606416960517,0.008687399647698602,0.037790038340986404
0.07399999999999984,-0.0009,0.603,0.0050903623699678005,0.9848132772913127,0.008826028448939396,0.0367925478118307
0.07499999999999996,0.0064,0.603,0.005104255987855411,0.9848132772913127,0.008886896368564058,0.0367925478118307
0.07599999999999985,0.0057,1.603,0.00510820977583859,0.9841521485406545,0.008904217907929824,0.036717549609579486
0.07699999999999996,0.0014,-0.397,0.005101350158605816,0.9841521485406545,0.008874165934875866,0.036717549609579486
0.07799999999999985,-0.004,-0.397,0.005096995374044118,0.9834905753616131,0.008855087630086689,0.036642500991535994
0.07899999999999996,-0.0076,-0.397,0.0051078222273112225,0.9834905753616131,0.008902520058398816,0.036642500991535994
0.07999999999999985,-0.0011,1.603,0.005114971093714782,0.9942612591654099,0.00893383923164651,0.037864323399798755
0.08099999999999996,0.0098,0.603,0.005066692619507877,0.9942612591654099,0.008722331306828176,0.037864323399798755
0.08199999999999985,-0.0006,1.603,0.00507042206324245,1.0055639864182317,0.008738669994369248,0.03914650062118482
0.08299999999999996,0.0117,0.603,0.005170930449257029,1.0062110466663519,0.00917899708634978,0.03921990289768378
0.08399999999999985,0.0038,-0.397,0.0052589479279352026,1.0062110466663519,0.009564601531576835,0.03921990289768378
0.08499999999999996,0.0081,-0.397,0.005314539740077774,1.0148187971895555,0.00980814917918423,0.04019636295032021
0.08599999999999985,0.007,-0.39699999999997226,0.005315993976389016,1.023989966492439,0.009814520186334707,0.041236737022046714
0.08699999999999997,-0.0042,1.6029999999999862,0.005340989702404927,1.0154599602058794,0.009924026425415408,0.040269096247013754
0.08799999999999986,-0.0027,0.603,0.005316385599655735,1.0239899664924392,0.009816235887292843,0.041236737022046735
0.08899999999999997,-0.0016,-0.397,0.005268254858446486,1.0135352543573002,0.009605375180520953,0.040050758323633306
0.08999999999999986,0.0045,0.603,0.005284654779658523,0.98216609212545,0.00967722321134058,0.0364922521004914
0.09099999999999997,0.0056,-0.397,0.0052862412436530445,0.9929511428932682,0.009684173507777913,0.037715704291867276
0.09199999999999986,0.0009,-1.397,0.005590001806024523,1.0023224194444507,0.011014948086806598,0.0387787784562231
0.09299999999999997,0.0017,1.603,0.005589455375357879,1.0016728472255338,0.011012554174856031,0.03870509122268109
0.09399999999999986,0.0009,0.603,0.005584430420622246,1.0016728472255338,0.010990539855516011,0.03870509122268109
0.09499999999999997,-0.0041,-0.397,0.005578729413676693,1.0016728472255338,0.010965563752434106,0.03870509122268109
0.09599999999999986,-0.002,0.603,0.005527966822617274,0.990325710847077,0.010743172915321782,0.03741787624642073
0.09699999999999998,-0.0016,0.603,0.005529048214707808,1.0214443170672143,0.010747910492487198,0.040947959487771274
0.09799999999999986,0.001,-0.397,0.005292006299057273,1.0109632798558206,0.009709430207063507,0.03975899448239228
0.09899999999999998,-0.0015,0.603,0.005217490480490875,1.022081323829458,0.00938297651501903,0.041020221300531005
0.09999999999999987,-0.0004,0.603,0.005230361218854752,1.0109632798558206,0.009439363200947765,0.03975899448239228
0.10099999999999998,-0.006199999999998867,0.603,0.00516507221645501,1.0109632798558206,0.00915333217702088,0.03975899448239228
0.10199999999999987,-0.0011,1.6029999999999722,0.005107315559171131,1.010963279855821,0.008900300346018861,0.039758994482392326
0.10299999999999998,-0.011999999999998312,-0.397,0.005073244129173844,0.9788470433426416,0.008751033461083036,0.0361157404276185
0.10399999999999987,-0.0044,-0.397,0.005073351737838068,0.9788470433426416,0.008751504894483458,0.0361157404276185
0.10499999999999998,-0.0054999999999992,-0.397,0.005066358911177961,1.0070930023113172,0.008720869331123381,0.039319951621584914
0.10599999999999987,-0.0019,-1.397,0.005040355358401619,0.9964610256564743,0.008606947804480737,0.038113864101270344
0.10699999999999998,0.005699999999998002,0.603,0.005000296689397471,0.9850538545420822,0.008431450834221473,0.03681983880665173
0.10799999999999987,-0.0033,-0.397,0.005007697573575907,0.9850538545420822,0.008463874096971932,0.03681983880665173
0.10899999999999999,-0.002199999999999778,-1.397,0.0049757398724149665,0.9527474046378055,0.008323867454973538,0.033155007014769665
0.10999999999999988,-0.0012,0.603,0.004952590235966088,0.9527474046378055,0.008222448931583233,0.033155007014769665
0.11099999999999999,-0.0019,-0.397,0.004932189424271165,0.9534303103510734,0.008133073005415594,0.03323247558764776
0.11199999999999988,-0.0019,0.603,0.004894833122501346,0.9631861798448286,0.007969415102053524,0.034339177833920674
0.11299999999999999,0.004300000000000467,-1.397,0.004898343518124407,0.9638616896091182,0.00798479414013876,0.03441580741306759
0.11399999999999988,0.0064,-1.397,0.004867318994739958,0.9645367262827339,0.00784887574861295,0.03449238332498249
0.11499999999999999,0.004299999999998224,2.603,0.004864592110764775,0.9652112908582676,0.00783692927390997,0.03456890568226465
0.11599999999999988,-0.0037,-0.397,0.004832406237619788,0.9652112908582675,0.007695923010783519,0.03456890568226464
0.11699999999999999,-0.006200000000000178,-1.397,0.004848323801754414,0.9652112908582675,0.0077656578359532,0.03456890568226464
0.11799999999999988,-0.007,-1.3969999999999723,0.0048172656523927096,0.994499550877799,0.007629592129070269,0.037891355123986746
0.119,-0.0015000000000001776,0.603,0.004866298154023336,0.9938448656828058,0.007844403446927994,0.03781708787631966
0.11999999999999988,-0.0023,0.603,0.004883887802087905,1.0025587951536483,0.007921463669346738,0.038805592829713936
0.121,-0.0001000000000019984,-1.397,0.0049453346791069695,1.0111976356953154,0.008190662347605937,0.039785579722607115
0.12199999999999989,-0.0091,-1.397,0.00492772745348447,1.0111976356953156,0.008113525117931633,0.03978557972260714
0.123,0.0056999999999978465,0.603,0.005003085756008916,1.0111976356953154,0.00844366973096288,0.039785579722607115
0.12399999999999989,-0.004,-0.397,0.005003226247214845,1.0105537683783707,0.00844428522273037,0.03971253965104604
0.125,-0.002200000000000333,-0.397,0.005184748105049381,1.021039009262523,0.00923953221614633,0.04090198151951628
0.1259999999999999,-0.0037,-0.397,0.005221634288464409,1.021039009262523,0.009401130531684336,0.04090198151951628
0.127,-0.0022000000000002664,-0.397,0.005293836594967478,1.0105537683783703,0.009717448730766468,0.03971253965104599
0.1279999999999999,-0.0034,0.603,0.005335768513557317,1.0105537683783705,0.009901152404718111,0.03971253965104602
0.129,0.002799999999999267,1.603,0.005351688550478946,1.011197635695315,0.009970898063164032,0.039785579722607066
0.1299999999999999,-0.0005,-0.397,0.005303860040492196,1.011197635695315,0.00976136143093543,0.039785579722607066
0.13099999999999978,0.002,1.603,0.005307224940407377,1.0092648014666843,0.009776103052537455,0.03956631971878394
0.1319999999999999,0.0103,0.603,0.0052372456947237375,1.0086197002971518,0.00946952407965057,0.03949313967943922
0.13299999999999979,0.0114,0.603,0.005265452789341135,1.0086197002971518,0.009593099319872784,0.03949313967943922
0.1339999999999999,0.0089,-1.397,0.005135184899359086,1.0086197002971518,0.009022395884580174,0.03949313967943922
0.1349999999999998,-0.0013,-1.397,0.00519382954113198,1.0086197002971518,0.009279317974328516,0.03949313967943922
0.1359999999999999,0.0052,0.603,0.0051344518866341,1.0092648014666845,0.009019184556905181,0.03956631971878396
0.1369999999999998,0.0016,-1.397,0.00520105929516645,1.009909490564207,0.009310991516168807,0.039639453012831456
0.1379999999999999,0.0049,0.603,0.005184867996792866,0.9986559466740869,0.00924005746169901,0.038362855134016154
0.1389999999999998,-0.0042,0.603,0.005228801866738056,0.9980039880558831,0.00943253168160749,0.038288897188216965
0.1399999999999999,0.0019,1.603,0.005241168072752708,0.9980039880558831,0.009486708012052933,0.038288897188216965
0.1409999999999998,0.0186,-1.3969999999999723,0.005221713643692113,0.9980039880558831,0.009401478186820727,0.038288897188216965
0.1419999999999999,0.0066,-0.397,0.005193395273277666,1.0092648014666845,0.009277415447494556,0.03956631971878396
0.1429999999999998,0.0001,-0.397,0.005197341374580173,1.0092648014666845,0.009294703311523548,0.03956631971878396
0.1439999999999999,-0.0017,-0.397,0.005195579219558716,0.9986559466740869,0.00928698331295443,0.038362855134016154
0.1449999999999998,-0.0035,-0.397,0.005223023697063577,1.0073282585748191,0.009407217528723128,0.03934663900556787
0.1459999999999999,0.0011,2.603,0.005387574122405261,1.0073282585748191,0.010128112701234936,0.03934663900556787
0.1469999999999998,-0.0032,0.603,0.005384515182878099,1.0066819164320517,0.010114711491644881,0.03927331819067593
0.1479999999999999,-0.0043,1.603,0.0053883636720977865,1.0172070686558257,0.01013157171728195,0.04046728758682981
0.1489999999999998,-0.0054,-0.397,0.005395330423367993,1.017846727250939,0.010162093044397049,0.0405398502225347
0.1499999999999999,-0.0044,0.603,0.005446981794834737,1.0172070686558259,0.010388377627172646,0.04046728758682984
0.1509999999999998,-0.0019,-1.397,0.005454961491561679,1.0172070686558259,0.0104233366668507,0.04046728758682984
0.1519999999999999,-0.0026,-0.397,0.005454443636551668,1.0165670075658113,0.010421067944810007,0.040394679292251434
0.1529999999999998,-0.0004,-0.397,0.005651358454824722,1.0165670075658118,0.011283751475371046,0.04039467929225149
0.15399999999999991,-0.0027,-2.397,0.005528850912885323,1.0172070686558263,0.01074704611349175,0.04046728758682989
0.1549999999999998,-0.0049,0.603,0.005538636804834298,1.0178467272509393,0.010789918091793171,0.04053985022253472
0.15599999999999992,0.0006,-0.397,0.0055125744167363695,1.0178467272509395,0.010675738807692795,0.04053985022253475
0.1569999999999998,0.0027,-0.397,0.005513675225518623,1.017846727250939,0.010680561449356208,0.0405398502225347
0.15799999999999992,0.0005,0.603,0.005493023059748573,1.0172070686558257,0.01059008434135343,0.04046728758682981
0.1589999999999998,-0.0009,0.603,0.005487180620789107,1.0172070686558259,0.010564488624825636,0.04046728758682984
0.15999999999999992,-0.0006,0.603,0.005553476278480123,1.0172070686558259,0.010854929804109795,0.04046728758682984
0.1609999999999998,0.003,-1.397,0.005790148094168758,1.0172070686558259,0.011891788682142248,0.04046728758682984
0.16199999999999992,-0.0021,0.603,0.005871643306296229,1.0263568974149821,0.012248819087159602,0.041505240795126914
0.1629999999999998,-0.0014,0.603,0.005869937926515438,1.0366823141750696,0.012241347820836718,0.04267655227376113
0.16399999999999992,-0.0043,0.603,0.005873835340480284,1.0276244256417066,0.012258422385710697,0.04164902873085404
0.1649999999999998,-0.0007,-0.397,0.005894858843368507,1.01848598410951,0.012350526321084538,0.040612367285394003
0.16599999999999993,-0.0044,0.603,0.005899117427048988,0.987274136460273,0.012369183169953942,0.037071706770629084
0.16699999999999982,0.0007,-2.397,0.00589568578141933,0.987274136460273,0.012354149135474512,0.037071706770629084
0.16799999999999993,-0.0073,-0.397,0.005880317169115523,0.9784240899668798,0.012286819267471959,0.03606776075227291
0.16899999999999982,-0.0048,-1.397,0.005847195139312287,0.9688216757895064,0.012141711703396299,0.034978466420635485
0.16999999999999993,-0.0092,-1.397,0.005855063081014597,0.9688216757895064,0.012176181144475056,0.034978466420635485
0.17099999999999982,-0.0002,-0.397,0.005867723081448592,0.9797536318542825,0.01223164458784151,0.0362185834948531
0.17199999999999993,-0.0089,0.6029999999999722,0.005868890815095879,0.9708350315248189,0.012236760427240654,0.03520686075455345
0.17299999999999982,0.0013,-0.3969999999999445,0.006014320296232279,0.9618337370564288,0.01287388677118314,0.03418575722155643
0.17399999999999993,0.0136,1.6029999999999722,0.0062567264675850165,0.9728442205163194,0.013935867852984639,0.03543478241458628
0.17499999999999982,0.0089,0.603,0.0068379677942123985,1.0051522752042168,0.016482285253972623,0.039099796252531904
0.17599999999999993,0.0104,0.603,0.007000912409142454,1.016333889847403,0.017196145373422074,0.04036823450403716
0.17699999999999982,0.0068,-0.397,0.007069278453691393,1.016333889847403,0.017495656914499644,0.04036823450403716
0.17799999999999994,0.0057,0.603,0.00707177625293124,1.0254915094725472,0.01750659976931251,0.04140707150530571
0.17899999999999983,0.0025,-0.397,0.007093323848997097,1.0248566223371023,0.017600999756130265,0.04133505014223024
0.17999999999999994,-0.0022,-1.397,0.007087740618982891,1.014410842162161,0.017576539633612158,0.040150084682095646
0.18099999999999983,-0.0048,-0.397,0.007188902957353814,1.014410842162161,0.018019731689908412,0.040150084682095646
0.18199999999999994,-0.0055,1.603,0.00731225298294986,1.0345680723607382,0.01856012797145404,0.04243671346015437
0.18299999999999983,0.0014,0.603,0.007296272668727851,1.0345680723607382,0.018490118238243404,0.04243671346015437
0.18399999999999994,-0.0087,-0.397,0.007227399585912033,1.0345680723607384,0.018188385363260968,0.04243671346015439
0.18499999999999983,-0.0022,0.603,0.007229897157831034,1.0561903497743634,0.01819932722218154,0.04488953665531012
0.18599999999999994,-0.0109,0.603,0.007235736700452565,1.0479224848530695,0.018224910249857083,0.0439516331003134
0.18699999999999983,-0.0008,-0.397,0.007218771005124827,1.0479224848530695,0.018150583563464898,0.0439516331003134
0.18799999999999994,-0.0073,-0.397,0.007221716936871214,1.0395888675648517,0.018163489686132822,0.043006270621002554
0.18899999999999983,0.0039,-0.397,0.007206507972934112,1.0497841460113788,0.01809685923739107,0.04416281925722322
0.18999999999999995,-0.0004,0.603,0.0072591516969081156,1.0497841460113784,0.018327491315048117,0.04416281925722317
0.19099999999999984,-0.0015,1.603,0.007257185588564093,1.0479224848530688,0.018318877797271434,0.043951633100313324
0.19199999999999995,0.0022,-1.397,0.007028656977802616,1.0479224848530693,0.0173176942881028,0.04395163310031337
0.19299999999999984,-0.0011,0.603,0.007009777417258537,1.0586524517351152,0.017234982960999814,0.045168836595952125
0.19399999999999995,0.0054,-1.397,0.0070103094616176635,1.0592670830422513,0.01723731384655821,0.04523856014531617
0.19499999999999984,0.0138,-0.397,0.0070564361824561606,1.0598813579212107,0.017439394943019822,0.04530824326159901
0.19599999999999995,-0.0008,-0.397,0.007192031417632535,1.070491462914604,0.018033437469809267,0.046511849668685136
0.19699999999999984,-0.0026,1.603,0.007191169099165541,1.0408402821129232,0.018029659653867845,0.04314823062695137
0.19799999999999995,0.0029,0.603,0.007186241187360421,1.0408402821129232,0.018008070479464323,0.04314823062695137
0.19899999999999984,0.0076,-0.397,0.007173547186681633,1.0305565259687797,0.01795245808107521,0.04198164511326326
0.19999999999999996,-0.003,0.603,0.0071677075895280554,1.0305565259687797,0.017926874814494852,0.04198164511326326
0.20099999999999985,0.0061,-0.397,0.007160952100691513,1.0389625950498413,0.017897279027792336,0.04293522649729994
0.20199999999999996,0.0148,1.603,0.007161220630535833,1.0299247611183888,0.017898455456647158,0.04190997794105566
0.20299999999999985,0.0025,0.603,0.007157129319453212,1.0305565259687797,0.017880531428784083,0.04198164511326326
0.20399999999999996,-0.0055,0.6029999999999722,0.007157068150471516,1.0305565259687797,0.017880263447564826,0.04198164511326326
0.20499999999999985,-0.0011,-0.3970000000000278,0.007156010530879076,1.0023224194444516,0.017875630017678754,0.038778778456223205
0.20599999999999996,-0.0022,-1.3969999999999723,0.007139435849319365,1.0016728472255347,0.01780301636203183,0.03870509122268119
0.20699999999999985,-0.0032,-0.397,0.007149123386986357,1.0109632798558215,0.01784545745036788,0.03975899448239238
0.20799999999999996,-0.0021,-0.3970000000000278,0.007144974049257481,1.0109632798558215,0.01782727920785251,0.03975899448239238
0.20899999999999985,0.0088,-1.397,0.007145312952975298,1.0103192631860338,0.017828763944544093,0.039685937468299744
0.20999999999999996,0.0164,0.603,0.0071837544939724815,1.0103192631860338,0.017997176279372404,0.039685937468299744
0.21099999999999985,0.0099,-1.397,0.007184124140593776,1.0096748357331191,0.017998795700679117,0.0396128338551203
0.21199999999999997,0.0012,1.603,0.007228216479374509,1.0003724374275664,0.0181919641723241,0.03855757321360901
0.21299999999999986,0.0048,-0.397,0.007234849651893166,1.0003724374275664,0.01822102409141704,0.03855757321360901
0.21399999999999997,0.0081,-0.397,0.007247081170947107,0.9997215982025699,0.018274610358484794,0.03848374225136343
0.21499999999999986,-0.0049,0.603,0.007235127488955497,0.9997215982025699,0.018222241295180342,0.03848374225136343
0.21599999999999997,-0.0031,-0.397,0.00723486600139796,0.9997215982025699,0.018221095718573607,0.03848374225136343
0.21699999999999986,-0.0045,0.603,0.007222435208524026,0.9990703349918018,0.018166636433192208,0.03840986319232791
0.21799999999999997,0.0031,-0.397,0.0072263019676297975,0.979511752820098,0.018183576699173462,0.036191144826200373
0.21899999999999986,-0.0034,0.603,0.007229382955675525,0.990982720947666,0.018197074503291073,0.03749240723052331
0.21999999999999997,-0.0045,1.603,0.007262040445295656,0.9929511428932687,0.018340146917504657,0.03771570429186733
0.22099999999999986,-0.0012,0.603,0.0072171342477499855,0.9834905753616139,0.018143412931802008,0.036642500991536084
0.22199999999999998,-0.016,0.603,0.007217427270441659,0.9949156703606881,0.01814469666378523,0.037938559565038985
0.22299999999999986,-0.0182,1.603,0.007188836260622394,1.0036203026170398,0.01801943949162571,0.038926009845841804
0.22399999999999998,-0.0279,2.603,0.0072080707279182565,1.0042686152007285,0.018103705664688656,0.03899955418682694
0.22499999999999987,-0.0152,1.603,0.007104556877786948,0.9936064169605185,0.01765021163881288,0.03779003834098658
0.22599999999999998,-0.010499999999998313,-0.397,0.007196398842763993,0.9929511428932696,0.01805257115291605,0.03771570429186743
0.22699999999999987,-0.0029,-1.397,0.007153111897169866,1.0016728472255354,0.017862931107642453,0.038705091222681266
0.22799999999999998,-0.006499999999998623,-0.397,0.007120533358978982,1.0016728472255356,0.01772020457952481,0.038705091222681294
0.22899999999999987,-0.0003,0.603,0.007120904251562703,1.001022853493786,0.017721829459391086,0.03863135617287859
0.22999999999999998,0.012000000000000333,-0.397,0.007145796745861802,1.0122500839817108,0.017830883440471575,0.039904969069029336
0.23099999999999987,0.0135,2.603,0.00714381156573005,1.0036203026170405,0.017822186369220772,0.03892600984584188
0.23199999999999998,0.0090999999999992,0.603,0.007144486658779081,1.0128928729994353,0.017825143950880206,0.03997788681872357
0.23299999999999987,0.0055,0.603,0.007131474256448079,1.002322419444452,0.0177681366353189,0.038778778456223253
0.23399999999999999,0.00909999999999727,2.603,0.007146003972909587,1.0016728472255352,0.017831791301864526,0.038705091222681245
0.23499999999999988,-0.0032,0.603,0.007093921164764758,1.001672847225535,0.017603616595633885,0.03870509122268122
0.236,-0.0016999999999990452,0.603,0.0071017141766299245,1.0016728472255347,0.01763775776920582,0.03870509122268119
0.23699999999999988,0.0026,0.6030000000000277,0.007018737669958881,1.0010228534937846,0.01727423781496176,0.03863135617287844
0.238,0.001499999999997513,1.6029999999999722,0.007022860013046194,1.0016728472255345,0.017292297793991964,0.03870509122268117
0.23899999999999988,-0.0097,0.6029999999999445,0.007008913881667804,1.0023224194444513,0.017231199812841075,0.03877877845622318
0.24,0.0009000000000007994,-1.397,0.006998034108170662,1.0029715709695106,0.017183535541078633,0.038852417966408766
0.24099999999999988,0.0045,-1.397,0.007034600534107169,1.0305565259687792,0.01734373299957138,0.04198164511326321
0.242,-0.004199999999999267,1.603,0.007047909514862533,1.0195309087578954,0.01740203962477561,0.04073090315308825
0.24299999999999988,-0.0009,0.603,0.007083434204351043,1.0109632798558212,0.017557673237414837,0.039758994482392354
0.244,0.008200000000001356,0.603,0.007088261340105247,1.0109632798558212,0.01757882091208684,0.039758994482392354
0.24499999999999988,0.0143,1.603,0.0070687008699617465,1.0128928729994342,0.017493126521025675,0.03997788681872345
0.246,-0.00019999999999957812,0.603,0.00695035063148728,1.0239899664924395,0.016974634299539746,0.04123673702204676
0.2469999999999999,0.0017,0.603,0.00700326041241613,1.0246253906327214,0.017206431972326453,0.04130881930275339
0.248,-0.0001999999999989564,0.603,0.006999285884632574,1.0227179338278214,0.017189019571925604,0.04109243810454213
0.2489999999999999,0.0045,-0.397,0.007002562486627301,1.0227179338278214,0.017203374360467396,0.04109243810454213
0.25,-0.0030999999999997557,-1.397,0.007034845916150756,1.0227179338278214,0.017344808017945083,0.04109243810454213
0.2509999999999999,-0.002,-0.397,0.007037913442936742,1.0227179338278214,0.017358246848303473,0.04109243810454213
0.252,-0.0008999999999997557,0.603,0.007013319227447054,1.0233541478027623,0.01725049962625032,0.0411646099838019
0.2529999999999999,0.0002,-0.397,0.006854874656336536,1.01225008398171,0.016556354192185974,0.03990496906902923
0.254,-0.0023999999999994226,-0.397,0.006851055397775082,1.011606886527029,0.01653962202601983,0.03983200498639691
0.2549999999999999,0.0002,-0.397,0.006832616215369224,1.0116068865270291,0.01645883999489566,0.03983200498639694
0.256,-0.0037999999999988898,-1.397,0.006832616215369224,1.0116068865270291,0.01645883999489566,0.03983200498639694
0.2569999999999999,0.0012,-0.397,0.006832471684649081,1.0023224194444518,0.01645820680602231,0.03877877845622323
0.2579999999999998,-0.0009,-0.397,0.006841450196211203,1.0029715709695113,0.016497541652030975,0.038852417966408835
0.2589999999999999,-0.0075,0.603,0.00687639216606728,1.0036203026170398,0.016650622370813644,0.038926009845841804
0.2599999999999998,0.0009,-0.397,0.006821948722947137,0.9942612591654106,0.01641210572621224,0.037864323399798845
0.2609999999999999,0.0085,-0.397,0.006621321677372631,0.9942612591654106,0.01553315893327843,0.037864323399798845
0.2619999999999998,0.0037,0.603,0.006554431944857755,0.9848132772913134,0.015240115113060693,0.03679254781183078
0.2629999999999999,0.0044,-0.397,0.006553628827240273,0.9828285568567128,0.015236596655954312,0.03656740185589089
0.2639999999999998,-0.001,0.603,0.006558321067190268,0.9834905753616139,0.015257153352305562,0.036642500991536084
0.2649999999999999,-0.0003,-0.397,0.006514350591016056,0.9949156703606881,0.015064518760561332,0.037938559565038985
0.2659999999999998,-0.0011,-0.397,0.0064965060992118176,0.9942612591654106,0.014986342068092198,0.037864323399798845
0.2669999999999999,-0.0025,-1.397,0.00648923475009707,1.0055639864182324,0.014954486298266111,0.039146500621184896
0.2679999999999998,-0.0076,1.603,0.006474208773243867,1.0141772288299455,0.014888657515671014,0.04012358367163343
0.2689999999999999,-0.0084,1.603,0.006507423149310864,1.0141772288299458,0.01503416964859301,0.04012358367163345
0.2699999999999998,-0.0044,-0.397,0.006623010912016348,1.0135352543573009,0.015540559467779429,0.04005075832363338
0.2709999999999999,-0.0007,1.603,0.006618089308416511,1.0023224194444518,0.015518997929614017,0.03877877845622323
0.2719999999999998,0.0061,-1.397,0.0066220502207073794,1.0016728472255347,0.015536350680561337,0.03870509122268119
0.2729999999999999,0.0054,0.603,0.00644615417552705,1.0122500839817101,0.014765750364146984,0.03990496906902926
0.2739999999999998,0.0061,0.603,0.006212507880442716,1.0016728472255347,0.01374214628745246,0.03870509122268119
0.2749999999999999,0.0145,-0.397,0.005555142906609442,0.9699201067947659,0.010862231299504314,0.035103072029769006
0.2759999999999998,0.0068,-1.397,0.005365187406625617,0.9581970226736415,0.010030036532179596,0.033773209679888304
0.2769999999999999,0.0003,-0.397,0.005274780811832236,0.9588760472098052,0.0096339653727496,0.03385023797346356
0.2779999999999998,-0.0058,-0.397,0.005312908410300414,0.9497614191031555,0.009801002325817964,0.03281627791423681
0.2789999999999999,-0.0065,1.603,0.005310508818805725,0.9595545912373982,0.009790489718992853,0.03392721175832331
0.2799999999999998,-0.0014,0.603,0.00533960094461625,0.9588760472098052,0.009917942279576425,0.03385023797346356
0.2809999999999999,-0.0049,-1.397,0.005240070952447007,0.9595545912373982,0.009481901529599894,0.03392721175832331
0.2819999999999998,-0.0034,0.6029999999999445,0.005079633189584467,0.9357019049657278,0.008779023925388072,0.03122137180285874
0.2829999999999999,-0.0048,-0.397,0.005000857092645634,0.935006050945352,0.008433905960031218,0.031142434378785895
0.2839999999999998,0.001,-0.3969999999999445,0.005005435838946374,0.9343096786678133,0.008453965440871245,0.031063438163811144
0.2849999999999999,-0.004,0.6029999999999445,0.004945135282558435,0.9097953709730966,0.008189788791618734,0.0282825441175209
0.2859999999999998,0.001,-0.3969999999999445,0.004989042014991594,0.9090796870417933,0.008382144122126735,0.028201357195647685
0.2869999999999999,0.0025,0.603,0.00502807566633753,0.9083634392356043,0.008553150491526051,0.028120106308014873
0.2879999999999998,-0.0058,0.603,0.005090539980781773,0.9200140636925092,0.008826806561655378,0.02944174886024379
0.2889999999999999,0.0004,0.603,0.005096353426887367,0.9178892408323547,0.008852275260532807,0.029200709736691526
0.2899999999999998,-0.0072,-2.397,0.005062203041707223,0.9171798726442526,0.00870266247305648,0.02912023927040355
0.2909999999999999,-0.0046,-0.397,0.00507258067067098,0.906929246653672,0.008748126850353326,0.02795741202914733
0.2919999999999998,0.0074,0.603,0.005147901387716883,0.8972870988373433,0.009078106801458104,0.02686361032812446
0.2929999999999999,0.0028,0.603,0.0051323007290339446,0.916469955389514,0.009009760338608301,0.029039706518198326
0.2939999999999998,0.0013,1.603,0.005299286228209542,0.916469955389514,0.009741323566021413,0.029039706518198326
0.29499999999999993,0.005,1.603,0.005446440234974598,0.925912360770454,0.010386005054218248,0.03011084951083418
0.2959999999999998,0.0086,0.603,0.00534208479728659,0.9143368964312037,0.0099288240344887,0.02879773309470126
0.29699999999999993,0.001,-1.397,0.005403522714290374,0.9143368964312034,0.010197983458934076,0.02879773309470122
0.2979999999999998,0.0036,0.603,0.005712958551951302,0.9136247700907492,0.01155362141069695,0.028716949744625114
0.29899999999999993,-0.0102,-0.397,0.005791825284603405,0.9472664355013893,0.011899136450980943,0.032533247892335006
0.2999999999999998,0.0036,0.603,0.005803433727267973,0.9479532897139905,0.01194999302129907,0.03261116438152485
0.30099999999999993,0.0017,0.603,0.005811767384141534,0.9380390072548404,0.01198650275986125,0.03148649182673627
0.3019999999999998,0.0003,-0.397,0.005808807366989497,0.9380390072548401,0.01197353492905179,0.03148649182673624
0.30299999999999994,-0.0011,-0.397,0.005808243439890015,0.9380390072548401,0.011971064365254578,0.03148649182673624
0.3039999999999998,-0.0022,0.603,0.005808713382941506,0.9387326130393657,0.011973123185075138,0.03156517421176135
0.30499999999999994,-0.0011,-0.397,0.005832052020450689,0.948639646615956,0.012075369721833927,0.03268902445597914
0.3059999999999998,0.0021,-0.397,0.005849135792362269,0.9493255072859443,0.012150213701567056,0.03276682823806051
0.30699999999999994,0.0047,0.603,0.005892517674346719,0.9401182894124838,0.012340269663027674,0.0317223648297497
0.30799999999999983,0.0072,0.603,0.005894216521109265,0.9401182894124838,0.01234771230820719,0.0317223648297497
0.30899999999999994,0.0018,-0.397,0.005894216521109266,0.9401182894124838,0.012347712308207193,0.0317223648297497
0.30999999999999983,-0.0004,0.603,0.005856373044329577,0.9394257067143655,0.012181920091840133,0.03164379850327026
0.31099999999999994,0.0032,-0.397,0.005861736836778688,0.9401182894124838,0.012205418858706827,0.0317223648297497
0.31199999999999983,-0.0007,-1.397,0.005833795438781897,0.9401182894124838,0.0120830076349905,0.0317223648297497
0.31299999999999994,0.0054,0.603,0.005821891679759304,0.9394257067143655,0.012030857284140219,0.03164379850327026
0.31399999999999983,0.0029,1.603,0.005805850755470537,0.9493255072859443,0.011960582018315855,0.03276682823806051
0.31499999999999995,0.0007,-0.397,0.005805061201080236,0.9493255072859443,0.011957122981687893,0.03276682823806051
0.31599999999999984,-0.0,1.603,0.005811616282810918,0.9611568020296453,0.011985840785153041,0.03410896596115655
0.31699999999999995,0.0007,-1.397,0.005811921146223057,0.9611568020296453,0.011987176391315288,0.03410896596115655
0.31799999999999984,-0.0073,-0.397,0.00581150423548851,0.9611568020296453,0.011985349905997615,0.03410896596115655
0.31899999999999995,-0.0128,-0.397,0.005764379546931699,0.9493255072859442,0.011778896714423141,0.03276682823806049
0.31999999999999984,-0.0037,-0.397,0.005784692616005135,0.967477110931022,0.01186788824029451,0.03482593947774261
0.32099999999999995,-0.0026,-0.397,0.0058315004720779625,0.9681496267765157,0.012072953389220507,0.03490222942784275
0.32199999999999984,0.005,1.603,0.005884021139870388,0.9564048413320414,0.012303046357926223,0.033569905287824955
0.32299999999999995,-0.0059,0.603,0.005862330094132367,0.9472664355013887,0.012208017918304732,0.03253324789233493
0.32399999999999984,0.0018,0.603,0.005838543610961302,0.9472664355013887,0.012103809370356908,0.03253324789233493
0.32499999999999996,-0.0048,-0.397,0.0058498830919052275,0.9472664355013887,0.012153487619770675,0.03253324789233493
0.32599999999999985,-0.0037,0.603,0.005803451628577202,0.9479532897139902,0.011950071446908595,0.03261116438152481
0.32699999999999996,-0.007,0.603,0.005883260513061062,0.93803900725484,0.012299714052988159,0.031486491826736226
0.32799999999999985,-0.0063,-1.397,0.005956645070112681,0.93803900725484,0.012621211689992617,0.031486491826736226
0.32899999999999996,-0.0056,-0.397,0.005930433834577594,0.9387326130393656,0.01250638030548797,0.03156517421176134
0.32999999999999985,-0.0063,0.603,0.005901998979752924,0.9366502548056593,0.01238180724813115,0.031328952259811
0.33099999999999996,-0.0042,-1.397,0.005903064939525899,0.9359551058546756,0.012386477216335935,0.03125009481855059
0.33199999999999985,-0.002,-0.397,0.005889928443027391,0.9259123607704492,0.012328926244408461,0.030110849510833638
0.33299999999999996,0.0059,-0.397,0.005900041587755837,0.9252091440184957,0.01237323191665763,0.0300310768611993
0.33399999999999985,0.0048,-1.397,0.005895167757987626,0.9252091440184957,0.012351879675578633,0.0300310768611993
0.33499999999999996,0.0073,-0.397,0.005896518236208029,0.9557240610507297,0.012357796118685047,0.03349267782316604
0.33599999999999985,-0.0065,-0.397,0.0059565945398099,0.9550427954909821,0.01262099031681011,0.03341539530869989
0.33699999999999997,-0.0084,1.603,0.005955798857197075,0.9550427954909824,0.012617504432448242,0.03341539530869992
0.33799999999999986,-0.0029,-1.397,0.005952146273937006,0.9661306748423321,0.012601502470533448,0.03467320026318363
0.33899999999999997,-0.0077,-0.397,0.0059267367103481745,0.9654567526405471,0.012490183209651657,0.0345967507765432
0.33999999999999986,-0.0034,-0.397,0.005927554048340366,0.9744245799009235,0.012493763966198826,0.035614057801775435
0.34099999999999997,-0.0099,0.603,0.005927554048340365,0.9543610436135587,0.012493763966198822,0.0333380576265355
0.34199999999999986,-0.0012,-2.397,0.00591302896095536,0.9543610436135587,0.012430129579630574,0.0333380576265355
0.34299999999999997,0.0132,0.603,0.005893126355996951,0.9543610436135586,0.012342936296446198,0.03333805762653549
0.34399999999999986,0.015,-1.396999999999889,0.0058909394753141955,0.9634321575819553,0.01233335557537675,0.03436708145792729
0.345,0.0096,0.603,0.005889449119672299,0.9614032989889377,0.012326826329491556,0.03413692848553462
0.34599999999999986,0.0081,0.6029999999999445,0.0059013897613335465,0.9593701498121588,0.012379138263127781,0.03390628879089854
0.347,0.0186,-0.3969999999998335,0.005838503113955932,0.9586914752403582,0.01210363195303567,0.0338293001971519
0.34799999999999986,0.0095,2.602999999999889,0.005837600356294655,0.9786662378188311,0.0120996769730433,0.0360952299155142
0.349,0.0058,0.6029999999999445,0.005826775258529607,0.9786662378188311,0.012052252235583111,0.0360952299155142
0.34999999999999987,-0.0044,-0.397,0.005756282109022431,0.9786662378188311,0.011743421850797698,0.0360952299155142
0.351,-0.000699999999999778,-0.3969999999999445,0.005745667631884761,0.9875141141990456,0.011696919841997692,0.03709892975702975
0.35199999999999987,0.0003,0.603,0.005744177236208094,0.9875141141990456,0.011690390420720231,0.03709892975702975
0.353,-0.0007999999999985567,0.603,0.005744148997532557,0.9875141141990457,0.011690266707124043,0.037098929757029754
0.35399999999999987,0.0057,-1.397,0.005745882806110054,0.9875141141990457,0.011697862519963674,0.037098929757029754
0.355,-0.004500000000000799,0.603,0.0057668569435693415,0.9962834167234675,0.01178975018546562,0.038093716209250825
0.35599999999999987,-0.0081,0.603,0.005771159505592239,1.0075634599082708,0.011808599703388765,0.03937332015830612
0.357,-0.001899999999999778,-0.397,0.005776827058967717,1.0075634599082708,0.011833429246429153,0.03937332015830612
0.3579999999999999,-0.0009,-0.397,0.005772227165843756,1.0069172687417052,0.011813277121387553,0.03930001647009897
0.359,-0.0033999999999998446,-0.397,0.005727632388765822,1.0069172687417056,0.011617907468298126,0.03930001647009902
0.3599999999999999,-0.0027,0.603,0.005724876925509666,1.0180794985630501,0.011605835787807042,0.04056625571454606
0.361,0.0062999999999986235,-0.397,0.005727997852960033,1.0174399863099157,0.011619508566397905,0.04049370967982143
0.3619999999999999,0.0001,-0.397,0.005721346870571017,1.0180794985630495,0.011590370622288999,0.04056625571454599
0.363,-0.0009999999999998224,-1.397,0.005722367132426562,1.018079498563048,0.011594840387984426,0.04056625571454581
0.3639999999999999,-0.0002,0.603,0.005750721206641489,1.0180794985630477,0.01171905954560823,0.040566255714545786
0.365,-0.002799999999999112,1.603,0.005747979643439872,1.0069172687417012,0.011707048761235732,0.039300016470098516
0.3659999999999999,0.0012,-0.397,0.0057653208592821055,1.0069172687417016,0.011783020602452144,0.039300016470098564
0.367,-0.0023999999999998445,-1.397,0.005818827471644652,1.0049762022724904,0.012017432992876083,0.03907982260393254
0.3679999999999999,-0.0017,-0.397,0.0058270184868855655,0.9956299045258268,0.012053317818654468,0.03801958202597185
0.369,-0.009699999999999756,-2.397,0.005782753697619324,0.9956299045258268,0.011859393841684947,0.03801958202597185
0.3699999999999999,-0.0086,0.603,0.005644723622502749,1.0069172687417007,0.011254684284682211,0.03930001647009847
0.371,-0.007899999999999024,-0.397,0.005634434165532712,1.0069172687417007,0.011209606188760764,0.03930001647009847
0.3719999999999999,-0.0035,0.603,0.0056691602076412925,1.0069172687417007,0.01136174092839778,0.03930001647009847
0.373,-0.0012999999999981347,0.603,0.005724088704509743,0.9956299045258268,0.011602382592760373,0.03801958202597185
0.3739999999999999,0.0071,0.603,0.0057595553265754355,0.9949759630936003,0.011757761812105253,0.037945399150479384
0.375,0.012499999999999845,0.603,0.00576096292616331,1.0036800724483366,0.011763928503838934,0.03893279011351531
0.3759999999999999,0.0118,-0.397,0.00574526758606319,1.0036800724483366,0.01169516724183908,0.03893279011351531
0.377,0.009299999999997602,-0.397,0.00574284911104349,1.0036800724483366,0.01168457190631854,0.03893279011351531
0.3779999999999999,-0.0015,0.603,0.0057004528734832015,1.0030313794582046,0.011498834051637144,0.038859202619363195
0.379,-0.0028999999999997556,-1.397,0.0056663600986913846,0.9936667891350189,0.011349473655187733,0.03779688693825151
0.3799999999999999,-0.0018,-0.397,0.005641532045342978,0.9943215915798911,0.011240701989817884,0.037871167486701746
0.381,-0.0028999999999982902,-0.397,0.005607488820249364,1.0030313794582044,0.011091558670523758,0.03885920261936317
0.3819999999999999,0.0048,-0.397,0.005628753165928921,0.9936667891350189,0.011184717737813824,0.03779688693825151
0.383,0.004099999999999445,-0.397,0.005625493155337343,1.0049762022724904,0.011170435636184943,0.03907982260393254
0.3839999999999999,0.0016,-2.397,0.005607257599561293,1.0056236407255486,0.011090545693027837,0.039153267783860544
0.385,0.009299999999998,-0.397,0.0055951870935361135,0.9962834167234625,0.011037664823803355,0.038093716209250256
0.3859999999999999,0.0003,-0.397,0.005551883928214365,0.9962834167234625,0.01084795371992679,0.038093716209250256
0.3869999999999998,0.0014,1.603,0.005530551932172824,1.0056236407255486,0.010754498276499914,0.039153267783860544
0.3879999999999999,-0.0018,-0.397,0.005525420528882055,0.9949759630936003,0.010732017606195689,0.037945399150479384
0.3889999999999998,-0.0011,-1.397,0.005518989514969401,0.9855348328629013,0.010703843343659678,0.036874400810417755
0.3899999999999999,-0.0072,-1.397,0.005471444306107528,0.9855348328629013,0.010495547853244394,0.036874400810417755
0.3909999999999998,0.0019,-0.397,0.0054622973479051895,0.9949759630936001,0.010455475042751556,0.03794539915047937
0.3919999999999999,0.0056,0.603,0.005377810225996273,1.0036800724483366,0.010085337085361995,0.03893279011351531
0.3929999999999998,0.0023,-1.397,0.005378037630738923,0.9746677213974193,0.010086333345206614,0.03564163968368831
0.3939999999999999,-0.0001,-1.397,0.005216783780145933,0.9746677213974193,0.009379880461842483,0.03564163968368831
0.3949999999999998,-0.0063,-1.397,0.005016139525994727,0.965702152031453,0.008500858278159343,0.034624588793167294
0.3959999999999999,-0.0008,-0.397,0.004925733034403124,0.965702152031453,0.008104787570856187,0.034624588793167294
0.3969999999999998,-0.0,-2.397,0.004864515864140742,0.9657021520314534,0.007836595237561712,0.03462458879316733
0.3979999999999999,0.0007,0.603,0.004495169906121288,0.9657021520314542,0.006218491136219564,0.03462458879316742
0.3989999999999998,-0.0047,-0.397,0.004404888889196891,0.93202758944249,0.005822970133249736,0.03080455880165104
0.3999999999999999,-0.001,-1.397,0.004473215266945082,0.9313289901156893,0.006122307894131307,0.03072530995102732
0.4009999999999998,0.0011,0.603,0.004452040377477602,0.9320275894424903,0.00602954073437538,0.030804558801651078
0.4019999999999999,-0.0003,-0.397,0.004462501333530904,0.9327256655276778,0.006075370167529529,0.030883748295938682
0.4029999999999998,-0.0018,-0.397,0.004462632137906483,0.9320275894424905,0.006075943221307438,0.030804558801651102
0.4039999999999999,-0.0054,-1.397,0.004470288359803147,0.961649732764363,0.006109485118227626,0.03416488384235805
0.4049999999999998,-0.0025,1.603,0.004433509243765323,0.9518781162406458,0.005948355864712396,0.03305639525879943
0.4059999999999999,0.0033,-0.397,0.004411861732942827,0.96300243396884,0.005853518151492087,0.03431833376934702
0.4069999999999998,0.0041,-0.3969999999999445,0.004337390646906344,0.96300243396884,0.005527260432595676,0.03431833376934702
0.4079999999999999,-0.001,0.6030000000000555,0.004361786500861727,0.96300243396884,0.005634138633057454,0.03431833376934702
0.4089999999999998,0.0004,1.602999999999889,0.004369720147167608,0.96300243396884,0.005668895925908257,0.03431833376934702
0.4099999999999999,0.0019,-0.3969999999999445,0.004363140480940779,0.9636780725335509,0.005640070417801484,0.034394977959566336
0.4109999999999998,-0.0017,0.602999999999889,0.00443852506745659,0.96300243396884,0.005970330180960421,0.03431833376934702
0.4119999999999999,-0.0013,-1.396999999999889,0.00439883938531609,0.9630024339688401,0.005796467265604726,0.03431833376934704
0.4129999999999998,-0.0079,0.6029999999999445,0.004403702807378406,0.963678072533551,0.005817773910539439,0.03439497795956635
0.4139999999999999,0.0023,-0.397,0.004403935097901227,0.9835515684649738,0.005818791574979834,0.03664942002674241
0.4149999999999998,0.0045,-0.39700000000005553,0.00440925877702852,0.9835515684649738,0.005842114605442368,0.03664942002674241
0.4159999999999999,-0.0079,-1.3969999999999445,0.0044019736097645375,0.9719929055943622,0.005810198298324713,0.03533820956303075
0.4169999999999998,-0.0032,-0.397,0.004415186215951864,0.9719929055943622,0.005868082706687469,0.03533820956303075
0.4179999999999999,0.0012,-0.397,0.004415734961741385,0.96300243396884,0.005870486761187968,0.03431833376934702
0.4189999999999998,0.0023,1.603,0.004520667341085152,0.9636780725335509,0.006330195361466726,0.034394977959566336
0.41999999999999993,-0.0014,-0.397,0.004425303369647444,0.934120252664607,0.005912405942215783,0.031041949747695575
0.4209999999999998,-0.0068,-0.397,0.00434531162389695,0.9454535346013866,0.005561962221194813,0.03232759308118901
0.42199999999999993,-0.0094,-0.397,0.00428632579928595,0.9454535346013869,0.005303545409932239,0.03232759308118904
0.4229999999999998,-0.0087,-0.397,0.004295108883757337,0.9546092953591601,0.005342024090142509,0.03336621921322688
0.42399999999999993,0.0022,-1.397,0.00429648042548626,0.9657021520314523,0.0053480328124489145,0.0346245887931672
0.4249999999999998,-0.0022,-0.397,0.00427821168437849,0.9650279305730525,0.005267997484402131,0.034548105358966484
0.42599999999999993,-0.0033,0.603,0.004092540213402464,0.9650279305730521,0.004454571041888544,0.03454810535896644
0.4269999999999998,0.0003,-0.397,0.003929952810095564,0.9650279305730524,0.003742275866037163,0.03454810535896647
0.42799999999999994,-0.0008,-0.397,0.0038250363390165878,0.9746677213974182,0.0032826369598431657,0.03564163968368818
0.4289999999999998,0.0017,0.603,0.0038222383356114175,0.9746677213974179,0.0032703789110215325,0.035641639683688144
0.42999999999999994,0.001,-1.397,0.0038124253799833,0.96502793057305,0.003227388366781411,0.03454810535896621
0.4309999999999998,0.0064,-0.397,0.0038088167373094618,0.9657021520314496,0.0032115789085105607,0.034624588793166905
0.43199999999999994,-0.0005,1.603,0.0038561418943465512,0.9657021520314496,0.0034189103522036363,0.034624588793166905
0.43299999999999983,0.0038,0.603,0.003988436431781482,0.9657021520314496,0.003998492527020202,0.034624588793166905
0.43399999999999994,0.0031,-0.397,0.003967692883532231,0.9657021520314496,0.003907615072509833,0.034624588793166905
0.43499999999999983,0.0023,-0.397,0.004001329959789169,0.9362082382645336,0.004054979054345104,0.031278810065999696
0.43599999999999994,-0.0043,-1.397,0.003892737824955775,0.9482032190931019,0.00357923707062436,0.032639516278344424
0.43699999999999983,0.008,0.603,0.003966617554596245,0.9482032190931019,0.003902904058015615,0.032639516278344424
0.43799999999999994,-0.0011,-0.397,0.0039669899033924014,0.9362082382645336,0.003904535317546438,0.031278810065999696
0.43899999999999983,-0.0026,-0.397,0.004024843721438076,0.9461417048953672,0.004157992809703636,0.03240565886616636
0.43999999999999995,-0.0012,-1.397,0.004048801656839295,0.9461417048953672,0.0042629524896207515,0.03240565886616636
0.44099999999999984,0.0024,-1.397,0.003989908422702396,0.9369031994002643,0.004004941317089658,0.0313576462015669
0.44199999999999995,-0.0013,-0.397,0.004024029576505287,0.9375976454207429,0.004154426041945037,0.03143642390264939
0.44299999999999984,0.002,0.603,0.004065452810460961,0.9369031994002642,0.004335901169259144,0.031357646201566884
0.44399999999999995,0.0045,0.603,0.00409552062106446,0.927572684133481,0.004467628203492284,0.03029919598231759
0.44499999999999984,-0.0017,0.603,0.004153681981157896,0.918147353998654,0.004722433036910464,0.029229989999318955
0.44599999999999995,-0.0025,0.603,0.0042870888571642715,0.9181473539986541,0.005306888365380012,0.029229989999318966
0.44699999999999984,0.0011,-0.397,0.0042878733870951825,0.9188559752794773,0.005310325389858741,0.029310375736720004
0.44799999999999995,0.0032,-0.397,0.004336455198276414,0.8878071424938009,0.005523162233517498,0.025788207568105664
0.44899999999999984,0.0097,-0.397,0.0043437968416116845,0.8870737188142475,0.005555325962220783,0.02570500825571725
0.44999999999999996,-0.0005,0.603,0.004334641024679359,0.8878071424938009,0.00551521434164484,0.025788207568105664
0.45099999999999985,0.0031,0.603,0.004417533650656751,0.8779550111293558,0.005878366814692818,0.024670585410635583
0.45199999999999996,-0.0005,-0.397,0.0044321839046414565,0.8772133502832009,0.005942549555951102,0.024586451677098282
0.45299999999999985,0.0027,-2.397,0.004463356439413554,0.8779550111293558,0.006079116385149501,0.024670585410635583
0.45399999999999996,0.0002,-0.397,0.004476223696340427,0.87869604597905,0.0061354878189078185,0.024754648131364687
0.45499999999999985,0.0009,1.603,0.004449669057857068,0.8687405944949023,0.006019151986589551,0.023625305377526096
0.45599999999999996,0.0001,0.603,0.004455577190642661,0.855632363354272,0.00604503550767343,0.022138312459336063
0.45699999999999985,-0.005,-0.397,0.00444399563410635,0.855632363354272,0.005994296725443834,0.022138312459336063
0.45799999999999996,-0.0028,-0.397,0.004428159836262507,0.8563927141628933,0.0059249201182743644,0.022224566375339688
0.45899999999999985,-0.0024,0.603,0.00446398052985912,0.855632363354272,0.006081850524477827,0.022138312459336063
0.45999999999999996,-0.0086,-0.397,0.004509807792149359,0.8533472460042345,0.006282619693477944,0.021879089587822413
0.46099999999999985,0.0022,-0.397,0.0045056947231706486,0.8541096310867133,0.006264600344303952,0.021965574271104037
0.46199999999999997,-0.0021,0.603,0.004507609074385445,0.864233638902666,0.006272987114173269,0.023114037993212183
0.46299999999999986,-0.0011,-2.397,0.004514671239870591,0.8533472460042374,0.006303926450824327,0.02187908958782274
0.46399999999999997,-0.0022,0.603,0.004446088882841261,0.8533472460042377,0.006003467245086857,0.021879089587822777
0.46499999999999986,0.0011,-0.397,0.004499168335620794,0.8541096310867163,0.006236008250002999,0.021965574271104377
0.46599999999999997,0.0036,-0.397,0.00447645449060235,0.854109631086716,0.006136498928231409,0.02196557427110434
0.46699999999999986,-0.0025,0.603,0.004409138831376073,0.8764710618514556,0.005841589123714605,0.024502246750482487
0.46799999999999997,0.0098,0.603,0.004471191770012374,0.8764710618514556,0.006113442957031614,0.024502246750482487
0.46899999999999986,-0.0029,0.6030000000000555,0.004474566176390942,0.8764710618514556,0.006128226226435818,0.024502246750482487
0.47,0.0018,1.602999999999889,0.004644742413630431,0.8634801925689315,0.006873768072635436,0.023028567318299623
0.47099999999999986,0.0033,-0.39700000000005553,0.004651593388419177,0.8634801925689315,0.006903782183154761,0.023028567318299623
0.472,0.0044,-1.3969999999998335,0.004625684436285555,0.8634801925689315,0.006790275101789375,0.023028567318299623
0.47299999999999986,-0.0017,1.602999999999889,0.00452972835913962,0.8764710618514556,0.006369891668297564,0.024502246750482487
0.474,0.0059,-0.3969999999999445,0.00446737775239555,0.8870737188142531,0.006096733751436221,0.025705008255717893
0.47499999999999987,0.0012,0.6029999999999445,0.004531693494292172,0.8772133502832067,0.0063785009225238365,0.024586451677098938
0.476,-0.0030999999999998446,-0.39700000000005553,0.0045379693324506705,0.8878071424938065,0.006405995360308075,0.025788207568106306
0.47699999999999987,-0.0024,-1.396999999999889,0.0045294446813677865,0.8870737188142531,0.006368648876394479,0.025705008255717893
0.478,-0.00020000000000015543,0.6029999999999445,0.004529760626029747,0.8870737188142531,0.006370033029495969,0.025705008255717893
0.47899999999999987,-0.0009,-0.3969999999999445,0.0045802664319095875,0.8878071424938065,0.0065912988911125065,0.025788207568106306
0.48,0.0005999999999983791,0.603,0.0045905788123752666,0.8878071424938065,0.006636477414834802,0.025788207568106306
0.48099999999999987,-0.0067,-0.397,0.00459092848022414,0.8772133502832067,0.006638009309168786,0.024586451677098938
0.482,-0.011299999999997335,-0.397,0.004549998076801292,0.8772133502832067,0.006458693271697461,0.024586451677098938
0.4829999999999999,0.0007,-0.397,0.004682558185987891,0.864986428947309,0.007039438915969274,0.02319943421893164
0.484,0.005399999999999045,0.603,0.004666910177545115,0.8642336389026688,0.006970885013890944,0.0231140379932125
0.4849999999999999,0.0011,1.603,0.004658445823651581,0.8642336389026688,0.0069338026918756126,0.0231140379932125
0.486,0.007599999999998645,-0.397,0.004659197588744337,0.8642336389026688,0.006937096173646354,0.0231140379932125
0.4869999999999999,0.0015,-0.397,0.00464159349548835,0.8533472460042384,0.006859972666865157,0.021879089587822854
0.488,0.006999999999999445,-1.397,0.004595478581248866,0.8533472460042383,0.006657943295096533,0.02187908958782284
0.4889999999999999,0.0045,-1.397,0.004597857261498644,0.8533472460042383,0.006668364289788304,0.02187908958782284
0.49,0.0019999999999983126,0.603,0.004664601746505754,0.8541096310867169,0.006960771780887164,0.02196557427110444
0.4909999999999999,-0.0056,0.603,0.004663693468490572,0.8430925225425483,0.006956792616232416,0.02071579753095139
0.492,-0.008099999999999422,-0.397,0.004689420572131994,0.83271152320074,0.007069503019619712,0.019538180784695117
0.4929999999999999,-0.0055,0.603,0.004687698169951722,0.8334927837260298,0.007061957178189622,0.019626806691265097
0.494,0.006900000000001199,0.603,0.004706115163423963,0.8334927837260298,0.007142641999628105,0.019626806691265097
0.4949999999999999,0.0123,-1.397,0.004684345734081116,0.83271152320074,0.007047270161548632,0.019538180784695117
0.496,0.0010999999999983126,0.603,0.004715054825449418,0.8319295289982361,0.007181806645873506,0.01944947165005187
0.4969999999999999,-0.0065,0.603,0.004734273241667603,0.8311467990476517,0.007266002499188648,0.019360679052417038
0.498,0.002600000000000244,-0.397,0.004734521855051051,0.8311467990476517,0.00726709167405755,0.019360679052417038
0.4989999999999999,0.0037,0.603,0.004731376845065845,0.8311467990476517,0.007253313389916817,0.019360679052417038
0.5,-0.008599999999998935,0.603,0.004659720349618409,0.8446351170010021,0.006939386388270316,0.020890788878811448
0.5009999999999999,-0.0038,-0.397,0.004723116281642159,0.8772133502832067,0.007217123873651527,0.024586451677098938
0.502,-0.005299999999997979,0.603,0.004724482569370489,0.8764710618514556,0.007223109578189026,0.024502246750482487
0.5029999999999999,0.0038,0.603,0.004727571538207059,0.8764710618514556,0.007236642346139633,0.024502246750482487
0.504,-0.002300000000000244,0.603,0.004720919192253906,0.8430925225425483,0.007207498428258241,0.02071579753095139
0.5049999999999999,-0.0034,-0.397,0.004765034667693234,0.854109631086717,0.007400768261570658,0.021965574271104453
0.506,-0.0008999999999994226,-0.397,0.004766409311405228,0.8407733241551784,0.007406790573660358,0.020452708519100856
0.5069999999999999,0.0017,0.603,0.004771343011413948,0.8407733241551784,0.007428405106175374,0.020452708519100856
0.508,0.0057000000000001555,-0.397,0.004749051513443476,0.8518204288222249,0.007330746086202612,0.021705888008397865
0.5089999999999999,0.0064,-1.397,0.004741506374440032,0.8525841791934381,0.007297690843274989,0.021792527569531244
0.51,-9.99999999995115e-05,0.603,0.00473667827186785,0.852584179193438,0.007276538932974842,0.02179252756953123
0.5109999999999999,0.0021,-1.397,0.004725414528578615,0.8533472460042383,0.007227192490115391,0.02187908958782284
0.512,0.0027999999999995338,-0.397,0.004935720708023673,0.8533472460042383,0.008148543554365353,0.02187908958782284
0.5129999999999999,0.0007,0.603,0.00496928290408979,0.852584179193438,0.008295579486194268,0.02179252756953123
0.514,-0.007299999999998312,0.603,0.004993492845817945,0.8190268625430777,0.008401643205460739,0.017985797914156318
0.5149999999999999,0.0003,-0.397,0.004988814334258482,0.8190268625430769,0.00838114665316831,0.01798579791415623
0.5159999999999998,-0.0015,-2.397,0.004988402582323381,0.8190268625430763,0.008379342768543456,0.01798579791415617
0.5169999999999999,-0.0081,-0.397,0.005103533084580344,0.8198211641688843,0.008883729330374358,0.018075903198371233
0.5179999999999998,0.0021,-0.397,0.005186647378913338,0.819821164168882,0.009247852932163693,0.01807590319837097
0.5189999999999999,-0.0127,-0.397,0.005156290590033252,0.8533472460042285,0.009114859884523905,0.021879089587821733
0.5199999999999998,-0.0029,-0.397,0.00519134645538046,0.8525841791934273,0.009268439579286471,0.02179252756953002
0.5209999999999999,-0.0047,-0.397,0.0052179763222934645,0.839998835093755,0.009385104987244876,0.020364850764900706
0.5219999999999998,-0.0,1.603,0.005226534177013916,0.8533472460042281,0.009422596936246044,0.02187908958782168
0.5229999999999999,-0.0044,-1.397,0.00530530314375209,0.84309252254254,0.00976768366420425,0.020715797530950448
0.5239999999999998,0.0079,0.603,0.005367648308684361,0.8295791235699025,0.010040817740496068,0.019182842522955205
0.5249999999999999,0.0032,-1.397,0.005374604430173356,0.8295791235699022,0.010071292498555243,0.01918284252295517
0.5259999999999998,0.0017,-0.397,0.005375222126834636,0.8295791235699003,0.010073998626723972,0.019182842522954956
0.5269999999999999,0.0006,-0.397,0.005401294963056512,0.8634801925689104,0.010188223684040066,0.023028567318297232
0.5279999999999998,0.0068,0.603,0.00539620873036458,0.8657385644148322,0.01016594090606321,0.02328475618966344
0.5289999999999999,0.0035,0.603,0.005471924387644115,0.9011696517411105,0.01049765108975332,0.027304045701170718
0.5299999999999998,-0.0012,-0.397,0.005480736569178188,0.9018916125961393,0.010536257244152615,0.027385944674962123
0.5309999999999999,-0.002,-0.397,0.00553885136652927,0.9011696517411107,0.010790858086264713,0.027304045701170745
0.5319999999999998,-0.0111,0.603,0.005537112207015192,0.9011696517411107,0.010783238830979754,0.027304045701170745
0.5329999999999999,0.0001,-0.397,0.005474534744547888,0.9018916125961393,0.010509087059527055,0.027385944674962123
0.5339999999999998,-0.0014,-0.397,0.005475103416732061,0.9018916125961393,0.01051157841153335,0.027385944674962123
0.5349999999999999,-0.0025,-0.397,0.0054648707864736745,0.9136247700907272,0.010466749273352446,0.028716949744622623
0.5359999999999998,-0.0014,-0.397,0.005505528244151195,0.9136247700907272,0.010644869535913098,0.028716949744622623
0.5369999999999999,-0.0047,0.603,0.005530732641765034,0.9143368964311808,0.01075528996495882,0.02879773309469865
0.5379999999999998,0.0018,-0.397,0.005573684024473871,0.9143368964311808,0.010943459909723246,0.02879773309469865
0.5389999999999999,-0.0083,0.603,0.005550641347765314,0.9164699553894893,0.010842509976798698,0.02903970651819552
0.5399999999999998,0.0007,-0.397,0.005532196163958482,0.9062112991922371,0.010761701653545643,0.027875968333248714
0.5409999999999999,-0.0055,0.603,0.005553570684336981,0.9062112991922371,0.010855343396030474,0.027875968333248714
0.5419999999999998,-0.0001,0.603,0.0055583108379724504,0.9401182894124661,0.010876110002167642,0.0317223648297477
0.5429999999999999,0.0046,0.603,0.0055506444819105015,0.9520640090834022,0.010842523707484175,0.03307748287449337
0.5439999999999998,0.0002,-0.397,0.005557474803375935,0.9631861798448055,0.010872447335824304,0.03433917783391806
0.5449999999999999,0.0056,-0.397,0.005537002697815951,0.9951538053729028,0.010782759071338207,0.037965573513216846
0.5459999999999998,0.0049,-0.397,0.005399926419344007,0.9857143785094336,0.010182228096039195,0.036894768402507105
0.5469999999999999,0.0012,-0.397,0.0053989190445890445,0.9857143785094336,0.010177814788712554,0.036894768402507105
0.5479999999999998,0.0027,-0.397,0.005394269471093461,0.9850538545420597,0.010157445014035614,0.036819838806649186
0.5489999999999999,0.0052,1.603,0.0053878837586864145,0.9857143785094336,0.010129469217329346,0.036894768402507105
0.5499999999999998,0.0077,-2.397,0.005375282915541455,0.9857143785094336,0.010074264941959546,0.036894768402507105
0.5509999999999999,0.0033,-0.397,0.0053137183247618115,0.9944995508777768,0.00980455055988759,0.03789135512398423
0.5519999999999998,-0.0018,-0.397,0.005300616251801923,0.9944995508777768,0.009747150397432415,0.03789135512398423
0.5529999999999999,-0.0011,-0.397,0.005275138380972482,0.9944995508777768,0.009635531882629519,0.03789135512398423
0.5539999999999998,-0.0065,-1.397,0.005266381480733858,0.9944995508777768,0.00959716791550465,0.03789135512398423
0.5549999999999999,-0.0015,-0.397,0.005268536548219503,1.0051522752041948,0.009606609263004133,0.039099796252529406
0.5559999999999998,-0.0022,0.603,0.005274262489337763,1.0144108421621387,0.009631694602660165,0.04015008468209313
0.5569999999999999,-0.0019,-1.397,0.005295095476776131,1.0150522628654002,0.009722963890127112,0.04022284721069806
0.5579999999999998,0.0007,0.603,0.005307928041654065,1.0150522628654002,0.009779183338069817,0.04022284721069806
0.5589999999999999,0.001,0.603,0.005280264277214652,1.0242213416523305,0.009657988426561896,0.041262984135063914
0.5599999999999998,0.0079,0.603,0.005300613348945695,1.0261260037891589,0.00974713768002353,0.041479048307157255
0.5609999999999999,0.0144,-0.397,0.0053019059887905885,1.0531046276111884,0.009752800733291517,0.04453949346832962
0.5619999999999998,0.0061,-0.397,0.005303661319382872,1.044812344873585,0.009760490834046419,0.04359881996523386
0.563,0.005,0.603,0.005320362010710478,1.0454351130760382,0.009833656538302009,0.04366946656100919
0.5639999999999998,0.0002,0.602999999999889,0.005378600645745556,1.0454351130760382,0.01008879991312639,0.04366946656100919
0.565,0.0009,-0.396999999999889,0.005350532369406695,1.044812344873585,0.00996583283557921,0.04359881996523386
0.5659999999999998,-0.0114,0.603,0.005350437398879103,1.0719278691666245,0.00996541676983687,0.0466747950654731
0.567,-0.0096,0.6029999999996669,0.005451913431391163,1.0749595596841994,0.010409983119706185,0.047018708922454494
0.5679999999999998,-0.0081,-2.3969999999997778,0.005409515747575875,1.0854222838419096,0.01022423892898375,0.048205596501760845
0.569,-0.0067,-0.396999999999889,0.005415845900506441,1.0860217649350572,0.010251971319704898,0.04827360141642368
0.5699999999999998,-0.0056,0.603000000000111,0.0052703899299191646,1.0860217649350572,0.009614728925516907,0.04827360141642368
0.571,-0.0045,1.602999999999889,0.005263860673456138,1.0860217649350574,0.009586124262511545,0.0482736014164237
0.5719999999999998,0.0101,0.602999999999889,0.005244756747526801,1.0866209152987654,0.00950242999098423,0.04834156881326058
0.573,0.0083,-0.397,0.0052984930432803355,1.0761698445229673,0.009737848624007823,0.04715600318931116
0.5739999999999998,0.0065,-0.396999999999889,0.005369259938291208,1.076169844522967,0.010047878287444158,0.04715600318931113
0.575,-0.0015,0.6029999999996669,0.005345650478621659,1.076169844522967,0.009944445279197302,0.04715600318931113
0.5759999999999998,0.0061,-2.3969999999995557,0.005398951981532701,1.0761698445229668,0.010177959085414493,0.0471560031893111
0.577,-0.0004,1.603,0.0053989519815327005,1.0767744768114893,0.01017795908541449,0.04722459245368219
0.5779999999999998,-0.0091,2.603,0.005399293607603077,1.106050854558173,0.010179455748728649,0.050545693974743844
0.579,0.0032,0.603,0.005364766407931787,1.105462235092993,0.01002819213751829,0.050478921199161746
0.5799999999999998,0.008,-0.397,0.005353419144442966,1.104873302041789,0.00997847979278673,0.050412112850496446
0.581,0.0065,-0.397,0.005359076901328139,1.105462235092993,0.01000326641741743,0.050478921199161746
0.5819999999999999,0.0076,0.603,0.00536942994365432,1.1054622350929932,0.010048623080691054,0.05047892119916177
0.583,-0.0011,-0.397,0.005254279203221553,1.1133028671087921,0.009544147855441585,0.05136835961053436
0.5839999999999999,-0.0043,1.603,0.005302999424365113,1.1138873433003564,0.009757591072942662,0.051434662374681764
0.585,-0.0068,1.603,0.0053905529478133355,1.1222492031240907,0.010141162930986559,0.05238322867683142
0.5859999999999999,-0.0093,0.603,0.005386891661713707,1.1228290224093453,0.010125122841944393,0.05244900316324028
0.587,-0.0071,-0.397,0.005385270881478692,1.1228290224093453,0.0101180222061077,0.05244900316324028
0.5879999999999999,-0.0049,1.603,0.005382379463922697,1.1228290224093453,0.010105354910028064,0.05244900316324028
0.589,0.0002,-0.397,0.005394675023731566,1.1228290224093456,0.0101592217395494,0.05244900316324031
0.5899999999999999,-0.0053,0.603,0.005339146399803984,1.122249203124091,0.009915950919419365,0.05238322867683144
0.591,0.006,2.603,0.0053676603767201575,1.1228290224093456,0.010040870610543224,0.05244900316324031
0.5919999999999999,0.0075,1.603,0.005358841744111108,1.122249203124091,0.010002236193993902,0.05238322867683144
0.593,0.0061,1.603,0.005359638563400467,1.129973360132228,0.010005727058133998,0.053259454206185004
0.5939999999999999,0.005,2.603,0.005346314476319134,1.1293972086721518,0.009947354252137813,0.053194095796515024
0.595,0.0014,-0.397,0.005348883169892799,1.1393601424749713,0.009958607694923342,0.05432428734183106
0.5959999999999999,0.0004,0.603,0.005335546118713481,1.139931258415461,0.009900178093232865,0.054389074524011684
0.597,-0.0061,-0.397,0.005328754059949585,1.1405020883649124,0.009870422093732152,0.05445382926347412
0.5979999999999999,0.0001,0.603,0.005329110060093426,1.1410726327525327,0.009871981729841117,0.0545185516089075
0.599,-0.0006,0.603,0.005336936517995698,1.1410726327525327,0.009906269430452643,0.0545185516089075
0.5999999999999999,-0.0028,-1.397,0.005313319937820716,1.1393601424749713,0.009802805227281912,0.05432428734183106
0.601,-0.0005999999999996669,-0.397,0.005367172897011442,1.1222492031240907,0.010038734962653034,0.05238322867683142
0.6019999999999999,0.0009,0.603,0.0053601243743717115,1.1222492031240907,0.010007855395287769,0.05238322867683142
0.603,0.002300000000000089,0.603,0.005357400135154536,1.1222492031240907,0.009995920507265747,0.05238322867683142
0.6039999999999999,0.0027,1.603,0.005377549223230394,1.1305492179735417,0.0100841936326268,0.053324779307850595
0.605,-0.004200000000000133,-1.397,0.0054052709705011606,1.1322750342636703,0.010205642566833994,0.05352055527289013
0.6059999999999999,-0.0048,0.603,0.005403311340345596,1.1322750342636703,0.010197057429991465,0.05352055527289013
0.607,-0.004099999999999512,0.603,0.005407678505424658,1.131700054592526,0.010216189973809084,0.053455329790525495
0.6079999999999999,-0.0019,-1.397,0.0054948491318687785,1.123408542435385,0.010598084360638589,0.052514743701793896
0.609,0.00789999999999798,1.603,0.005512174483984255,1.123408542435385,0.010673986702891306,0.052514743701793896
0.6099999999999999,-0.0012,-2.397,0.005542997107342658,1.1228290224093456,0.010809020570698595,0.05244900316324031
0.611,0.0024999999999983126,0.603,0.0054881469098498675,1.1228290224093456,0.01056872193578613,0.05244900316324031
0.6119999999999999,-0.0051,0.603,0.005301639023936601,1.1228290224093456,0.00975163116065705,0.05244900316324031
0.613,0.00789999999999718,0.603,0.005301639023936601,1.123408542435385,0.00975163116065705,0.052514743701793896
0.6139999999999999,-0.0048,-0.397,0.0052798069891831145,1.123408542435385,0.009655985048365222,0.052514743701793896
0.615,-0.00010000000000233147,-2.397,0.005289610942083713,1.1234085424353855,0.009698936151669264,0.052514743701793945
0.6159999999999999,-0.0106,2.603,0.0052891702289729016,1.123408542435386,0.009697005388176024,0.052514743701794
0.617,-0.004399999999999778,1.603,0.005176451221246684,1.1311247826445403,0.009203183580353769,0.05339007115238349
0.6179999999999999,-0.0034,0.603,0.00511096735246273,1.1387887401131622,0.00891629884708295,0.05425946766812135
0.619,-0.002299999999999756,-0.397,0.005047132103175237,1.113887343300364,0.00863663671341246,0.051434662374682624
0.6199999999999999,-0.0012,-0.397,0.0050028411099655315,1.1422128665537579,0.008442597937004987,0.05464789931183649
0.621,0.0013000000000013767,0.603,0.005008657387527155,1.1422128665537574,0.008468079040487136,0.05464789931183643
0.6219999999999999,0.0075,-0.397,0.005003655987450308,1.140502088364921,0.008446167914072772,0.054453829263475105
0.623,0.0096999999999992,-1.397,0.005049041078485401,1.1481034510272181,0.008644999931451455,0.05531612504741154
0.6239999999999999,0.0061,0.603,0.004979917884761522,1.1562178837090085,0.008342171320946978,0.056236623305605346
0.625,0.008199999999998557,-1.397,0.005003403566168361,1.156217883709009,0.00844506205680612,0.056236623305605395
0.6259999999999999,0.0017,0.603,0.00500141725518711,1.1556548165245857,0.008436360031305318,0.0561727491713519
0.627,-0.0009000000000004885,2.603,0.004964201633276422,1.130549217973563,0.00827331844620014,0.05332477930785302
0.6279999999999999,-0.0031,-0.397,0.005028542499319457,1.12108866491842,0.008555195686136406,0.052251577649731935
0.629,0.0005000000000004886,-0.397,0.004969512580156992,1.1007419479606866,0.008296585696708419,0.04994345356342507
0.6299999999999999,0.0027,0.603,0.005049709065190475,1.1288207631437446,0.008647926380228417,0.05312870402784176
0.631,-0.0038999999999990227,-0.397,0.004996590876919703,1.1288207631437446,0.008415215675181869,0.05312870402784176
0.6319999999999999,0.0005,-1.397,0.004955058087980848,1.1288207631437446,0.00823326058764684,0.05312870402784176
0.633,-0.0072000000000005775,0.603,0.004935447668313194,1.1282440230962256,0.008147347367793488,0.053063278849028804
0.6339999999999999,-0.0098,-1.397,0.00495635926824885,1.1365002578091599,0.008238961056495962,0.053999863077467854
0.635,-0.0014999999999997559,0.603,0.004975110446071056,1.1270896576351932,0.00832110993908238,0.0529323280558102
0.6359999999999999,-0.0004,-0.397,0.004928977270388764,1.1170172859199976,0.008119000563959549,0.05178972191397547
0.637,0.004299999999998135,0.603,0.004911146263742376,1.126512031314423,0.008040882949947216,0.052866802338485674
0.6379999999999999,-0.0041,-0.397,0.00486376642640509,1.126512031314423,0.007833311951939035,0.052866802338485674
0.639,-0.0030000000000005773,-0.397,0.004842184844115573,1.1170172859199972,0.007738763071525182,0.05178972191397542
0.6399999999999999,-0.0056,0.603,0.004905718546808752,1.1170172859199972,0.008017104130007459,0.05178972191397542
0.641,0.0044999999999992,-0.397,0.004924100265298314,1.116434448318398,0.008097634411798471,0.05172360503087085
0.6419999999999999,0.0009,-1.397,0.004891470516995042,1.0880360279365129,0.007954683532253428,0.048502098670279145
0.6429999999999998,-0.0027,-0.397,0.004838808967189269,1.0862399270564718,0.007723973359653498,0.04829834964721702
0.6439999999999999,-0.0017,1.603,0.00480261794311956,1.0763900034279301,0.0075654205361895864,0.04718097793449562
0.6449999999999998,-0.0042,0.603,0.00478030901349929,1.0469058984337796,0.00746768514818458,0.04383631191090236
0.6459999999999999,0.0041,0.603,0.004799576065582627,1.04690589843378,0.007552094075153743,0.04383631191090241
0.6469999999999998,-0.0014,0.603,0.0048050242167808795,1.055181728836931,0.00757596241757692,0.04477511906723056
0.6479999999999999,-0.004,-0.397,0.004773981155825842,1.05579838062168,0.0074399628129815055,0.04484507181883171
0.6489999999999998,-0.0015,-1.397,0.004861292795323801,1.06400504755345,0.007822474977793429,0.04577603309641104
0.6499999999999999,0.0108,-1.397,0.004875575599650762,1.0633931547490554,0.0078850479226391,0.045706620201790504
0.6509999999999998,-0.0019,-0.397,0.004869492197811037,1.0551817288369265,0.00785839654808567,0.04477511906723006
0.6519999999999999,-0.0005,-0.397,0.004957681626927317,1.0640050475534422,0.008244754307930325,0.04577603309641016
0.6529999999999998,-0.0048,-1.397,0.005098289391987335,1.0930280053700934,0.008860756720801414,0.04906838675383988
0.6539999999999999,-0.0085,1.603,0.005096418724813704,1.092432369014785,0.00885256133065249,0.04900081798482308
0.6549999999999998,0.0002,-0.397,0.005102354690798879,1.0820374307606537,0.008878566788942988,0.047821620013480885
0.6559999999999999,-0.0031,-0.397,0.005088542771942384,1.073362353177708,0.008818056792654027,0.04683752240395633
0.6569999999999998,0.0099,-0.397,0.005077021483701469,1.0727557977317657,0.008767582045738326,0.046768714977315065
0.6579999999999999,0.0044,0.603,0.005167889967680416,1.0727557977317654,0.009165676741014055,0.04676871497731504
0.6589999999999998,0.0059,-0.397,0.005169294299484656,1.0640050475534344,0.009171829116592421,0.04577603309640927
0.6599999999999999,0.0015,0.603,0.0051141353481623806,1.080231356058001,0.008930177831605013,0.04761673956365098
0.6609999999999998,0.0026,-0.397,0.0052367584446482065,1.0621683116450882,0.009467389437783027,0.045567674450685484
0.6619999999999999,0.0061,0.603,0.005235831440107871,1.0615553601253715,0.009463328232249,0.04549814145578831
0.6629999999999998,-0.0015,0.603,0.005312537766820217,1.0615553601253715,0.00979937853727386,0.04549814145578831
0.6639999999999999,0.0032,0.603,0.005326710443281767,1.0697178615442338,0.009861469012102402,0.04642409261383148
0.6649999999999998,0.0006,-0.397,0.005310384454894447,1.080231356058001,0.009789944880879621,0.04761673956365098
0.6659999999999999,-0.0034,-1.397,0.00534447202997083,1.0539473428815676,0.009939282497383328,0.04463509077857388
0.6669999999999998,0.0049,-1.397,0.005306921587139755,1.0231812071236002,0.009774774062316128,0.0411449916567811
0.6679999999999999,-0.0006,0.603,0.005330804173928003,1.0120752458719502,0.00987940364007013,0.03988513549817949
0.6689999999999998,0.0001,2.603,0.005320838737494521,1.011431937232901,0.009835745077644948,0.039812158802833356
0.6699999999999999,-0.0061,0.603,0.005352864850057004,1.011431937232901,0.009976051429893343,0.039812158802833356
0.6709999999999998,-0.0039,-1.397,0.005406306281175273,1.0225448855472499,0.010210178261381533,0.04107280757125704
0.6719999999999999,-0.0122,-1.397,0.00544095932237384,1.0219081677463826,0.010361993184138657,0.04100057853816954
0.6729999999999998,0.0001,-1.397,0.00543884933041802,1.0310162771046338,0.010352749312469347,0.04203379911297615
0.6739999999999999,0.0081,-0.397,0.0054267673208536924,1.0219081677463824,0.010299818046256697,0.04100057853816952
0.6749999999999998,0.0004,-0.397,0.005396444738180319,1.0303847941437358,0.010166974855958437,0.041962163918208915
0.6759999999999999,-0.0007,-0.397,0.005348141674593375,1.0212710529799123,0.009955359205102153,0.04092830447345007
0.6769999999999998,0.008,0.603,0.005369884330584026,1.0206335405044404,0.010050613749164853,0.04085598529276779
0.6779999999999999,0.0048,-1.397,0.005369344524545986,0.9894894363753914,0.010048248859702503,0.03732300957801075
0.6789999999999998,0.0095,2.603,0.00538223300210782,0.9894894363753914,0.010104713261031517,0.03732300957801075
0.6799999999999999,0.0033,-0.397,0.005433608980602628,0.9901470013844205,0.01032979134760025,0.03739760351072261
0.6809999999999998,0.0011,-0.397,0.005459533179209495,0.9894894363753914,0.010443365223742602,0.03732300957801075
0.6819999999999999,0.0062,-0.397,0.005464945018075321,1.0008460540975466,0.010467074481890583,0.03861130011441214
0.6829999999999998,-0.0047,-1.397,0.0054684490569428075,0.9914608230559081,0.01048242567103895,0.03754664295779272
0.6839999999999999,-0.0061,0.603,0.005423482549322318,0.991460823055908,0.010285427466986817,0.037546642957792704
0.6849999999999998,0.0004,-0.397,0.005380081495666794,0.9819858977127768,0.010095287514463295,0.03647181091260969
0.6859999999999999,-0.0083,1.603,0.005414525055725612,0.9819858977127768,0.010246184700653872,0.03647181091260969
0.6869999999999998,0.0019,-0.397,0.0054144015169397,0.9819858977127768,0.010245643477413658,0.03647181091260969
0.688,-0.0017,0.602999999999889,0.005449318673063294,0.9813228641251046,0.010398615487270647,0.03639659662634839
0.6889999999999998,-0.0079,-0.397,0.005435046598612619,0.9819858977127768,0.010336089549997277,0.03647181091260969
0.69,-0.0068,-0.396999999999889,0.00542700799817302,0.9819858977127768,0.010300872453240309,0.03647181091260969
0.6909999999999998,-0.0021,0.6029999999997779,0.005404229400785385,0.9813228641251046,0.010201079451434092,0.03639659662634839
0.692,0.0023,-1.396999999999778,0.005419977908007729,0.9927729060358355,0.010270073638518574,0.03769548516833188
0.6929999999999998,0.0016,0.603,0.005420356875858287,0.9839723178336761,0.010271733896117042,0.036697149680338
0.694,-0.002,0.602999999999889,0.0055095139156443925,0.9953918834143245,0.010662330756889573,0.037992580998648905
0.6949999999999998,0.0045,-0.39700000000011104,0.005508126498537571,0.9839723178336761,0.010656252484575836,0.036697149680338
0.696,0.0023,-1.396999999999778,0.0054922971905852465,0.9947377855068372,0.010586904309611607,0.037918380372660425
0.6969999999999998,-0.0027,0.6029999999997779,0.005477633695421435,0.9940832572088601,0.010522663558767043,0.037844130923333115
0.698,-0.0092,-1.396999999999889,0.005478041521165662,1.0027951151450816,0.010524450242755425,0.03883240088260208
0.6989999999999998,-0.0038,-0.396999999999889,0.0054644817671211845,1.0027951151450818,0.010465044980138732,0.038832400882602106
0.7,0.0013,0.6029999999997779,0.005481222959738969,0.9934282976696946,0.010538388120487295,0.03776983255416404
0.7009999999999998,0.0093,-1.396999999999556,0.0053784633494889725,0.9839723178336761,0.010088198418427306,0.036697149680338
0.702,0.0119,2.602999999999667,0.005377502227740555,0.9846335673310385,0.010083987745454619,0.0367721615800509
0.7029999999999998,-0.0019,-0.397,0.005378002782874879,0.9940832572088603,0.010086180676765257,0.03784413092333313
0.704,-0.0037,-0.397,0.0053905800619892036,0.9846335673310385,0.01014128171815134,0.0367721615800509
0.7049999999999998,0.0018,-0.397,0.0053284243162737685,0.9737563978033608,0.009868977487171162,0.03553825947044625
0.706,0.0033,-0.397,0.005329365651533668,0.9744245799009006,0.00987310147556662,0.03561405780177285
0.7069999999999999,-0.0105,0.603,0.005320599270766068,0.9744245799009006,0.009834695974258187,0.03561405780177285
0.708,0.0022,-0.397,0.005234810186421171,0.9744245799009006,0.009458854121342735,0.03561405780177285
0.7089999999999999,-0.0025,-2.397,0.005222399146448631,0.9744245799009006,0.009404481373393423,0.03561405780177285
0.71,0.0113,-1.397,0.005206667623139467,0.9750923041266997,0.009335561592807717,0.035689804192297614
0.7109999999999999,0.0023,-0.397,0.005207633814450408,1.003443960872209,0.009339794475526396,0.03890600570318277
0.712,0.0103,0.603,0.005233543747726249,1.0316473735277807,0.00945330585527441,0.0421053904590431
0.7129999999999999,0.0088,-1.397,0.005198063141527978,1.0316473735277807,0.009297865371465179,0.0421053904590431
0.714,0.0023,1.603,0.0052279475368739795,1.0310162771046336,0.009428788863723751,0.042033799112976125
0.7149999999999999,0.006,0.603,0.005218049734028127,1.0310162771046336,0.009385426603946954,0.042033799112976125
0.716,-0.0085,-0.397,0.005217847725683328,1.0310162771046338,0.00938454160568414,0.04203379911297615
0.7169999999999999,-0.0067,-0.397,0.005207067981503945,1.0225448855472499,0.009337315562216352,0.04107280757125704
0.718,-0.0009,-0.397,0.0051867363851010075,1.0244526645555894,0.009248242868141562,0.04128922532010794
0.7189999999999999,-0.0063,-0.397,0.005204822734681407,1.0244526645555894,0.009327479139173967,0.04128922532010794
0.72,-0.0077,1.603,0.005212730342524114,0.9934282976696945,0.009362122357555729,0.03776983255416403
0.7209999999999999,-0.0063,-0.397,0.0051921059833643455,0.9934282976696945,0.009271767070271884,0.03776983255416403
0.722,-0.0074,-1.397,0.0051782179065059525,0.9846335673310385,0.009210923425888109,0.0367721615800509
0.7229999999999999,0.009,-0.397,0.0051513289079122915,0.9750923041266997,0.009093122762416129,0.035689804192297614
0.724,-0.0022,-1.397,0.005290897190154141,0.966130674842309,0.009704571202582675,0.03467320026318101
0.7249999999999999,-0.004,-0.397,0.005294730556040045,0.966130674842309,0.009721365172916581,0.03467320026318101
0.726,0.005099999999998957,-0.397,0.005295122551068122,0.966130674842309,0.009723082502560685,0.03467320026318101
0.7269999999999999,0.0004,0.603,0.005294699920292665,0.9668041272788014,0.009721230957752161,0.034749596459819475
0.728,0.004799999999997268,-0.397,0.005239820217546962,0.9668041272788014,0.009480803060369887,0.034749596459819475
0.7289999999999999,-0.0075,0.603,0.005241700492262622,0.9668041272788014,0.009489040541146377,0.034749596459819475
0.73,-0.00599999999999969,-0.397,0.005245372454741278,0.9431348058019312,0.00950512740338943,0.03206455733921874
0.7309999999999999,-0.0046,1.603,0.005235024122187439,0.9431348058019312,0.009459791373621539,0.03206455733921874
0.732,0.0019999999999992008,-0.397,0.005249634840844065,0.9438246667507245,0.009523800910665391,0.03214281491145607
0.7329999999999999,-0.0016,0.603,0.005216909921167052,0.9438246667507244,0.009380433085471327,0.032142814911456055
0.734,-0.006999999999999845,-0.397,0.0051972628899341735,0.9338665542887729,0.00929435947040433,0.031013170297274358
0.7349999999999999,-0.0063,0.603,0.0051890755857194335,0.9331693316687578,0.00925849090262618,0.03093407761976193
0.736,-9.999999999831247e-05,-0.397,0.0051896341426818674,0.9331693316687578,0.009260937939860847,0.03093407761976193
0.7369999999999999,0.0075,-0.397,0.005168555599197898,0.9310745311793827,0.009168592871717627,0.030696444222905905
0.738,0.0009999999999998445,0.603,0.0051699609356532965,0.9310745311793827,0.009174749648671245,0.030696444222905905
0.7389999999999999,0.0003,-0.397,0.005200521624833634,0.9310745311793834,0.009308635983227915,0.030696444222905996
0.74,0.0025000000000007993,-0.397,0.005140800160494309,0.9310745311793834,0.009046996335392563,0.030696444222905996
0.7409999999999999,0.0061,1.603,0.005100425320275437,0.9310745311793839,0.008870114219504484,0.030696444222906044
0.742,0.0011000000000020206,0.603,0.0051008415363075765,0.9403703011616078,0.008871937661331927,0.03175095294985742
0.7429999999999999,0.0102,1.603,0.005169723861719797,0.9303752162213098,0.009173711028115672,0.03061711419133395
0.744,0.001099999999999756,-0.397,0.005170203714952199,0.9296753752287834,0.009175813264424295,0.030537724486607108
0.7449999999999999,0.0,1.603,0.005174419757946784,0.9296753752287841,0.009194283742611073,0.030537724486607184
0.746,-0.000999999999999445,-0.397,0.00515509119243839,0.9303752162213099,0.009109605325416794,0.030617114191333963
0.7469999999999999,0.0015,-1.397,0.005156259866631422,0.9209785677544264,0.009114725285345467,0.029551161846195113
0.748,-0.0009999999999987788,-0.397,0.005159718150937793,0.9209785677544279,0.009129876023828577,0.029551161846195276
0.7489999999999999,0.0045,-0.397,0.0050859545582557664,0.9230962794959198,0.008806717832282231,0.029791394287062574
0.75,-0.002399999999999822,-0.397,0.0050977883367408555,0.9238011046060075,0.00885856159850016,0.02987134938825196
0.7509999999999999,-0.0016,0.603,0.005098058453509263,0.9230962794959215,0.008859744979667088,0.029791394287062775
0.752,-0.0008999999999984679,-1.397,0.005025452318070096,0.9230962794959285,0.008541657606607137,0.02979139428706357
0.7529999999999999,0.006,-0.397,0.004885285049349082,0.8885399607868535,0.007927585007552314,0.02587133820567214
0.754,-0.002299999999999267,0.603,0.004885285049349082,0.8885399607868536,0.007927585007552314,0.025871338205672154
0.7549999999999999,0.001,0.603,0.0048745184120532825,0.8885399607868536,0.007880416385322317,0.025871338205672154
0.756,0.0003000000000005551,-0.397,0.004873183094518592,0.8892721751900106,0.00787456636115781,0.025954400338191033
0.7569999999999999,0.0028,-0.397,0.004870024961616828,0.8997239920748492,0.007860730585538848,0.027140050600475526
0.758,-0.0025999999999984677,0.603,0.004765364447314937,0.8990002904688261,0.007402213025610526,0.02705795415653173
0.7589999999999999,0.0043,0.603,0.004788183078784388,0.8990002904688261,0.007502181416670567,0.02705795415653173
0.76,0.0018000000000008881,-2.397,0.004791025657416826,0.8664900470098735,0.007514634749497597,0.023370004098781084
0.7609999999999999,0.0058,-2.397,0.004676642376600183,0.8563927141629079,0.00701352176370277,0.02222456637534134
0.762,0.0006999999999985567,0.603,0.004674602979162378,0.8563927141629079,0.007004587166513525,0.02222456637534134
0.7629999999999999,-0.0058,-0.397,0.004575986514936354,0.8563927141629079,0.006572548581118783,0.02222456637534134
0.764,-0.00029999999999984455,0.603,0.004692275344202978,0.8454053587027839,0.007082009771883161,0.020978164814096416
0.7649999999999999,0.0004,-0.397,0.004792568333696423,0.8430925225425562,0.007521393212019955,0.020715797530952287
0.766,-0.00040000000000031086,0.603,0.004945949907884033,0.8423201659197653,0.00819335766397753,0.02062818167980611
0.7669999999999999,-0.0018,1.603,0.004885581725203009,0.8423201659197649,0.007928884744034019,0.020628181679806058
0.768,-0.004399999999999667,0.603,0.004839826783133689,0.8430925225425556,0.00772843240981587,0.020715797530952224
0.7689999999999999,-0.0029,0.603,0.004839927327562794,0.8438641722571459,0.007728872894812574,0.0208033331906922
0.7699999999999998,0.0039,0.603,0.004831980005054087,0.8438641722571453,0.007694055686537211,0.020803333190692122
0.7709999999999999,-0.0008,0.603,0.004774747397805854,0.8311467990476569,0.007443319717974123,0.019360679052417628
0.7719999999999998,-0.011,-0.397,0.004754960797415616,0.831146799047657,0.007356634650633069,0.019360679052417642
0.7729999999999999,-0.0121,0.603,0.004697468187643377,0.8198211641688911,0.007104759611392966,0.018075903198372004
0.7739999999999998,-0.0084,-0.397,0.004639975806003764,0.81982116416889,0.0068528855716015625,0.018075903198371875
0.7749999999999999,-0.0008,-0.397,0.004674501768321404,0.822199464956912,0.007004143761967396,0.01834569676480913
0.7759999999999998,-0.0001,0.603,0.0048243048029773085,0.8334927837260239,0.007660430637475727,0.01962680669126443
0.7769999999999999,-0.0026,0.603,0.0047970612979174295,0.8342733126352687,0.00754107688169426,0.019715349603579436
0.7779999999999998,0.005,-1.397,0.00488567829322802,0.8334927837260231,0.007929307808410214,0.01962680669126434
0.7789999999999999,0.0097,-1.397,0.0048832335477038595,0.8334927837260231,0.007918597381848096,0.01962680669126434
0.7799999999999998,-0.0005,-0.397,0.004908427328954559,0.8327115232007334,0.008028971300622446,0.01953818078469436
0.7809999999999999,-0.0041,0.603,0.004883296763247259,0.8327115232007334,0.00791887432905118,0.01953818078469436
0.7819999999999998,0.0021,-0.397,0.004927656643415577,0.8190268625430709,0.008113214899123481,0.01798579791415555
0.7829999999999999,-0.0012,-0.397,0.00501481357423782,0.8190268625430709,0.008495049285453594,0.01798579791415555
0.7839999999999998,0.0053,-0.397,0.0050125279618255655,0.8182317898462982,0.008485036020821757,0.017895605159933915
0.7849999999999999,-0.0009,-0.397,0.004966138585350496,0.8182317898462982,0.008281804230400858,0.017895605159933915
0.7859999999999998,0.0068,-1.397,0.004933360376708305,0.8174359438286324,0.008138202946328369,0.017805324680474664
0.7869999999999999,-0.0023,-0.397,0.0049493268136399276,0.8182317898462982,0.00820815188315014,0.017895605159933915
0.7879999999999998,-0.0059,0.603,0.005090162763999203,0.8319295289982295,0.008825153975483202,0.019449471650051113
0.7889999999999999,-0.0005,-0.397,0.0053905465360207586,0.831146799047645,0.010141134840932667,0.019360679052416282
0.7899999999999998,0.0021,-0.397,0.005513280123833001,0.8446351170009956,0.010678830509449948,0.020890788878810705
0.7909999999999999,-0.0022,-1.397,0.00554197200504079,0.8446351170009956,0.01080452959901491,0.020890788878810705
0.7919999999999998,0.0087,-0.397,0.005535122553210629,0.831146799047645,0.01077452216057492,0.019360679052416282
0.7929999999999999,-0.0018,-0.397,0.005554127129420316,0.8303633312683532,0.010857781181125903,0.019271802755764327
0.7939999999999998,-0.0029,0.603,0.0054620362382012105,0.8303633312683532,0.010454331121520702,0.019271802755764327
0.7949999999999999,0.0007,0.603,0.005503382760724036,0.8303633312683532,0.01063547017615981,0.019271802755764327
0.7959999999999998,-0.0026,0.603,0.005515321232869068,0.8166393222291819,0.01068777260514867,0.01771495621930309
0.7969999999999999,-0.0033,0.603,0.005521704712388247,0.8174359438286324,0.010715738619576459,0.017805324680474664
0.7979999999999998,0.0029,1.603,0.005519689674300233,0.805917652068173,0.010706910740662988,0.016498693900646493
0.7989999999999999,0.0051,0.603,0.005535769121580421,0.8067248611311952,0.01077735477565637,0.01659026339979061
0.7999999999999998,0.0014,-0.397,0.00554008213958729,0.8206146969627619,0.010796250101229985,0.01816592126657497
0.8009999999999999,-0.0037,-1.397,0.005601826284690734,0.821407463152944,0.011066751110531639,0.01825585237153751
0.8019999999999998,0.0018,0.603,0.005688684360152783,0.8206146969627619,0.011447276211966275,0.01816592126657497
0.8029999999999999,-0.0019,-0.397,0.005709313948474369,0.8099456526060403,0.01153765440820039,0.016955628799796157
0.8039999999999998,0.0017,-0.397,0.00568572295018876,0.8107488512649859,0.011434302279249546,0.017046743360177204
0.8049999999999999,0.0014,0.603,0.0057084464772090004,0.8099456526060403,0.01153385401785683,0.016955628799796157
0.8059999999999998,0.0028,-1.397,0.005725447895551538,0.8099456526060403,0.011608337206724556,0.016955628799796157
0.8069999999999999,-0.003,-0.397,0.005743588095829402,0.8446351170009955,0.01168780939758371,0.02089078887881069
0.8079999999999998,-0.0052,-0.397,0.005751452609034811,0.8454053587027675,0.011722263818422564,0.02097816481409455
0.8089999999999999,-0.003,-0.397,0.005747104489514134,0.8454053587027675,0.011703214713168346,0.02097816481409455
0.8099999999999998,-0.0045,0.603,0.005762880080136372,0.8454053587027675,0.01177232755258811,0.02097816481409455
0.8109999999999999,-0.0019,-0.397,0.0057903975385689465,0.8115512549922917,0.011892881497694274,0.017137767743805505
0.8119999999999998,0.0039,0.603,0.005807410325821463,0.7762220419672278,0.011967414493739973,0.01313003481554932
0.813,0.0136,-0.39700000000011104,0.005842920649046506,0.789824283045186,0.012122985167799985,0.014673068039287921
0.8139999999999998,0.01,-1.396999999999889,0.005815321398065948,0.7906479227443223,0.012002072889660853,0.014766501423748126
0.815,0.0136,-0.397,0.005820513159568317,0.789824283045186,0.012024817989201731,0.014673068039287921
0.8159999999999998,0.0035,-0.396999999999889,0.005842894376287971,0.789824283045186,0.012122870066883305,0.014673068039287921
0.817,-0.0002,0.603,0.005856267429152782,0.7889997835460874,0.01218145739190522,0.014579537119436287
0.8179999999999998,0.0009,0.602999999999889,0.005898028011845178,0.786521099195415,0.01236441044354101,0.014298356078582214
0.819,0.0056,-0.396999999999889,0.005888584499683635,0.7856931333717345,0.01232303843058707,0.01420443194014525
0.8199999999999998,-0.002,0.602999999999889,0.006001285666377369,0.7848642941142275,0.012816782076872134,0.014110408719696337
0.821,0.0045,-0.397,0.005991351570110789,0.784034578652852,0.012773260815672264,0.014016286103002923
0.8219999999999998,0.0001,-0.397,0.005990857377785934,0.784034578652852,0.012771095759820595,0.014016286103002923
0.823,-0.0053,-0.396999999999778,0.0058916088315901895,0.7848642941142275,0.01233628802424191,0.014110408719696337
0.8239999999999998,-0.0061,1.602999999999667,0.005797435022906892,0.7840345786528519,0.011923712706275581,0.01401628610300291
0.825,-0.0126,-1.396999999999778,0.00575731233010188,0.7958696381137337,0.011747935247838468,0.015358850894230948
0.8259999999999998,-0.0003,0.602999999999889,0.005758200666910831,0.7958696381137337,0.011751827050097911,0.015358850894230948
0.827,-0.0093,-0.397,0.005761762783499664,0.7958696381137337,0.011767432677658469,0.015358850894230948
0.8279999999999998,-0.0046,-0.397,0.005773789854639616,0.8067248611311952,0.01182012325871436,0.01659026339979061
0.829,-0.009,-0.397,0.005779771957665799,0.8067248611311952,0.011846330843313968,0.01659026339979061
0.8299999999999998,0.0033,-0.397,0.005698087906854159,0.7950514079097124,0.011488473136297738,0.015266031160906478
0.831,0.008,-0.397,0.005722238239823779,0.8067248611311952,0.011594275709680342,0.01659026339979061
0.8319999999999999,0.0095,-0.397,0.005707769743805941,0.805917652068173,0.0115308892498088,0.016498693900646493
0.833,0.0004,-0.397,0.005779561266195754,0.8067248611311952,0.011845407804292165,0.01659026339979061
0.8339999999999999,0.0015,-0.397,0.005781738136254612,0.8067248611311952,0.011854944668832973,0.01659026339979061
0.835,0.0026,-0.397,0.005791219547783153,0.8182317898462982,0.01189648271885825,0.017895605159933915
0.8359999999999999,-0.004,0.603,0.0057906060660066925,0.8295791235699023,0.011893795056093745,0.01918284252295518
0.837,-0.0141,1.603,0.005750739896180763,0.8190268625430709,0.011719141424452427,0.01798579791415555
0.8379999999999999,-0.0178,-0.397,0.005764845195438501,0.8190268625430709,0.011780936719849708,0.01798579791415555
0.839,-0.0116,1.603,0.005748281387302977,0.8190268625430709,0.011708370700658229,0.01798579791415555
0.8399999999999999,-0.0062,-0.397,0.005832259973982173,0.8327115232007334,0.012076280765950905,0.01953818078469436
0.841,-0.0055,-0.397,0.005882660572930593,0.8461748992823084,0.01229708571615492,0.021065461214330457
0.8419999999999999,0.0047,-0.397,0.005910967150041149,0.8358321838022055,0.01242109678903401,0.019892187375261737
0.843,-0.0018,1.603,0.005847800583216148,0.8492460884712411,0.012144364152252717,0.02141385578605946
0.8439999999999999,0.0068,-0.397,0.0058451260872285915,0.8492460884712411,0.012132647189246826,0.02141385578605946
0.845,0.0036,-0.397,0.005839350632753003,0.8484793333556413,0.01210734493164483,0.021326875367828294
0.8459999999999999,0.0028,0.603,0.005843533256447806,0.8484793333556413,0.012125668999928191,0.021326875367828294
0.847,0.0003,-0.397,0.0058385186559071845,0.8484793333556413,0.012103700042301355,0.021326875367828294
0.8479999999999999,0.0043,0.603,0.0058418865966050545,0.8586697268609709,0.012118454985567888,0.02248286985811664
0.849,0.005,1.603,0.005852867518042634,0.8454053587027676,0.012166562386309303,0.020978164814094563
0.8499999999999999,0.0086,0.603,0.005843578471580971,0.8446351170009956,0.012125867087360388,0.020890788878810705
0.8509999999999998,0.01,-0.397,0.005844692090287498,0.8454053587027676,0.012130745849283291,0.020978164814094563
0.8520000000000001,0.004899999999996447,0.603,0.00583325894448486,0.8350531119800071,0.012080657254260635,0.019803809754365232
0.853,-0.0031,0.603,0.005831486211002259,0.8454053587027676,0.012072890911468731,0.020978164814094563
0.8539999999999999,-0.0056,-0.397,0.005848431761128994,0.8454053587027676,0.01214712934176482,0.020978164814094563
0.8549999999999998,0.0045,0.603,0.005869203224126601,0.8586697268609709,0.012238129090746865,0.02248286985811664
0.8560000000000001,-0.004599999999996137,-2.397,0.005869576169581003,0.8586697268609709,0.012239762964236591,0.02248286985811664
0.857,0.0041,0.603,0.0058634140098261164,0.8477118847105801,0.012212766551372144,0.021239816275870165
0.8579999999999999,-0.0013,0.603,0.00585587669414443,0.8484793333556413,0.012179745582405685,0.021326875367828294
0.8589999999999998,-0.0061,0.603,0.005859545680364583,0.8484793333556413,0.012195819405664596,0.021326875367828294
0.8600000000000001,0.005900000000000622,0.603,0.005879955748088195,0.8594273904638855,0.01228523588248037,0.022568818938493492
0.861,0.0073,0.603,0.005863817306560152,0.8586697268609709,0.012214533393773505,0.02248286985811664
0.8619999999999999,-0.0065,1.603,0.005973106283640044,0.8594273904638855,0.012693328242355948,0.022568818938493492
0.8629999999999998,-0.0011,0.603,0.005960684308358439,0.8594273904638855,0.012638907586833635,0.022568818938493492
0.8640000000000001,-0.002499999999996625,-0.397,0.005847657393862614,0.8601843867053345,0.012143736839904521,0.022654692313631198
0.865,0.0051,-0.397,0.005761169482026647,0.8492460884712424,0.011764833424773805,0.02141385578605961
0.8659999999999999,-0.004,-0.397,0.005598160311711356,0.8500121519341796,0.01105069048827615,0.021500757743467186
0.8669999999999998,0.0072,-1.397,0.00561281450949982,0.8500121519341802,0.011114890507332928,0.021500757743467262
0.8680000000000001,0.002800000000004041,-0.397,0.005617204320524544,0.8492460884712429,0.011134122263005341,0.021413855786059675
0.869,0.0119,-0.397,0.0056853808882278475,0.8492460884712437,0.011432803706299583,0.02141385578605976
0.8699999999999999,-0.0019,-0.397,0.005659131647275496,0.8500121519341816,0.011317805820117542,0.02150075774346741
0.8709999999999998,-0.0001,0.603,0.005657123782055525,0.849246088471245,0.011309009365528467,0.021413855786059914
0.8720000000000001,-0.001600000000001954,0.603,0.005643971891465529,0.8624513888259725,0.011251390952108723,0.022911860200186214
0.873,-0.006,-0.397,0.005675475353774082,0.8632057331481983,0.01138940757435984,0.022997432742582855
0.8739999999999999,-0.0049,-1.397,0.005766217842030854,0.8632057331481994,0.011786950282561182,0.022997432742582983
0.8749999999999998,-0.0013,-0.397,0.005734434759154028,0.8609407173456963,0.011647708643009843,0.02274049018322645
0.8760000000000001,0.0020000000000011103,0.603,0.0055956716618405945,0.883129197304482,0.011039787716835853,0.025257543186804267
0.877,0.0045,-1.397,0.005595631815649779,0.8929242408107873,0.011039613150732227,0.026368689318649084
0.8779999999999999,-0.0057,-1.397,0.005531145380619731,0.903333803295023,0.010757098173276977,0.027549546257274207
0.8789999999999998,0.0009,-0.397,0.00551241200003988,0.903333803295023,0.010675027260383262,0.027549546257274207
0.8800000000000001,-0.0052999999999975575,-1.397,0.00560569343396695,0.9136247700907533,0.011083693085849038,0.028716949744625582
0.881,0.0002,-0.397,0.005653745217853173,0.9143368964312069,0.011294207880704349,0.028797733094701614
0.8819999999999999,0.0093,0.603,0.005605201655451447,0.9245053923711759,0.011081538604892608,0.029951243533231385
0.8829999999999998,-0.002,-0.397,0.005524889156838917,0.934563256752218,0.010729689666052655,0.031092203968416856
0.8840000000000001,-0.0062999999999971135,-1.397,0.005530052583753565,0.934563256752218,0.010752310631806213,0.031092203968416856
0.885,0.0002,-1.397,0.0055408046267859746,0.9352594402214723,0.010799415316589666,0.031171178765049292
0.8859999999999999,-0.0008,0.603,0.005547789176099504,0.9359551058546832,0.010830014616906506,0.03125009481855146
0.8869999999999998,0.0046,-0.397,0.005535135988330679,0.9352594402214722,0.010774581019816187,0.031171178765049278
0.8880000000000001,0.0038999999999938715,0.603,0.0053536136001470416,0.923801104606025,0.009979331702941591,0.02987134938825395
0.889,-0.0099,1.603,0.005057896482929331,0.923801104606025,0.008683795445355554,0.02987134938825395
0.8899999999999999,-0.008,1.603,0.004928959856434422,0.9114850528490156,0.00811892427345107,0.028474221007906034
0.8909999999999998,-0.0062,0.603,0.004892681519259712,0.9114850528490146,0.00795998893140198,0.02847422100790592
0.8920000000000001,-0.0013999999999993339,1.603,0.004871676314101074,0.9238011046060222,0.007867965158354667,0.029871349388253622
0.893,0.0001,-0.397,0.004869276716746179,0.9245053923711729,0.007857452525856004,0.029951243533231045
0.8939999999999999,0.0012,-0.397,0.004878100792514124,0.9129120882490859,0.007896110788876476,0.02863610337869622
0.8949999999999998,0.0023,0.603,0.004835693769103829,0.9136247700907496,0.007710325681401992,0.028716949744625166
0.8960000000000001,-0.0008999999999979128,0.603,0.004869405613952145,0.913624770090749,0.007858017224326625,0.028716949744625103
0.897,0.0038,-1.397,0.004870895292572512,0.913624770090749,0.007864543504181492,0.028716949744625103
0.8979999999999999,0.0046,-0.397,0.004876341080659588,0.9143368964312033,0.00788840149381806,0.028797733094701208
0.8989999999999998,0.0039,-0.397,0.004881031927867215,0.9259123607704518,0.007908952088567038,0.03011084951083393
0.8999999999999997,0.0018,0.603,0.004855263689882934,0.9143368964312001,0.007796061475683903,0.028797733094700843
0.901,-0.0004,0.603,0.0048038143270715105,0.9238011046060134,0.007570661892531514,0.02987134938825263
0.9019999999999999,0.0011,-1.397,0.004777386435192894,0.935955105854668,0.007454881336903058,0.031250094818549734
0.9029999999999998,0.0048,-0.397,0.004757127419266697,0.9352594402214585,0.00736612661779061,0.031171178765047717
0.9039999999999997,0.0052,1.603,0.004752162445225803,0.9947377855068374,0.007344375073786427,0.037918380372660446
0.905,-0.0016,0.603,0.00476849583043738,0.9953918834143246,0.007415931610485445,0.03799258099864892
0.9059999999999999,-0.0009,-0.397,0.0047473723033524895,0.9953918834143246,0.007323389469252449,0.03799258099864892
0.9069999999999998,-0.0001,0.603,0.004796380368826842,0.9668041272788009,0.0075380937323453094,0.034749596459819426
0.9079999999999997,-0.0056,-0.397,0.004835964115418029,0.9661306748423079,0.007711510068208704,0.03467320026318089
0.909,0.0057,-1.397,0.00502267908932565,0.9661306748423073,0.008529508095537864,0.034673200263180826
0.9099999999999999,0.001,-0.397,0.004987339198905466,0.9654567526405217,0.008374684087346419,0.03459675077654032
0.9109999999999998,0.0115,0.603,0.004961238179984935,0.9654567526405217,0.008260335561668776,0.03459675077654032
0.9119999999999997,-0.0008,0.603,0.0049092105542279186,0.9744245799008985,0.008032402609398354,0.035614057801772604
0.913,0.0072,0.603,0.004904096710148306,0.96343215758193,0.008009998865972496,0.034367081457924414
0.9139999999999999,-0.0004,-0.397,0.004903108766923275,0.9627563464402108,0.008005670688150033,0.03429041769063277
0.9149999999999998,0.0007,0.603,0.004897330785808834,0.96343215758193,0.007980357361346923,0.034367081457924414
0.9159999999999997,-0.0054,-0.397,0.004886596824958057,0.96343215758193,0.007933331894574727,0.034367081457924414
0.917,0.0022,-0.397,0.004870961894886862,0.9641074949999313,0.007864835288823147,0.03444369148617178
0.9179999999999999,0.0088,0.603,0.004831032626690495,0.9543610436135331,0.007689905223313326,0.0333380576265326
0.9189999999999998,-0.0014,0.603,0.004858381646284252,0.9543610436135331,0.007809721238113231,0.0333380576265326
0.9199999999999997,-0.0013,-0.397,0.004710825689797907,0.9550427954909568,0.007163278808775907,0.03341539530869702
0.921,-0.0024,1.603,0.0047354402537162854,0.9557240610507047,0.00727111517726536,0.03349267782316321
0.9219999999999999,-0.006,0.603,0.004790265279408484,0.9550427954909568,0.007511303534556285,0.03341539530869702
0.9229999999999998,-0.0115,-0.397,0.004818862184047811,0.9550427954909568,0.007636586531913866,0.03341539530869702
0.9239999999999997,-0.0006,-1.397,0.004787856990395986,0.9557240610507047,0.007500752823918385,0.03349267782316321
0.925,0.0009,-2.397,0.004767079039294653,0.9465790828955553,0.007409724650563413,0.03245527486560017
0.9259999999999999,-0.0002,-1.397,0.004797855520112859,0.9465790828955553,0.0075445563679696565,0.03245527486560017
0.9269999999999998,-0.0038,-1.397,0.0048037602305824115,0.9465790828955553,0.007570424895891972,0.03245527486560017
0.9279999999999997,-0.0005,-0.397,0.0048240528187692335,0.9373448882239288,0.0076593266950290674,0.03140775121922996
0.929,-0.0136,-1.397,0.004836832114764141,0.9280188138091107,0.007715312772073225,0.030349804768593825
0.9299999999999999,-0.0081,0.603,0.004841539205151604,0.9280188138091107,0.007735934528169282,0.030349804768593825
0.9309999999999998,0.0031,-1.397,0.004818585879842654,0.9520640090833952,0.007635376043595596,0.033077482874492574
0.9319999999999997,-0.0012,-1.397,0.004886587904368998,0.9520640090833952,0.00793329281348712,0.033077482874492574
0.933,0.0024,-0.397,0.004799508101856987,0.9520640090833952,0.007551796326171219,0.033077482874492574
0.9339999999999999,-0.0038,0.603,0.004817205852042305,0.9520640090833952,0.0076293301438226995,0.033077482874492574
0.9349999999999998,0.0038,0.603,0.004777884017037159,0.9520640090833952,0.007457061242234299,0.033077482874492574
0.9359999999999997,0.0013,-0.397,0.004790104998245473,0.9421929829095612,0.007510601343015792,0.03195771729679665
0.937,0.0006,0.603,0.00479019529885733,0.9415019263878047,0.007510996949864133,0.03187932409920222
0.938,0.0028,-0.397,0.004770571132014487,0.9415019263878047,0.007425023503656408,0.03187932409920222
0.9389999999999998,-0.0023,-0.397,0.004754725629543007,0.9415019263878047,0.0073556043805274645,0.03187932409920222
0.9399999999999997,-0.0016,-0.396999999999778,0.004653937447865177,0.9294204635620027,0.0069140515041558655,0.030508807400907268
0.9410000000000001,-0.0031,1.602999999999889,0.00458515140128666,0.9171798726442206,0.00661269993480162,0.029120239270399924
0.942,-0.0045,0.603,0.004587251030954309,0.9266150438448156,0.006621898409301627,0.030190561620278833
0.9429999999999998,0.0034,0.603,0.004603731728308063,0.9143368964311734,0.006694100320279852,0.02879773309469782
0.9439999999999997,0.0023,0.602999999999889,0.004657730439261821,0.9143368964311734,0.006930668593911434,0.02879773309469782
0.9450000000000001,-0.0068,-0.396999999999889,0.004657036679828455,0.9150484685673541,0.006927629234849554,0.02887845357604502
0.946,-0.0031,0.603,0.004664167087966531,0.9150484685673541,0.00695886754246319,0.02887845357604502
0.9469999999999998,0.0023,0.603000000000111,0.0046634053421848315,0.9143368964311734,0.006955530335308799,0.02879773309469782
0.9479999999999997,0.0048,1.602999999999889,0.004690543797383428,0.9143368964311734,0.007074423867801783,0.02879773309469782
0.9490000000000001,0.0004,0.6029999999997779,0.00472638498774536,0.9143368964311734,0.007231444070304099,0.02879773309469782
0.95,-0.005,-1.396999999999667,0.004757838688900378,0.9452028781543416,0.007369242689014433,0.032299158706050525
0.9509999999999998,-0.0087,1.602999999999778,0.004754742912015676,0.9445140238340464,0.0073556800950149255,0.03222101532537969
0.9519999999999997,0.0022,-0.3970000000003331,0.004754628092473232,0.944514023834049,0.007355177070767579,0.03222101532537999
0.9530000000000001,-0.0022,-3.3969999999995557,0.004758723562616986,0.9681496267764942,0.007373119319471394,0.034902229427840305
0.954,0.0068,0.603,0.004736791056980631,0.9688216757894804,0.007277033044388813,0.034978466420632535
0.9549999999999998,0.0006,0.603,0.004714114506487844,0.9688216757894804,0.007177687109879526,0.034978466420632535
0.9559999999999997,0.0082,0.602999999999889,0.004712949379849503,0.9681496267764955,0.007172582691782757,0.03490222942784046
0.9570000000000001,0.0074,-0.396999999999889,0.004737270214963181,0.9681496267764955,0.0072791322348088544,0.03490222942784046
0.958,0.0136,0.602999999999889,0.004752265620700224,0.9674771109310017,0.007344827085388811,0.03482593947774031
0.9589999999999999,0.0012,-0.396999999999889,0.004722096070299268,0.9674771109310017,0.007212654329251965,0.03482593947774031
0.9599999999999997,0.003,0.603,0.004699358573379454,0.958444280842414,0.007113041388535099,0.03380125855558974
0.9610000000000001,0.0015,-1.397,0.004708275073162389,0.9681496267764929,0.007152104561029932,0.03490222942784015
0.962,-0.0061,0.603,0.0045659306642599215,0.9674771109309983,0.006528493914027606,0.034825939477739924
0.9629999999999999,0.0004,-0.397,0.0045991659580725324,0.9674771109309983,0.00667409768756251,0.034825939477739924
0.9639999999999997,-0.0007,0.603,0.00454654989109464,0.9674771109309996,0.006443586775164937,0.03482593947774008
0.9650000000000001,-0.004,-0.397,0.004554247722833152,0.979089086589945,0.006477310964741342,0.03614319772454701
0.966,0.0007,0.603,0.0045579394964067425,0.9790890865899438,0.006493484619362301,0.03614319772454687
0.9669999999999999,-0.0037,-0.397,0.004564103647702771,0.9790890865899436,0.006520489757165572,0.03614319772454686
0.9679999999999997,-0.0059,-0.397,0.004734229792590197,0.979753631854252,0.007265812148844143,0.03621858349484964
0.9690000000000001,0.001,0.603,0.004698835068949897,0.9790890865899423,0.0071107479163956475,0.03614319772454671
0.97,-0.0052,0.603,0.004754346101623611,0.9784240899668488,0.00735394166926824,0.0360677607522694
0.9709999999999999,0.0072,-0.397,0.004758073786960643,0.9790890865899414,0.007370272653272259,0.036143197724546605
0.9719999999999998,-0.0055,0.603,0.004767537986393419,0.967477110930995,0.007411735297131184,0.03482593947773954
0.9730000000000001,0.0024,0.603,0.004787928959649467,0.967477110930995,0.00750106812111252,0.03482593947773954
0.974,-0.002,0.603,0.004649362139233102,0.9674771109309949,0.0068940070837372296,0.034825939477739536
0.9749999999999999,-0.0056,-0.397,0.0047033213401880955,0.9577649501978313,0.007130402264122067,0.033724195537188056
0.9759999999999998,0.0031,0.603,0.004744781487605225,0.9273171944548388,0.007312039109256769,0.030270213327164824
0.9770000000000001,0.006299999999994227,0.603,0.004746605355716198,0.9171798726442174,0.007320029472780705,0.02912023927039956
0.978,-0.0067,0.603,0.00473239161622455,0.9076466262195889,0.007257759100877428,0.028038791303187302
0.9789999999999999,0.0023,-0.397,0.004785523970001695,0.9076466262195889,0.007490531864986657,0.028038791303187302
0.9799999999999998,-0.0024,2.603,0.004756916199077851,0.8972870988373073,0.007365201262452515,0.02686361032812038
0.9810000000000001,0.008099999999997113,-0.397,0.004690735170110018,0.896561430180778,0.0070752622714367955,0.026781290742690828
0.982,0.0016,0.603,0.004690735170110018,0.8860723095435675,0.0070752622714367955,0.025591408756460994
0.9829999999999999,-0.0046,-0.397,0.004708281658116881,0.8762006716751654,0.007152133409705922,0.024471573788358292
0.9839999999999998,-0.0013,-1.397,0.004706159488156844,0.8762006716751654,0.007142836186217961,0.024471573788358292
0.9850000000000001,0.0033999999999988454,-0.397,0.004701065369921145,0.8762006716751654,0.007120518861685411,0.024471573788358292
0.986,0.0008,-0.397,0.004701441511381089,0.8762006716751654,0.007122166736870736,0.024471573788358292
0.9869999999999999,0.0016,-0.397,0.004701292001790259,0.8769431889786706,0.007121511735572199,0.024555804678102335
0.9879999999999998,-0.0006,0.603,0.004705442234059479,0.8769431889786706,0.007139693897067503,0.024555804678102335
0.9890000000000001,0.001599999999999334,-0.397,0.00472168063318496,0.8776850781163765,0.007210834299862401,0.0246399643089492
0.99,0.0001,-0.397,0.004728976545888124,0.8776850781163765,0.007242797682733378,0.0246399643089492
0.9909999999999999,0.0063,-1.397,0.004810781438787665,0.8776850781163776,0.007601184798759785,0.024639964308949325
0.9919999999999998,0.0041,-0.397,0.004818662784755501,0.865464821177664,0.007635712963906185,0.02325370285754681
0.9930000000000001,-0.007099999999996448,-0.397,0.0048235609965311755,0.8647124476055704,0.007657172022524188,0.023168353876320144
0.994,0.0009,0.603,0.0048114488594776525,0.8647124476055704,0.007604108767825483,0.023168353876320144
0.9949999999999999,-0.0035,0.603,0.004809087573618942,0.8965614301807817,0.007593763977935515,0.026781290742691245
0.9959999999999998,0.0002,-0.397,0.004769814670298677,0.8965614301807823,0.007421709445986939,0.026781290742691307
0.9970000000000001,0.006300000000000488,-1.397,0.004845605002249637,0.8965614301807823,0.0077537467793032345,0.026781290742691307
0.998,0.0074,-0.397,0.004842254971472747,0.895835173698677,0.007739070299374291,0.02669890447454467
0.9989999999999999,0.0067,-2.397,0.004845337492508754,0.8838658941172426,0.007752574819520073,0.025341113802219543
0.9999999999999998,0.0006,-0.397,0.004936006649414653,0.883129197304452,0.008149796263180603,0.025257543186800867
1.0010000000000001,-0.00020000000000093259,0.6030000000004441,0.0050142223814043435,0.8831291973044574,0.008492459270515668,0.025257543186801474
1.002,-0.0023,2.603,0.004940038590855182,0.8809154103405239,0.008167460192728598,0.025006412008045632
1.003,-0.0016,0.603000000000222,0.004947603882543405,0.8809154103405222,0.008200603724538732,0.02500641200804544
1.0039999999999998,0.0024,1.603,0.004943434145122685,0.8237811842228373,0.008182336111003264,0.018525126416435077
1.0050000000000001,-0.0012000000000016431,-0.397,0.004904220466059651,0.8229907045814738,0.008010541040438914,0.01843545469672932
1.006,-0.0049,-0.397,0.004915405945827041,0.8229907045814738,0.008059544610923744,0.01843545469672932
1.007,-0.0038,-0.397,0.004865758203488468,0.8229907045814745,0.00784203792442525,0.018435454696729397
1.0079999999999998,-0.0016,-0.397,0.004920490318088249,0.8237811842228386,0.008081819238356318,0.01852512641643523
1.0090000000000001,-0.0033999999999998667,0.6029999999995559,0.00479907337246967,0.8237811842228394,0.007549891777361846,0.018525126416435316
1.01,-0.0031,-1.397,0.004829764852421735,0.82378118422284,0.007684351106097972,0.018525126416435382
1.011,0.0009,-0.396999999999778,0.0048202751358109525,0.8342733126352812,0.0076427766715195565,0.01971534960358085
1.0119999999999998,-0.0056,0.603,0.004950270443107356,0.8366105301343357,0.008212285922465423,0.019980482696831815
1.0130000000000001,0.0019999999999979127,0.603000000000222,0.004962115560648183,0.8366105301343357,0.008264179365069938,0.019980482696831815
1.014,-0.0027,1.603,0.005141592673515688,0.8366105301343357,0.009050468333778946,0.019980482696831815
1.015,-0.002,0.6029999999997779,0.005193751301793078,0.8366105301343357,0.009278975207899333,0.019980482696831815
1.0159999999999998,-0.0059,-0.397,0.005186244237358704,0.8366105301343357,0.009246086769603062,0.019980482696831815
1.0170000000000001,-0.012799999999997291,0.6029999999997779,0.00520058261192855,0.835832183802218,0.009308903167601454,0.01989218737526316
1.018,-0.0067,-0.397,0.005195293447014726,0.8366105301343357,0.009285731343857594,0.019980482696831815
1.019,-0.0074,-0.396999999999778,0.005164879791315818,0.8500121519341906,0.009152489162767802,0.02150075774346843
1.0199999999999998,-0.0023,0.603,0.005230566920452544,0.8492460884712534,0.009440264379346534,0.021413855786060858
1.0210000000000001,0.0038000000000015985,-0.396999999999778,0.005259068082462432,0.8484793333556536,0.009565127928384718,0.02132687536782969
1.022,0.0074,0.603,0.005209179402303706,0.8492460884712534,0.009346565693648879,0.021413855786060858
1.023,0.0009,-0.397,0.0051867348160267385,0.8484793333556536,0.009248235994029488,0.02132687536782969
1.0239999999999998,0.0071,-0.397,0.00518105398459773,0.8484793333556535,0.009223348279856027,0.02132687536782968
1.0250000000000001,0.00629999999999778,-0.397,0.005177806510419486,0.8477118847105923,0.009209121100235605,0.021239816275871553
1.026,0.0013,-0.397,0.005155738562744315,0.8484793333556535,0.009112441453779265,0.02132687536782968
1.027,-0.0009,0.603,0.005158635235398594,0.8484793333556535,0.009125131772436786,0.02132687536782968
1.0279999999999998,0.0071,-0.397,0.005122946845178008,0.8477118847105924,0.008968780987130002,0.021239816275871563
1.0289999999999997,0.0125,-0.397,0.0050855834221499386,0.8469437406507678,0.008805091885545962,0.021152678296318513
1.03,0.0016,-0.397,0.005095768085864782,0.8601843867053472,0.00884971088236983,0.022654692313632648
1.031,0.0031,-0.397,0.005090240666745132,0.835832183802218,0.008825495267299066,0.01989218737526316
1.0319999999999998,0.0042,0.603,0.005038017162734668,0.835832183802218,0.008596704172687063,0.01989218737526316
1.0329999999999997,-0.002,-0.397,0.005070152059555421,0.8484793333556536,0.008737487108611672,0.02132687536782969
1.034,-0.0031,0.603,0.0050688566890146666,0.861696384137588,0.008731812092169115,0.022826212746095465
1.035,-0.0039,0.603,0.005082037222898755,0.8838658941172716,0.008789555991818342,0.02534111380222283
1.0359999999999998,-0.0013,0.603,0.005093393692179591,0.8846019774089324,0.008839308667111242,0.02542461482003026
1.0369999999999997,-0.0021,0.603,0.005100265955107928,0.8853374487097352,0.008869416040938946,0.025508046413819895
1.038,0.0048,0.603,0.0051013111079791515,0.8860723095436018,0.00887399485413762,0.025591408756464883
1.039,-0.0035,-0.397,0.00511885479970896,0.8958351736987076,0.008950853741921061,0.026698904474548132
1.0399999999999998,-0.009,-0.397,0.00512046618000895,0.896561430180812,0.008957913196656177,0.026781290742694683
1.0409999999999997,0.0041,0.603,0.005129390013151093,0.8972870988373414,0.008997008496586965,0.026863610328124246
1.042,-0.005,-0.397,0.005103845227686077,0.8868065614281405,0.00888509682886358,0.025674702020122134
1.043,-0.0003,0.603,0.005103845227686077,0.8868065614281405,0.00888509682886358,0.025674702020122134
