time_sec,bts_raw,diy_raw,bts_rms,diy_rms,bts_norm_rms,diy_norm_rms
0.0,-0.003099999999999933,-1.407,0.0067223806912581185,0.6341171249103569,0.013498678786133008,0.0
0.0010000000000000009,-0.0019000000000002,0.593,0.006743742714952174,0.6541058607710094,0.013568462072980784,0.0012539746226472655
0.0020000000000000018,-0.005500000000000305,0.593,0.006758110419883811,0.6568948506432716,0.013615397030499235,0.0014289392900988685
0.0030000000000000027,-0.010999999999999633,-0.407,0.006793928320657083,0.749298309326491,0.013732403306671555,0.007225783724952972
0.0040000000000000036,-0.004399999999999762,0.593,0.006754377766665754,0.7662883956774653,0.01360320357851409,0.008291640879163823
0.0050000000000000044,-0.0001000000000006828,-1.407,0.0064643851203061,0.7788883812775228,0.012655885088726405,0.009082089174560793
0.006000000000000005,-0.012399999999999894,0.593,0.0063821130141455944,0.7912877577899811,0.01238712693800088,0.009859952446738908
0.007000000000000006,-0.010499999999998635,0.593,0.006381383273878321,0.8034958125388532,0.012384743096697976,0.010625813327271565
0.008000000000000007,0.014100000000000204,-0.407,0.006391341848822196,0.8044677166862515,0.01241727475670624,0.010686784823667304
0.009000000000000008,0.017799999999999094,0.593,0.006350567583838805,0.8054384480600056,0.012284077533910585,0.0107476827472069
0.010000000000000009,0.0014999999999995225,0.593,0.00609374418358669,0.8064080108953715,0.011445112964556525,0.010808507363585169
0.010999999999999954,-0.0071,-1.407,0.0056531359712437244,0.8474298851883729,0.01000577885886639,0.013381976226021311
0.011999999999999955,0.0009,-0.407,0.005827228744408759,0.8483514582608427,0.010574487427955798,0.013439790249571796
0.012999999999999956,-0.0013,0.5929999999999982,0.005873732468542401,0.8505037121847034,0.010726401065314547,0.013574809883671171
0.013999999999999957,-0.0078,-0.407,0.005871649964360172,0.8655093953449419,0.010719598152407445,0.014516177362315223
0.014999999999999958,0.002,0.593,0.00585862639515305,0.8676190875822348,0.010677054080798002,0.014648526928871301
0.01599999999999996,0.011,1.593,0.005856538519462296,0.8685192384512556,0.01067023362079304,0.014704997050552575
0.01699999999999996,0.0031,0.593,0.005868796187029725,0.8796561104767732,0.010710275722805154,0.015403658286211798
0.01799999999999996,-0.0045,-0.40699999999999653,0.005852561260163864,0.8805439563826694,0.010657241114536822,0.015459356467556357
0.01899999999999996,-0.0034,0.593,0.005842391521534092,0.8915306300185206,0.01062401964647124,0.01614859514791658
0.019999999999999962,-0.0045,-1.407,0.00578574402750772,0.9023835489415775,0.010438969373076496,0.01682944285164512
0.020999999999999963,0.0009,0.593,0.00582348855539707,0.9032490552573612,0.010562269358806282,0.01688373957972737
0.021999999999999964,0.0074,-0.407,0.005829340727386625,0.9052708012136359,0.010581386639194995,0.017010571918714783
0.022999999999999965,0.0082,0.593,0.0060007336133052975,0.9072880420443338,0.011141275491160792,0.017137121632868665
0.023999999999999966,0.0103,-0.407,0.005974133510760432,0.9081488741718288,0.011054380980947081,0.017191125130126494
0.024999999999999967,0.0067,-1.407,0.00595858418028519,0.9392071132157128,0.011003586009254085,0.019139534667210228
0.025999999999999968,-0.0042,0.5929999999999965,0.005968795666990852,0.9411516186150112,0.011036943855688914,0.019261521392199707
0.02699999999999997,0.0035,-0.407,0.005965140028492183,0.9419815049376367,0.011025001987557976,0.019313583533373074
0.02799999999999997,-0.0031,-1.407,0.005900992646647551,0.9428106607731449,0.010815451843250093,0.019365599848121317
0.02899999999999997,-0.0067,-1.407,0.005955426978524069,0.9436390880471269,0.010993272383574795,0.01941757045724459
0.02999999999999997,0.0009,0.593,0.006184875154964337,0.9571858113662256,0.011742810355376873,0.02026741145672534
0.030999999999999972,0.0002,-1.407,0.006175786629291326,0.9590938667239418,0.011713120883857394,0.02038711152249549
0.03199999999999997,-0.0023,1.593,0.006152232806463897,0.9599082412451732,0.011636177650469561,0.020438200545336842
0.032999999999999974,-0.003,-1.407,0.006109410262855134,0.9893429412826648,0.011496289319335782,0.022284758883470993
0.033999999999999975,0.0021,0.593,0.006162425506325202,0.9901324365400588,0.011669474125951547,0.022334287128997578
0.034999999999999976,0.0028,-0.407,0.006169590201138292,0.9909213027842689,0.011692879022438846,0.022383775913971213
0.035999999999999976,-0.0012,0.5930000000000069,0.006172851498254897,0.9927645219377733,0.011703532696240696,0.022499408541196114
0.03699999999999998,-0.0026,1.593,0.006243101041670584,0.9946043252092754,0.011933016761482434,0.022614826876262942
0.03799999999999998,-0.0,-0.407,0.006286422128523984,0.9953896473984032,0.012074533682994392,0.022664093328260363
0.03899999999999998,0.0003,0.593,0.00626971093620646,1.005121761423507,0.012019943259176697,0.02327462838646846
0.03999999999999998,-0.0062,-0.407,0.006257108144995096,1.006938986728469,0.011978773742337804,0.02338863031395105
0.04099999999999998,-0.0105,0.593,0.00628148298994123,1.0165605383512248,0.012058399007298983,0.023992229343401256
0.04199999999999998,0.0018,1.593,0.006269698119983805,1.0173289116877842,0.01201990139244372,0.024040432525007198
0.04299999999999998,-0.0036,-0.40699999999999303,0.006250938213814069,1.0451477112883538,0.011958618438533117,0.02578561886269316
0.043999999999999984,0.0011,0.593,0.006237699415636476,1.0468954609310077,0.011915371278808082,0.025895262299572175
0.044999999999999984,-0.0032,-0.407,0.006245134970236618,1.0591223041312807,0.011939660992505872,0.026662301856006092
0.045999999999999985,0.0033,-0.407,0.0062406932938635995,1.0682739631047502,0.011925151375773746,0.027236422610207613
0.046999999999999986,0.0022,1.593,0.006337299496287871,1.069005166811858,0.012240734694638954,0.02728229398992322
0.04799999999999999,0.0055,-0.407,0.006427366897072664,1.0780729343646582,0.01253495772119368,0.02785115189442226
0.04899999999999999,-0.0076,-0.407,0.006418924442648575,1.079767391393298,0.012507378769535678,0.02795745206907528
0.04999999999999999,-0.0094,1.593,0.006420428142976415,1.0916261120487607,0.012512290904865813,0.028701397802446328
0.05099999999999999,0.0055,0.5930000000000207,0.006415483487076938,1.0843591338086198,0.01249613820576115,0.028245510728846814
0.05199999999999999,0.0073,3.592999999999986,0.006673970392687584,1.0843591338086198,0.01334053694527014,0.028245510728846814
0.05299999999999999,-0.0054,1.593,0.006682941211621085,1.0843591338086198,0.013369841904381771,0.028245510728846814
0.05399999999999999,-0.0007,-1.407,0.0068278031459226,1.0843591338086196,0.013843062141353012,0.0282455107288468
0.05499999999999999,-0.0021,-1.407,0.006813738353691016,1.0833933495228945,0.013797116708242005,0.02818492315624123
0.055999999999999994,0.0015,-1.407,0.006844581356068648,1.0833933495228945,0.013897871492198352,0.02818492315624123
0.056999999999999995,-0.0046,-0.407,0.006787359643369756,1.0833933495228945,0.01371094541963253,0.02818492315624123
0.057999999999999996,-0.0035,-0.407,0.006836583720195185,1.082426703526245,0.013871745628551023,0.028124281525007903
0.059,-0.0125,-0.40699999999997916,0.006882989891657599,1.0833933495228945,0.014023340590762861,0.02818492315624123
0.06,0.0063,2.593,0.006653655200949633,1.0833933495228947,0.013274173342611491,0.028184923156241243
0.061,0.0143,-0.407,0.006665246203797674,1.0906667626837037,0.013312037652106814,0.028641213918561885
0.062,0.0074,0.593,0.006630461733097624,1.0906667626837037,0.013198407280215358,0.028641213918561885
0.063,0.0009,1.593,0.006629871680427229,1.0916261120487607,0.013196479756150077,0.028701397802446328
0.064,-0.0009,0.593,0.006648910136062247,1.0916261120487607,0.013258672647130097,0.028701397802446328
0.065,0.0009,-0.407,0.006603287228205898,1.0916261120487607,0.013109636370821916,0.028701397802446328
0.066,-0.0038,-1.407,0.006600856527546354,1.0916261120487607,0.013101696005068404,0.028701397802446328
0.067,0.0038,-0.407,0.006524005880445322,1.081459193507989,0.012850648125527811,0.02806358569018834
0.068,0.002,-1.407,0.006540687780295196,1.081459193507989,0.012905142859690735,0.02806358569018834
0.069,0.0031,-1.407,0.006657600132985205,1.0897065687327052,0.013287060245452528,0.028580977050369456
0.07,0.0067,-0.407,0.006682718977485464,1.0897065687327052,0.013369115932504968,0.028580977050369456
0.07100000000000001,0.0034,0.593,0.006669754876500953,1.0814591935079885,0.013326766125638248,0.02806358569018831
0.07200000000000001,0.0143,0.5929999999999861,0.0066693975564422305,1.09162611204876,0.013325598868803806,0.028701397802446287
0.07300000000000001,0.0038,-0.407,0.006654404362461523,1.1026489609454946,0.013276620627261492,0.029392905903916057
0.07400000000000001,0.0001,-2.407,0.00668355970307514,1.1126222684981288,0.013371862329373775,0.030018572012170456
0.07500000000000001,-0.0035,0.593,0.006606887959162753,1.1126222684981288,0.013121398872578424,0.030018572012170456
0.07600000000000001,-0.0003,-0.407,0.006572801956054972,1.1045460124601716,0.013010050183595065,0.029511915653899407
0.07700000000000001,-0.0029,-0.407,0.006611618375187949,1.1035978943247047,0.013136851714646349,0.029452436350684064
0.07800000000000001,-0.0112,-0.407,0.006602662475719708,1.1035978943247047,0.013107595492926774,0.029452436350684064
0.07900000000000001,-0.0167,1.593,0.006597854393824582,1.1064398113811489,0.01309188893989226,0.029630721355463407
0.08000000000000002,-0.0058,0.593,0.0066911631235414964,1.098318094858177,0.013396700410214197,0.02912121307624353
0.08100000000000002,-0.0015,-0.407,0.006695181866580283,1.1225069681929218,0.013409828431335211,0.030638679389453843
0.08200000000000002,0.005,-2.407,0.00670424516541446,1.1145023440645645,0.013439435494382727,0.030136516791940664
0.08300000000000002,0.0086,-0.407,0.006770050905331406,1.1035978943247047,0.01365440299421432,0.029452436350684064
0.08400000000000002,0.0032,-0.407,0.006793569425679143,1.0964102676121785,0.013731230905051161,0.02900152732084834
0.08500000000000002,-0.0033,0.593,0.006843399882678193,1.0954551079992578,0.013894011975062246,0.028941606277140024
0.08600000000000002,-0.0095,0.5929999999999861,0.006920984374616664,1.0954551079992578,0.014147457104298194,0.028941606277140024
0.08700000000000002,-0.0074,-0.40700000000001385,0.007217477250608979,1.0954551079992578,0.015116009883286603,0.028941606277140024
0.08800000000000002,-0.0067,-1.407,0.007304066095150447,1.085324058683821,0.015398869516015884,0.0283060443871381
0.08900000000000002,0.0027,0.593,0.007370734266944101,1.0862881264386837,0.015616654320607597,0.028366524274787717
0.09000000000000002,-0.006,-1.407,0.007403750901613867,1.085324058683821,0.015724509705514297,0.0283060443871381
0.09100000000000003,-0.0006,-0.407,0.007390875931121082,1.085324058683821,0.01568245106107488,0.0283060443871381
0.09200000000000003,0.0019,-2.407,0.007345668079264446,1.0853240586838206,0.015534770647502395,0.02830604438713807
0.09300000000000003,-0.0006,0.593,0.007356557525833981,1.082426703526244,0.01557034318428349,0.028124281525007847
0.09400000000000003,0.003300000000000244,1.593,0.007373823768116385,1.0906667626837026,0.015626746788887275,0.028641213918561816
0.09500000000000003,0.005500000000000888,-1.407,0.007373313864685359,1.0978919913431648,0.015625081088207343,0.02909448187132037
0.09600000000000003,0.013499999999999712,-0.407,0.007377855621243695,1.0988450327226327,0.0156399176367124,0.02915427002963697
0.09700000000000003,0.01089999999999888,-1.407,0.0073750477471523,1.0997972482339402,0.015630745159143866,0.029214006377888048
0.09800000000000003,0.0008000000000001221,0.593,0.007399392016793483,1.089706568732704,0.015710270543807824,0.028580977050369383
0.09900000000000003,0.0018999999999995893,1.593,0.007384133560069466,1.0906667626837023,0.015660425768908394,0.0286412139185618
0.10000000000000003,-0.001800000000001854,0.593,0.007346956925381969,1.0988450327226327,0.015538980918945303,0.02915427002963697
0.10100000000000003,-0.018499999999998667,0.593,0.007303205819062178,1.0887455279611762,0.015396059253566234,0.028520687057684173
0.10200000000000004,-0.006500000000001254,0.5929999999999861,0.00728638214655762,1.0887455279611762,0.015341101390910866,0.028520687057684173
0.10300000000000004,-0.01779999999999799,-0.407,0.007256219271425565,1.0281014052711375,0.015242568377482947,0.02471623482037629
0.10400000000000004,0.00029999999999924504,-0.40700000000001385,0.007239790643721528,1.0162703070310581,0.015188901007012558,0.023974021953363005
0.10500000000000004,-0.006500000000000244,-1.407,0.007290467743200558,1.0162703070310581,0.01535444780258804,0.023974021953363005
0.10600000000000004,-0.008699999999997557,0.593,0.007323037024648851,1.016270307031058,0.015460841819479083,0.02397402195336299
0.10700000000000004,0.013300000000000322,-0.407,0.007329885837675243,1.008460460067963,0.015483214825465429,0.02348407851888308
0.10799999999999993,0.0162,0.593,0.007319794198009295,1.009497935017319,0.01545024848315352,0.023549163538125625
0.10899999999999993,-0.0026,0.593,0.007334503285904273,1.0367733205656597,0.015498298635823754,0.02526025930420989
0.10999999999999993,0.0042,-1.407,0.007228205401617001,1.045373300287032,0.015151055516128371,0.025799770977237214
0.11099999999999993,0.002,-1.407,0.0072019640433297425,1.025042318965055,0.015065332915177202,0.024524325906122926
0.11199999999999993,0.0002,0.593,0.007058635871792555,1.03677332056566,0.014597123018446772,0.025260259304209904
0.11299999999999993,-0.0052,0.593,0.007025192468024502,1.0473740972166956,0.014487873507644971,0.02592528909866117
0.11399999999999993,-0.0005,-0.407,0.007033274339100171,1.0443714644077833,0.014514274542285573,0.025736921741678083
0.11499999999999994,0.0009,0.593,0.0071427787436679395,1.0519147271056581,0.014871992396384476,0.026210141261963846
0.11599999999999994,0.0045,0.593,0.007161904039062365,1.0529093856479363,0.014934468966660402,0.02627254023401047
0.11699999999999994,0.0056,0.593,0.007191173474714824,1.045373300287032,0.015030083382844036,0.025799770977237214
0.11799999999999994,0.0132,-1.4069999999999723,0.007246414532299127,1.045373300287032,0.015210539252680592,0.025799770977237214
0.11899999999999994,0.0067,0.5929999999999861,0.00725471423991946,1.0377824914308815,0.015237651893595019,0.02532356869324405
0.11999999999999994,-0.0017,-0.407,0.007265908248395099,1.040804133048922,0.015274219342242188,0.02551312855006402
0.12099999999999994,-0.0006,1.593,0.007267613624641265,1.0418093993890922,0.015279790291955284,0.025576192992376075
0.12199999999999994,0.0059,1.593,0.007262625640386008,1.0418093993890922,0.015263496052183719,0.025576192992376075
0.12299999999999994,0.0103,1.593,0.0071415522559808925,1.040804133048922,0.014867985831121453,0.02551312855006402
0.12399999999999994,-0.0021,-0.407,0.007133942195755463,1.0408041330489217,0.014843126060191243,0.025513128550064008
0.12499999999999994,-0.0003,-0.407,0.0071359380347858605,1.0146693979927388,0.01484964586419272,0.02387359042426512
0.12599999999999995,-0.0083,-0.407,0.007132471779677307,1.0136372161376097,0.01483832265446353,0.023808837462331357
0.12699999999999995,-0.0007,-0.407,0.007132437973396045,1.0146693979927388,0.014838212219541428,0.02387359042426512
0.12799999999999995,-0.0018,1.593,0.00717698244969389,1.0157005309177949,0.014983725585292517,0.023938277582553187
0.12899999999999995,-0.013,-0.407,0.007153779503618592,1.0244774215291166,0.01490792856040032,0.02448888759456568
0.12999999999999995,-0.0025,-2.407,0.007101618642335177,1.0126039821447772,0.014737534762635717,0.02374401849552421
0.13099999999999995,-0.0035,-0.407,0.007089780617254006,1.0126039821447772,0.014698863506027175,0.02374401849552421
0.13199999999999995,-0.0097,-0.407,0.007107195805111065,1.0244774215291164,0.014755753670889002,0.024488887594565665
0.13299999999999995,-0.0064,0.593,0.007090241318477102,0.9968656628605649,0.014700368477937273,0.022756689775834078
0.13399999999999995,0.0085,-0.407,0.007040942251224174,0.9979151923255688,0.014539323297915486,0.02282253102382546
0.13499999999999995,0.0107,-0.407,0.007035037183199315,0.9979151923255688,0.01452003322213727,0.02282253102382546
0.13599999999999995,0.0205,0.593,0.007042975193674546,0.9979151923255688,0.014545964307596549,0.02282253102382546
0.13699999999999996,0.0115,0.593,0.0070126714771463145,1.0058069240697691,0.014446971207816788,0.023317611423354236
0.13799999999999996,-0.0099,0.593,0.006987535796497166,1.0068471332781523,0.01436486052214511,0.02338286797377593
0.13899999999999996,-0.007,-0.407,0.007418822504492215,1.0099613327457957,0.015773744085270564,0.023578234360600497
0.13999999999999996,-0.0044,-0.407,0.007431457024563163,1.0099613327457957,0.015815017250721663,0.023578234360600497
0.14099999999999996,-0.0066,0.5929999999999445,0.007411860802964278,1.0021023182335975,0.015751002306606227,0.02308520644597822
0.14199999999999996,-0.0044,-1.407,0.0074117378614603855,1.0021023182335975,0.01575060069380238,0.02308520644597822
0.14299999999999996,-0.0062,-1.407,0.007413870947227659,0.9738563645510753,0.01575756884148822,0.021313222997036054
0.14399999999999996,-0.0007,-1.4069999999999445,0.007414076544818531,1.0062720215449317,0.015758240466792285,0.023346788877845453
0.14499999999999996,0.0041,0.593,0.007411282393573145,1.003146368927732,0.01574911281762171,0.02315070398841056
0.14599999999999996,0.0026,0.593,0.007402192791801984,0.9941811800555455,0.015719419830814214,0.022588281261363998
0.14699999999999996,-0.0064,0.593,0.0072994626766329325,1.003146368927732,0.015383831536492554,0.02315070398841056
0.14799999999999996,-0.0028,0.593,0.007275998454365517,0.995233540461926,0.015307181001103313,0.022654300105811168
0.14899999999999997,-0.0017,-1.407,0.007278272894537928,0.995233540461926,0.015314610910986504,0.022654300105811168
0.14999999999999997,0.0049,0.593,0.007276009374385643,0.9920731103145324,0.01530721667351468,0.022456033480592396
0.15099999999999997,0.0024,0.593,0.007275770074198084,0.9910173938561356,0.01530643495199474,0.02238980409736529
0.15199999999999997,-0.0031,-0.407,0.007037123601082763,1.0021023182335975,0.014526848919925563,0.02308520644597822
0.15299999999999997,-0.0023,-0.407,0.007017917799788078,1.0130659591028086,0.014464109361160757,0.0237730001872959
0.15399999999999997,0.0086,-1.407,0.006842806722234993,1.0140987224016393,0.013892074298840769,0.023837789625555703
0.15499999999999997,0.0072,-1.407,0.006850732554356922,1.0140987224016391,0.013917965601293814,0.02383778962555569
0.15599999999999997,0.0035,0.593,0.006821541200766965,1.0062720215449314,0.013822606255652337,0.02334678887784544
0.15699999999999997,0.0025,0.593,0.006772123317526551,1.0052312172134228,0.013661172939644202,0.02328149499293187
0.15799999999999997,0.0058,-2.407,0.006649859536280585,1.0052312172134226,0.013261774051225448,0.023281494992931855
0.15899999999999997,0.0011,-1.407,0.0064544940653706,1.0052312172134228,0.012623573996215862,0.02328149499293187
0.15999999999999998,-0.0014,1.593,0.0065293142174199514,1.0052312172134228,0.012867988860988576,0.02328149499293187
0.16099999999999998,-0.0006,1.593,0.00651612021636322,1.0083504073047274,0.012824888039942861,0.023477174461857576
0.16199999999999998,-0.0028,1.593,0.006513389536177173,0.9994319012295698,0.012815967731575003,0.022917680336359242
0.16299999999999998,-0.0035,-1.407,0.006586536844587697,0.99838396617314,0.013054917920848261,0.022851939112096417
0.16399999999999998,-0.0125,-1.407,0.006566954820882232,0.9973349300149204,0.012990949356967365,0.022786128811244116
0.16499999999999998,0.0053,0.593,0.006570425690918383,0.9983839661731398,0.013002287642272773,0.02285193911209641
0.16599999999999998,0.0075,0.593,0.006576155336884106,1.0062720215449312,0.013021004667105655,0.023346788877845425
0.16699999999999998,0.0097,-0.407,0.006570500798453934,1.0062720215449314,0.013002532995932743,0.02334678887784544
0.16799999999999998,0.004,0.593,0.006604190426721038,1.0062720215449314,0.013112586847891187,0.02334678887784544
0.16899999999999998,-0.0051,1.593,0.006470866736023019,0.9983839661731403,0.01267705857187991,0.022851939112096438
0.16999999999999998,-0.0069,0.593,0.006438772341120635,1.0062720215449317,0.012572215866069126,0.023346788877845453
0.17099999999999999,-0.0021,0.593,0.006441057155093193,1.0073117504664915,0.012579679664027798,0.023412015297923118
0.172,0.0055,-0.407,0.006442115696547423,1.0041893341281003,0.012583137599614743,0.023216133433408156
0.173,0.0019,-0.4069999999999722,0.006419414370677419,0.9931277045238914,0.012508979216602923,0.02252219246057723
0.174,-0.0017,0.5929999999999722,0.006383820716878186,0.9819414729041394,0.01239270548764327,0.0218204346970042
0.175,-0.0027,-0.4069999999999722,0.006388370028755946,0.9910173938561357,0.01240756671709758,0.022389804097365296
0.176,-0.0002,0.593,0.006408699592939081,0.9910173938561357,0.012473977270198722,0.022389804097365296
0.177,-0.0085,0.593,0.006354907630204736,1.0000109467609162,0.012298255156069608,0.02295400621543071
0.178,-0.0096,-1.407,0.006391787706785491,1.0089243343075438,0.01241873124016453,0.023513179234835768
0.179,-0.0143,-0.407,0.0064265227689359215,1.0058069240697693,0.012532200209230102,0.02331761142335425
0.18,-0.0041,0.593,0.006294823155492136,1.014669397992739,0.012101977303651812,0.023873590424265134
0.181,-0.0052,1.593,0.006290389528363728,0.9867832334360135,0.012087493981373508,0.02212417800914916
0.182,0.001,-0.407,0.006281094346480864,0.9867832334360135,0.012057129426361116,0.02212417800914916
0.183,0.0021,0.593,0.0062168490070385685,0.9878434749868914,0.011847259284133813,0.022190691269814843
0.184,0.0014,-0.407,0.006190286356025685,0.9878434749868914,0.011760487116776597,0.022190691269814843
0.185,-0.0047,0.593,0.006132175475589311,0.9889025798115406,0.011570656401459267,0.022257133219025234
0.186,-0.0069,-1.407,0.006037954444996724,0.9889025798115407,0.011262864719402235,0.02225713321902524
0.187,0.0044,0.593,0.005784695931267971,0.9968656628605644,0.010435545558854118,0.02275668977583405
0.188,0.0258,1.593,0.005707445746675251,0.9968656628605644,0.010183192510861876,0.02275668977583405
0.189,0.0051,0.593,0.005713038245752621,0.9968656628605639,0.010201461518185401,0.022756689775834015
0.19,0.0026,0.593,0.005681461934809414,1.0244774215291141,0.010098311236372096,0.024488887594565526
0.191,0.0004,-0.407,0.0056676828045469415,1.0244774215291141,0.010053298974734795,0.024488887594565526
0.192,0.0026,-0.407,0.0058602223505113,1.0244774215291146,0.010682267585480708,0.024488887594565554
0.193,0.0008,2.593,0.005859481526029491,1.0167306181041416,0.010679847535392837,0.024002899137402764
0.194,0.0026,-1.407,0.005830433240187046,1.0167306181041416,0.010584955548921365,0.024002899137402764
0.195,0.0041,-0.407,0.005830096293722159,1.007886268918361,0.010583854846471622,0.0234480571749037
0.196,0.0056,-1.407,0.005819725434915647,1.0157005309177936,0.01054997637946318,0.023938277582553104
0.197,0.0092,0.593,0.005814413162009384,1.0146693979927375,0.010532622786501172,0.023873590424265036
0.198,-0.002,0.593,0.005819153226181428,1.0136372161376086,0.01054810714615417,0.023808837462331287
0.199,-0.0006,-1.407,0.006023607471377749,1.0672797575163824,0.011215997484827963,0.02717405205380032
0.2,-0.0017,-0.407,0.0060974218689493756,1.0598458583075723,0.01145712685314104,0.02670769334957053
0.201,-0.0006,1.593,0.006171254598699303,1.0598458583075723,0.011698316107150119,0.02670769334957053
0.202,-0.0039,1.593,0.006353737003044029,1.0588577156955372,0.012294431070293965,0.02664570314830485
0.203,-0.0086,0.593,0.006645210483811395,1.0588577156955372,0.013246586999348981,0.02664570314830485
0.20400000000000001,0.0033,-0.4069999999999722,0.00672546005534495,1.0598458583075723,0.013508738139612701,0.02670769334957053
0.20500000000000002,-0.0015,0.5929999999999722,0.0066943688114619836,1.0513642682987936,0.013407172425548683,0.026175608744278243
0.20600000000000002,-0.0029,-0.407,0.006767984284584031,1.043817027655204,0.013647651967697122,0.02570213967129383
0.20700000000000002,0.0036,-0.4069999999999722,0.0072449951944468655,1.0513642682987938,0.015205902704107443,0.026175608744278257
0.20800000000000002,-0.0026,0.593,0.00804617169483992,1.0513642682987938,0.017823104629512275,0.026175608744278257
0.20900000000000002,-0.0102,0.593,0.008093459374192431,1.0254986925914085,0.01797757921206506,0.024552956078129913
0.21000000000000002,0.0007,1.593,0.008121986464271319,1.0167306181041424,0.01807076860921292,0.02400289913740282
0.21100000000000002,-0.0007,-0.407,0.008184491527170152,1.0136372161376088,0.01827495379298469,0.0238088374623313
0.21200000000000002,-0.0098,-0.407,0.008216691053961833,1.0026798216058095,0.018380139932961295,0.02312143557914079
0.21300000000000002,-0.0011,-0.407,0.008271302870068171,0.9916013530505666,0.018558540260720836,0.02242643823048821
0.21400000000000002,-0.0022,0.593,0.008266622377339232,0.982530826313077,0.018543250503000767,0.02185740723112194
0.21500000000000002,-0.0029,-1.407,0.00817171018387007,0.9733757783811969,0.018233201000338095,0.02128307387378865
0.21600000000000003,-0.0036,0.593,0.00817440629984592,0.9722997606990643,0.018242008397858674,0.02121557091230472
0.21700000000000003,0.0087,0.593,0.00817440629984592,0.980397706080533,0.018242008397858674,0.02172358793122659
0.21800000000000003,-0.0004,0.593,0.00812140339842811,0.9894877870920024,0.018068863909004244,0.022293845649656325
0.21900000000000003,-0.0018999999999995225,-1.407,0.008506152394174528,0.9884293093188226,0.019325722805852926,0.02222744303793257
0.22000000000000003,0.0023999999999998775,0.593,0.008781629209680652,0.9884293093188226,0.020225622455422417,0.02222744303793257
0.22100000000000003,0.0012999999999995892,-1.407,0.008812719794285823,0.9884293093188226,0.02032718601582477,0.02222744303793257
0.22200000000000003,-0.002400000000000599,0.593,0.008823256244067833,0.9884293093188226,0.02036160541859417,0.02222744303793257
0.22300000000000003,-0.007799999999999489,0.593,0.00880876742239976,0.9884293093188226,0.02031427480923665,0.02222744303793257
0.22400000000000003,-0.0031999999999990786,-1.407,0.008819278920778908,0.9894877870920025,0.020348612703300316,0.022293845649656332
0.22500000000000003,0.005099999999999401,-0.407,0.00881947634080655,0.9894877870920027,0.020349257614972343,0.022293845649656346
0.22600000000000003,-0.00030000000000073273,-1.407,0.008891247527884446,0.9894877870920027,0.020583712431004403,0.022293845649656346
0.22700000000000004,-0.006899999999998468,-1.407,0.009054003631669208,0.9974461981664685,0.021115387521309585,0.022793109114517065
0.22800000000000004,0.006899999999999356,-1.407,0.009016762191526842,1.0053416114283023,0.020993730971476145,0.023288420470606443
0.22900000000000004,0.001099999999999789,-1.407,0.0090391729173208,0.9974461981664685,0.021066940051708644,0.022793109114517065
0.23000000000000004,-0.0007999999999998335,-0.407,0.008926279915172216,1.0094979350173179,0.020698152671595707,0.023549163538125556
0.23100000000000004,0.0006999999999995115,-0.407,0.009143034941475586,1.0084604600679619,0.02140622595120893,0.02348407851888301
0.23200000000000004,-0.0036999999999992785,0.593,0.009143711082933345,0.9974461981664685,0.021408434701371,0.022793109114517065
0.23300000000000004,0.0027999999999995893,0.593,0.00933461370470297,0.9974461981664681,0.02203205597460502,0.022793109114517037
0.23400000000000004,-0.000899999999999889,0.593,0.009357037328616247,1.0084604600679605,0.022105307189102193,0.023484078518882928
0.23499999999999993,0.0001,-0.40700000000002773,0.00935602758910971,1.0094979350173157,0.02210200867475564,0.023549163538125417
0.23599999999999993,0.011,-1.4069999999999445,0.009345449184204085,1.0172998172794174,0.02206745221725454,0.024038607314548308
0.23699999999999993,0.0066,0.593,0.009325816837505139,1.0084604600679594,0.022003319263335534,0.02348407851888286
0.23799999999999993,0.0102,0.5929999999999167,0.009723971634767398,1.0162703070310528,0.023303970869433227,0.02397402195336267
0.23899999999999993,-0.0036,-2.4069999999999445,0.009527939157746178,1.005341611428298,0.02266359190668268,0.02328842047060618
0.23999999999999994,0.0019,-0.407,0.009613665722548641,1.0053416114282983,0.022943634731639826,0.023288420470606194
0.24099999999999994,-0.0163,0.593,0.00986980302520169,1.016270307031053,0.023780358027121758,0.023974021953362686
0.24199999999999994,-0.0043,0.593,0.00997553337147556,1.0172998172794165,0.02412574717134396,0.024038607314548252
0.24299999999999994,-0.0021,-1.407,0.010001107632050466,1.0172998172794165,0.024209290565320955,0.024038607314548252
0.24399999999999994,-0.0003,-0.407,0.010132887353435257,0.9852470531137086,0.0246397751593753,0.022027807175425133
0.24499999999999994,-0.0022,-1.407,0.010133996109294843,0.9884293093188187,0.024643397130275708,0.022227443037932323
0.24599999999999994,-0.0008,-0.407,0.010315689368588113,0.9884293093188188,0.025236934194608138,0.02222744303793233
0.24699999999999994,0.0068,-0.407,0.010384777158865943,0.9793294036248581,0.02546262316282974,0.02165656897724836
0.24799999999999994,0.0158,-3.407,0.010371084551756182,0.9873696968394026,0.02541789354622978,0.022160969241475606
0.24899999999999994,0.0096,0.593,0.010384876601396207,0.9953450435247302,0.025462948011575986,0.022661295146021745
0.24999999999999994,0.0107,0.593,0.010399215930070864,0.9863089459966337,0.02550979027242352,0.022094424030860146
0.25099999999999995,0.0153,-0.407,0.01044383807265768,0.9984951174244554,0.02565555735051007,0.02285891208174276
0.25199999999999995,0.0197,-0.407,0.010479771725354926,0.9953450435247302,0.025772941753297623,0.022661295146021745
0.25299999999999995,0.0106,0.593,0.010472545436380225,0.992184968550732,0.025749335647266256,0.02246305080227328
0.25399999999999995,-0.0057,-0.407,0.010464816552693858,0.9911293712398367,0.025724087715936185,0.022396828893653083
0.25499999999999995,-0.0123,0.593,0.01046005363056236,0.9911293712398367,0.02570852868622551,0.022396828893653083
0.25599999999999995,-0.0261,-1.407,0.010471460923856599,0.9900726484710761,0.025745792872030628,0.022330536380487816
0.25699999999999995,-0.0351,0.593,0.010467509519819992,0.990072648471076,0.0257328848271147,0.02233053638048781
0.25799999999999995,-0.0105,0.593,0.010504413509472867,0.9900726484710762,0.02585343902800207,0.022330536380487823
0.25899999999999995,-0.0069,-0.407,0.010663083502846348,0.9980263957847231,0.026371766028303895,0.022829507268681673
0.25999999999999995,-0.0102,-1.407,0.010625159446143879,0.9969769833849231,0.026247879576102452,0.022763673364666216
0.26099999999999995,-0.0073,0.593,0.010629182548733502,0.984772025817049,0.026261021838560845,0.02199800678288263
0.26199999999999996,-0.0099,0.593,0.010694159653216984,0.9938220975345997,0.026473282436416584,0.022565754555731326
0.26299999999999996,0.0021,-0.407,0.010666082947059102,0.9948748377719756,0.02638156430766545,0.022631797228520233
0.26399999999999996,-0.0001,-0.407,0.010726182756196532,1.0038338316415079,0.02657789225302303,0.023193831317877556
0.26499999999999996,0.0057,-0.407,0.010744180528806492,1.002790496696258,0.026636685546516634,0.023128378677281118
0.26599999999999996,0.0075,-1.407,0.010742524821043029,0.9938220975345997,0.026631276848752383,0.022565754555731326
0.26699999999999996,0.0028,-1.407,0.010888167553821701,0.9938220975345997,0.027107047718794824,0.022565754555731326
0.26799999999999996,0.0256,-0.407,0.010856141301486459,0.9927682409627778,0.027002427614193435,0.02249964185074651
0.26899999999999996,0.0224,1.593,0.010906645247578211,1.0007005634538444,0.027167408769890124,0.022997268672762403
0.26999999999999996,0.0101,0.593,0.010977454651079565,0.9917132644976494,0.02739872172913143,0.02243345889030401
0.27099999999999996,-0.0048,0.593,0.010975570765473024,0.9917132644976494,0.02739256764319124,0.02243345889030401
0.27199999999999996,-0.0022,-0.407,0.01099767530372735,0.9837084738620845,0.027464776501103356,0.021931285847117114
0.27299999999999996,0.0047,0.593,0.011009372489025488,0.9917132644976494,0.027502987676629703,0.02243345889030401
0.27399999999999997,-0.0018,0.593,0.01116980259094348,0.9996539583341318,0.028027064420551508,0.022931610880833914
0.27499999999999997,-0.0116,-0.407,0.011385935087425575,0.9996539583341318,0.02873310408304533,0.022931610880833914
0.27599999999999997,-0.0171,-1.407,0.011388288132871965,1.0085705008225032,0.02874079077264473,0.023490981822554328
0.27699999999999997,-0.0022,-1.407,0.011414312380218498,1.0085705008225032,0.02882580413765125,0.023490981822554328
0.27799999999999997,0.0115,0.593,0.011473297234393711,0.9996539583341318,0.02901848986151029,0.022931610880833914
0.27899999999999997,-0.0012,1.593,0.011472006561701484,0.9996539583341318,0.029014273623198875,0.022931610880833914
0.27999999999999997,0.0202,-0.407,0.011472217312473615,0.9917132644976494,0.029014962082391488,0.02243345889030401
0.28099999999999997,0.0053,0.593,0.011521654055568454,0.9917132644976494,0.02917645700785433,0.02243345889030401
0.282,0.0188,-0.40699999999988895,0.011528697231979808,1.003833831641508,0.029199464940383203,0.02319383131787757
0.283,0.0068,1.5929999999999445,0.011565161432804944,1.003833831641508,0.02931858248384719,0.02319383131787757
0.284,0.0003,0.592999999999889,0.011570469426349263,1.0027904966962582,0.02933592209742474,0.023128378677281132
0.285,-0.0015,-1.4069999999999445,0.01158511436817296,1.0027904966962582,0.029383762704231875,0.023128378677281132
0.286,-0.0033,-0.4070000000000555,0.011586201839430361,1.002790496696258,0.029387315144758147,0.023128378677281118
0.287,-0.0279,-1.406999999999889,0.011544223227253021,1.0215161276164886,0.029250183683011008,0.02430311359452273
0.288,-0.017,0.593,0.011525905817663475,1.020490870952231,0.02919034623193416,0.02423879507795211
0.289,-0.0138,0.593,0.01151511936906498,1.019464583206842,0.02915511015845171,0.02417441187747245
0.29,-0.0225,1.593,0.01151203889286073,1.0038338316415105,0.02914504717201992,0.023193831317877722
0.291,-0.0145,0.593,0.011543978496633045,1.0127135726671848,0.02924938422190663,0.023750893554304302
0.292,0.0076,-0.407,0.011451682741462499,1.0204908709522327,0.028947881833830416,0.024238795077952225
0.293,0.0163,0.593,0.011526441374009698,1.0204908709522327,0.029192095732948994,0.024238795077952225
0.294,0.003,1.593,0.011792399438694737,1.0204908709522327,0.030060900495231885,0.024238795077952225
0.295,0.0197,-0.407,0.011845347148514417,1.0474800499910988,0.030233864689785592,0.025931935946727342
0.296,0.0132,-0.407,0.011958967018108385,1.038897510062036,0.030605026526559005,0.025393518342736333
0.297,0.0075,-1.407,0.012017679525365825,1.0388975100620355,0.030796822575200132,0.025393518342736305
0.298,0.0057,-1.407,0.011999893795713788,1.0399046195189445,0.030738721962080294,0.025456698411250693
0.299,-0.0055,-0.407,0.011984675132477559,0.984772025817048,0.03068900718050045,0.02199800678288257
0.3,-0.0098,1.593,0.012158155549644783,0.9927682409627745,0.031255715367282444,0.0224996418507463
0.301,-0.0087,-1.407,0.012295206822029147,1.0038338316415039,0.031703420528114756,0.023193831317877306
0.302,0.0,-1.407,0.012215830414510843,1.0048760833216228,0.03144412175127007,0.023259216000850347
0.303,-0.0076,-0.407,0.012064598273143328,1.0137466949628302,0.030950091969597776,0.023815705513893035
0.304,-0.001,-0.407,0.012059470342997671,1.024585742059592,0.030933340568821577,0.024495682981591396
0.305,0.0051,-0.407,0.012055558251764156,1.024585742059592,0.03092056094697334,0.024495682981591396
0.306,-0.0003,-0.407,0.012039413881967291,1.0235635600919277,0.03086782216132989,0.02443155735323178
0.307,0.0095,-0.407,0.011754244114688507,1.0147787654616176,0.029936258562518483,0.023880451489991
0.308,0.0185,-1.407,0.011237083313313682,1.0225403563010693,0.02824685024308067,0.02436736762175113
0.309,0.0048,-0.407,0.011189990111831659,1.0302434749595997,0.02809301096106009,0.024850615556006556
0.31,0.003,-0.407,0.011173359929054914,1.0312590358297837,0.028038685170972914,0.02491432581601711
0.311,-0.0118,-1.407,0.011130542139759676,1.0225403563010695,0.027898812370747126,0.024367367621751145
0.312,-0.006,0.593,0.01115607458376857,1.0225403563010695,0.02798221916261831,0.024367367621751145
0.313,-0.0114,-1.407,0.011127220143998416,1.0302434749596,0.027887960412784938,0.02485061555600657
0.314,-0.0066,-0.407,0.011125296682487889,1.0302434749596,0.027881677044305803,0.02485061555600657
0.315,-0.0022,-0.407,0.011197647034034024,1.0302434749596,0.028118023815931485,0.02485061555600657
0.316,0.0181,0.593,0.011328755487627537,1.0312590358297837,0.02854631558062185,0.02491432581601711
0.317,-0.0025,-0.407,0.011324936836899302,1.023563560091928,0.02853384120071495,0.024431557353231794
0.318,-0.0105,-1.407,0.011334847761830504,1.0158097873694407,0.028566217202507013,0.023945131683716935
0.319,-0.0126,-0.407,0.011050566022459999,1.0168397638759472,0.027637554522968975,0.0240097462951704
0.32,-0.0013,0.593,0.010826029647799959,1.0048760833216228,0.026904061925775505,0.023259216000850347
0.321,-0.0071,0.593,0.010778730191155356,1.0048760833216228,0.026749548870362464,0.023259216000850347
0.322,0.0056,-1.407,0.010783637928326269,1.0038338316415032,0.026765580967118664,0.023193831317877264
0.323,0.0204,-1.407,0.010781963749251465,1.003833831641503,0.026760111929152747,0.02319383131787725
0.324,0.0223,-1.407,0.010771715483976412,1.0116793953523888,0.026726633938227193,0.0236860154090773
0.325,0.0056,-1.407,0.010794997466631005,1.0429201127354202,0.026802689151779947,0.02564587255385713
0.326,0.0077,-1.407,0.010733919516793115,1.0544522388973092,0.026603165915842445,0.0263693296875642
0.327,0.0135,-0.407,0.010597143860825393,1.0459269120733492,0.0261563611106945,0.02583450129413568
0.328,-0.0067,-1.407,0.010602021323662825,1.0688018668276478,0.02617229431033647,0.027269540155825778
0.329,0.0013,0.593,0.010558729930397978,1.0678220119713404,0.026030874388820263,0.027208069879153314
0.33,-0.0107,-0.407,0.010564926197826353,1.0574262470578164,0.026051115725199837,0.02655590130403961
0.331,-0.0041,1.593,0.010383334612305263,1.0584157260975111,0.02545791079840786,0.02661797534484281
0.332,-0.0099,0.593,0.01040379200681206,1.0574262470578164,0.025524738934612167,0.02655590130403961
0.333,-0.0045,-0.407,0.010232528688938855,1.0584157260975116,0.02496527334236243,0.026617975344842837
0.334,-0.0059,0.593,0.010224073409518052,1.0469272594994543,0.024937652495309246,0.02589725715298094
0.335,-0.0016,-0.407,0.01030623187569228,1.046927259499455,0.025206039418482862,0.025897257152980982
0.336,0.0049,-2.407,0.010347855464592047,1.0393477999450076,0.02534201112628668,0.025421766856800337
0.337,-0.0012,-0.407,0.010347855464592047,1.0393477999450071,0.02534201112628668,0.02542176685680031
0.338,0.0089,-0.407,0.010024227217714503,1.0393477999450087,0.02428481527689798,0.025421766856800407
0.339,0.0024,1.593,0.009898557925719732,1.046927259499457,0.023874291612247786,0.025897257152981107
0.34,-0.0088,-1.407,0.009840470242204545,1.0544522388973132,0.023684536674273858,0.026369329687564454
0.341,-0.0073,-1.407,0.009591476176042122,1.0439233414536784,0.022871148177413345,0.02570880916786698
0.342,-0.0138,0.593,0.009503691077145382,1.0514698189983043,0.022584380742595066,0.026182230368552623
0.343,-0.025,-1.407,0.009486415678334272,1.0599505644041063,0.02252794722637437,0.026714261988468227
0.34400000000000003,-0.0112000000000006,-2.406999999999889,0.009367124667352516,1.0599505644041063,0.02213825948157435,0.026714261988468227
0.34500000000000003,-0.01659999999999948,-0.407,0.009366157825712072,1.0484789155787047,0.022135101101614766,0.025994598843822252
0.34600000000000003,-0.011899999999998469,-0.40699999999994446,0.00916316734930976,1.0569836588752701,0.02147199245399675,0.026528135948938335
0.34700000000000003,0.00190000000000141,0.593,0.009111123550043754,1.0569836588752701,0.02130198106252739,0.026528135948938335
0.34800000000000003,0.014600000000000888,0.592999999999889,0.009089796193516264,1.0484789155787047,0.021232311022854288,0.025994598843822252
0.34900000000000003,0.022599999999999842,-1.4069999999998335,0.009122410761581068,1.039904619518944,0.021338852977459265,0.025456698411250665
0.35000000000000003,0.021199999999998345,1.5929999999999445,0.00912133190929213,1.0409107545705265,0.021335328692502764,0.02551981735135952
0.35100000000000003,0.006299999999999811,0.592999999999889,0.009079743217253031,1.0378894233632758,0.02119947098221496,0.025330276967869714
0.35200000000000004,0.004600000000000599,-1.407,0.009092014288036944,1.0292269120136222,0.021239556868491802,0.024786842431709654
0.35300000000000004,0.009999999999998357,1.593,0.009106821645257744,1.0292269120136222,0.0212879280374033,0.024786842431709654
0.35400000000000004,-0.004800000000000643,-0.407,0.009078324521816016,1.0292269120136222,0.021194836532218615,0.024786842431709654
0.35500000000000004,-0.01059999999999899,-0.407,0.009097649096047601,1.0302434749596037,0.02125796408633649,0.02485061555600681
0.35600000000000004,-0.0014999999999991119,-0.407,0.009096013731600761,1.0302434749596037,0.021252621844050416,0.02485061555600681
0.35700000000000004,0.006499999999999511,-1.407,0.009255471648033135,1.0302434749596037,0.021773522751282606,0.02485061555600681
0.35800000000000004,0.002100000000000122,-1.407,0.00922480343633093,1.0312590358297882,0.02167333895573149,0.024914325816017387
0.35900000000000004,0.0031999999999993227,0.593,0.00910260281694319,1.0544522388973125,0.021274146398048692,0.026369329687564412
0.36000000000000004,-0.0029000000000008437,-0.407,0.009100491440012497,1.0658595998925162,0.021267249166582777,0.027084959795395287
0.36100000000000004,-0.010499999999999479,0.593,0.009096607078826775,1.0917277701494739,0.021254560130434995,0.028707775228180975
0.36200000000000004,-0.005799999999999311,-1.407,0.009079724790882985,1.083495780056058,0.021199410788822943,0.028191349039802194
0.36300000000000004,0.00040000000000136557,-0.407,0.009077906134273154,1.0834957800560578,0.021193469786336516,0.02819134903980218
0.36399999999999993,0.0127,-0.407,0.009103958788653737,1.0761739022884593,0.021278575948553355,0.02773201789576684
0.36499999999999994,0.0181,0.593,0.009091168159864195,1.0844614731206572,0.02123679282301397,0.028251930889735863
0.36599999999999994,0.0069,0.593,0.009091672178319625,1.084461473120657,0.02123843929925403,0.02825193088973585
0.36699999999999994,0.0055,0.593,0.008918969508593002,1.0844614731206572,0.020674271778727247,0.028251930889735863
0.36799999999999994,0.0044,0.593,0.008933635815772487,1.0955564108025257,0.020722182179706176,0.02894796141362222
0.36899999999999994,0.0033,-0.407,0.008871869027810397,1.0883156765470208,0.02052040871742771,0.028493720731818564
0.36999999999999994,0.0,0.593,0.008796811455310081,1.0965114821716444,0.020275218271667422,0.029007876921438264
0.37099999999999994,-0.0058,-0.407,0.008796219674525995,1.0965114821716444,0.02027328510237605,0.029007876921438264
0.37199999999999994,-0.0011,-0.407,0.008779085500790198,1.095556410802526,0.02021731292587119,0.028947961413622235
0.37299999999999994,-0.0003,-1.407,0.00876281631261805,1.0873534064572825,0.020164166396251272,0.028433353619006816
0.37399999999999994,0.0073,2.593,0.008550612280097713,1.0800576804512538,0.019470959840369482,0.027975663081239662
0.37499999999999994,-0.0017,1.593,0.008257108318962062,1.0800576804512538,0.01851217094451281,0.027975663081239662
0.37599999999999995,-0.0006,-0.407,0.008501265469076681,1.0727123359359811,0.019309758695860785,0.027514859772768078
0.37699999999999995,-0.0039,2.593,0.008500205752748746,1.0756358582347743,0.019306296922315887,0.02769826420599422
0.37799999999999995,-0.0064,-0.407,0.008449098211437323,1.0756358582347743,0.019139344003130988,0.02769826420599422
0.37899999999999995,0.0038,0.593,0.008423578877318726,1.0672797575163704,0.01905598003731637,0.027174052053799566
0.37999999999999995,-0.0053,0.593,0.008428297616867062,1.066298503947398,0.019071394735856992,0.027112494030198105
0.38099999999999995,0.0084,-0.407,0.008447452230631015,1.0672797575163704,0.01913396708040131,0.027174052053799566
0.38199999999999995,-0.0006,0.593,0.00860139189492751,1.0672797575163706,0.01963684152266878,0.02717405205379958
0.38299999999999995,-0.0054,-0.407,0.008566860645438738,1.0672797575163706,0.019524038348082015,0.02717405205379958
0.38399999999999995,-0.013,0.593,0.008558758336918782,1.0672797575163706,0.01949757055047656,0.02717405205379958
0.38499999999999995,-0.0094,0.593,0.008611717634856951,1.096938121942933,0.01967057259991743,0.02903464176789667
0.38599999999999995,-0.0033,-0.407,0.008611071457623671,1.0978919913431524,0.019668461733837028,0.029094481871319588
0.38699999999999996,-0.0109,-1.407,0.008646059679937035,1.0833933495228805,0.01978275770078077,0.02818492315624035
0.38799999999999996,-0.0062,-1.407,0.008658504995487346,1.0843591338086056,0.019823412792142746,0.028245510728845923
0.38899999999999996,-0.0087,-1.407,0.008687554557974939,1.0843591338086056,0.019918308949028768,0.028245510728845923
0.38999999999999996,-0.0047,0.593,0.008700318209769136,1.0731484373126872,0.019960003948862864,0.027542218184180546
0.39099999999999996,0.0065,-1.407,0.008665930633687365,1.0657554743345912,0.01984767011195294,0.027078427576043486
0.39199999999999996,0.005,-1.407,0.00868001800321425,1.0573212909791858,0.019893689298276507,0.026549316982749215
0.39299999999999996,0.0064,0.593,0.008688394679007802,1.0563307867681169,0.019921053370992845,0.026487178628780035
0.39399999999999996,-0.0027,-0.407,0.008375370324529903,1.047820744382307,0.01889849723905907,0.02595330909026337
0.39499999999999996,0.0035,-1.407,0.008311350869021052,1.0326193090838807,0.018689364991496975,0.02499966128457273
0.39599999999999996,0.0089,-0.407,0.00825343089111043,1.0336325356608191,0.018500157897139217,0.025063225104882833
0.39699999999999996,-0.0042,-0.407,0.008168714760503237,1.0336325356608191,0.018223415855867144,0.025063225104882833
0.39799999999999996,-0.0096,-0.407,0.008177750298134771,1.0412535984135316,0.018252932231440713,0.02554132533874083
0.39899999999999997,0.0053,0.593,0.008156876125883254,1.0412535984135325,0.01818474260807919,0.025541325338740886
0.39999999999999997,-0.0045,-1.407,0.007840345944773364,1.0336325356608222,0.01715073399818721,0.025063225104883027
0.40099999999999997,-0.0099,-0.407,0.007548353189369008,1.0228893574052276,0.016196881755549505,0.024389261879143954
0.40199999999999997,-0.0052,-1.407,0.0075341723956844795,1.0336325356608238,0.0161505573806874,0.025063225104883124
0.40299999999999997,0.0024,-0.407,0.007615344224990654,1.0336325356608238,0.01641572125886472,0.025063225104883124
0.40399999999999997,0.006,0.593,0.0076127414347396186,1.0218654785289194,0.016407218728332316,0.024325029796809904
0.40499999999999997,0.0048,-0.407,0.007608218892729616,1.0336325356608238,0.016392444947959956,0.025063225104883124
0.40599999999999997,0.0171,-0.407,0.007556500961243674,1.0346447699864758,0.016223498068219277,0.02512672667723812
0.407,0.0058,0.593000000000111,0.0075678830862897515,1.0462681122101802,0.016260680036950484,0.025855906165149666
0.408,-0.0109,2.5929999999999445,0.007562184215728257,1.0492653174860418,0.016242063546078798,0.02604393303093027
0.409,-0.0044,1.592999999999778,0.0075659757480993775,1.0417028698465656,0.016254449338494157,0.02556950996130188
0.41,0.0014,-2.406999999999889,0.00755927852643783,1.040697500603719,0.016232571535764215,0.0255064390634868
0.411,0.0104,-0.40699999999994446,0.007727425992925255,1.052253985656654,0.01678185858153619,0.02623142432940896
0.412,0.0057,0.593,0.00778447642709408,1.052253985656654,0.016968225138816115,0.02623142432940896
0.413,0.0133,0.592999999999889,0.007799932924577409,1.0552341892592108,0.017018716853130673,0.02641838461113866
0.414,-0.0045,-1.4069999999999445,0.00782371176267909,1.0636849218155726,0.017096395143536197,0.026948533403054854
0.415,-0.0024,-0.40699999999994446,0.0078065978777280024,1.0646685841995829,0.01704048924437019,0.027010242541411607
0.416,0.0041,0.5930000000000555,0.007625023390278341,1.0646685841995829,0.016447340171819376,0.027010242541411607
0.417,-0.0057,1.593,0.007624862707771845,1.072069042372765,0.016446815270545843,0.027474503353592354
0.418,-0.0003,0.593,0.0076081433575848414,1.0794187644499103,0.016392198197429653,0.027935581284307957
0.419,-0.0051,-1.407,0.007712810345778397,1.0896047220576432,0.01673411367160058,0.028574587794599652
0.42,-0.0008,0.593,0.0077127343727326336,1.0977909040644165,0.016733865490579855,0.029088140255567045
0.421,-0.0045,-0.407,0.007774633841690394,1.096836946753174,0.01693607238164357,0.02902829463712843
0.422,0.0017,-0.407,0.007763393040696261,1.0977909040644158,0.01689935207595499,0.029088140255567004
0.423,0.007,0.593,0.007772970930295272,1.0977909040644156,0.016930640151787905,0.02908814025556699
0.424,-0.0021,-1.407,0.0077760543332999615,1.0905650056801075,0.01694071269919377,0.028634830288247506
0.425,-0.021,0.593,0.0077420518485261354,1.0597411418657023,0.016829636839411376,0.026701124061667872
0.426,-0.0076,1.593,0.007785747249081924,1.0492653174860391,0.016972376530864936,0.026043933030930104
0.427,-0.0098,-0.407,0.007877594654405884,1.0492653174860387,0.017272414295251903,0.026043933030930076
0.428,0.0013,-0.407,0.007912785955800604,1.029011236671074,0.017387373660288915,0.024773312241097724
0.429,0.0031,-0.407,0.007896039719377157,1.0300280124729995,0.017332668757949386,0.02483709871871316
0.43,0.0121,0.593,0.007898070288100537,1.0607284615049004,0.017339302013380478,0.026763062634503423
0.431,0.0167,1.593,0.007880350236801708,1.0681562181998785,0.017281415951626525,0.027229035993881077
0.432,0.0062,0.593,0.007977478602018454,1.069135766758745,0.017598705018807077,0.027290487055270474
0.433,0.0025,-0.407,0.008030033486298372,1.0681562181998783,0.017770385970831196,0.027229035993881063
0.434,0.0112,2.593,0.008045935785357653,1.0691357667587449,0.017822333984403603,0.02729048705527046
0.435,-0.0012,0.593,0.007940527676588928,1.0765055156362753,0.01747799749289712,0.027752821348551008
0.436,-0.0092,1.593,0.007893907406589113,1.075532679146282,0.017325703135353497,0.027691791362515816
0.437,-0.0048,0.593,0.00790489096688825,1.0838251531625551,0.017361583113296677,0.028212011953145443
0.438,-0.0114,-0.407,0.007836844577509796,1.075532679146282,0.017139296087640327,0.027691791362515816
0.439,-0.0053,-0.407,0.007815710168215324,1.075532679146282,0.017070256348368583,0.027691791362515816
0.44,-0.0042,0.593,0.007782621677725015,1.0681562181998783,0.01696216623217385,0.027229035993881063
0.441,0.0088,-0.407,0.007769573061984678,1.0671757705248572,0.01691954034109651,0.027167528527281836
0.442,0.0143,-0.407,0.007750208569584218,1.0671757705248572,0.016856282386363556,0.027167528527281836
0.443,0.0095,-0.407,0.007874507794397708,1.058752901520967,0.01726233045485857,0.02663912772923277
0.444,-0.0043,1.593,0.007848384329995111,1.0587529015209667,0.017176992977661995,0.026639127729232756
0.445,-0.0134,0.593,0.007865118317063182,1.0597411418656961,0.01723165786505294,0.02670112406166748
0.446,0.0015,-0.407,0.007867417264118479,1.0522539856566457,0.017239167831529206,0.026231424329408445
0.447,-0.0043,-1.407,0.00790674149485221,1.0522539856566457,0.017367628229881995,0.026231424329408445
0.448,-0.0134,0.593,0.007907277869783574,1.0532483238125943,0.017369380404967532,0.02629380320231875
0.449,-0.0022,0.593,0.00784911723637461,1.0542417241305633,0.01717938716169838,0.026356123240841797
0.45,-0.0007,0.593,0.007831308261128206,1.0542417241305633,0.01712121061223455,0.026356123240841797
0.451,-0.0043,1.593,0.007834334706825548,1.0542417241305635,0.01713109709730036,0.02635612324084181
0.452,0.012,-1.407,0.007782498711942764,1.0552341892592025,0.016961764540059928,0.026418384611138147
0.453,0.0098,-0.407,0.007782617353567928,1.0467152313142623,0.016962152106457167,0.025883955763369798
0.454,0.004,1.593,0.007782261773993938,1.0477148260614684,0.016960990535261275,0.025946664403609293
0.455,0.0058,0.593,0.0077606603345891445,1.0467152313142623,0.016890425149514186,0.025883955763369798
0.456,0.0044,1.593,0.007749134669174801,1.0552341892592023,0.01685277427770355,0.026418384611138133
0.457,0.0058,1.593,0.007596939154799563,1.0562257218347173,0.016355597447048342,0.026480587478587666
0.458,-0.0032,0.593,0.007583290438843489,1.066633187534033,0.01631101120960626,0.027133490091538977
0.459,0.0004,-0.407,0.007649389340801893,1.046715231314263,0.016526936381385277,0.02588395576336984
0.46,-0.0163,1.593,0.007708741985436499,1.0350969099064065,0.016720823565719002,0.02515509125163799
0.461,-0.0141,0.593,0.007738357681233823,1.0077761534513918,0.01681756910933509,0.0234411491842182
0.462,-0.0076,1.593,0.007690004083618542,1.007776153451392,0.016659612493387318,0.023441149184218215
0.463,0.0061,-1.407,0.007681345546500959,1.0186787308808538,0.01663132766475816,0.02412511216783561
0.464,0.0116,0.593,0.00757232605176667,1.0176506156168161,0.01627519386479615,0.024060614319685175
0.465,0.0069,0.593,0.007571166181451945,1.0176506156168168,0.016271404918391172,0.024060614319685217
0.466,-0.0069,-1.407,0.007574114819275711,1.0264108310913052,0.016281037228607333,0.024610178232606503
0.467,0.0022,-1.407,0.007566740455863792,1.026410831091305,0.01625694740806112,0.02461017823260649
0.468,0.0134,1.593,0.007545336888229689,1.0155912627124162,0.016187028409694312,0.023931422744030015
0.46900000000000003,-0.0033000000000007216,-1.4069999999999445,0.00754582810791925,1.0145600187342572,0.016188633076227445,0.02386672861892955
0.47000000000000003,-0.009799999999998468,-0.40699999999994446,0.0075525752429268156,1.0067369041519951,0.01621067393080082,0.02337595285278772
0.47100000000000003,0.004,0.5929999999999445,0.007554528276413772,1.0145600187342574,0.016217053902005587,0.023866728618929564
0.47200000000000003,0.003999999999999801,-0.40699999999994446,0.007554528276413772,1.0155912627124162,0.016217053902005587,0.023931422744030015
0.47300000000000003,0.002199999999999845,0.5929999999999445,0.007660145089622796,1.0243690895444164,0.016562072167955934,0.024482091488969907
0.47400000000000003,0.0008000000000008438,-0.40699999999994446,0.0076627791056448095,1.0243690895444164,0.016570676703661833,0.024482091488969907
0.47500000000000003,0.008400000000000398,0.5929999999999445,0.007688230263312533,1.0155912627124162,0.01665381795757913,0.023931422744030015
0.47600000000000003,0.011999999999999601,-0.40699999999988895,0.007399366377878057,1.0145600187342572,0.01571018678920595,0.02386672861892955
0.47700000000000004,0.008399999999998645,1.5929999999999445,0.007474092851031614,1.0025691342977647,0.01595429563328744,0.023114491714541004
0.47800000000000004,-0.003799999999999112,0.593000000000111,0.007418959567649481,1.0145600187342572,0.015774191829255723,0.02386672861892955
0.47900000000000004,0.004199999999999511,2.592999999999778,0.007664995579071499,1.0145600187342572,0.01657791725367434,0.02386672861892955
0.48000000000000004,-0.00020000000000164315,-1.407,0.008193215113973897,1.0145600187342572,0.01830345111931415,0.02386672861892955
0.48100000000000004,-0.014999999999999356,0.593,0.00826970103374926,1.0253904685034865,0.018553307544713835,0.02454616674133746
0.48200000000000004,-0.0091999999999998,-0.407,0.008143715316659793,1.0253904685034865,0.01814175021473936,0.02454616674133746
0.48300000000000004,-0.007399999999999123,0.593,0.008130912865713477,1.0243690895444164,0.01809992846978034,0.024482091488969907
0.48400000000000004,0.0004999999999995226,-1.407,0.008141151503876407,1.0243690895444164,0.018133375011834926,0.024482091488969907
0.48500000000000004,-0.0037999999999989895,-0.407,0.008072063063319765,0.9925446433519097,0.017907683919348626,0.02248561466405157
0.48600000000000004,0.005299999999999034,-1.407,0.0080853919426369,1.003612699366799,0.017951225346980588,0.023179958791737527
0.48700000000000004,-0.0033999999999998775,-0.407,0.008032986910414477,0.9925446433519097,0.017780033916420482,0.02248561466405157
0.48800000000000004,-0.002300000000000289,-1.407,0.00802287163955413,0.9914894289718001,0.017746990378125604,0.022419416778235564
0.48900000000000005,-0.004899999999999311,0.593,0.007955435816272146,1.0004787386441967,0.017526697887708973,0.02298335270109161
0.49000000000000005,0.001300000000000244,-0.407,0.007996760453026113,1.0015244818589442,0.017661693009041263,0.02304895642221938
0.49099999999999994,0.0035,-1.407,0.007986539853707862,1.0124943797604853,0.017628305394450226,0.023737142692599914
0.49199999999999994,0.0148,-0.407,0.007963499221740404,1.0243690895444164,0.01755303860078093,0.024482091488969907
0.49299999999999994,-0.0,0.593,0.007851741182101768,1.0243690895444164,0.017187958800789025,0.024482091488969907
0.49399999999999994,-0.0058,0.593,0.007819298822261279,1.0330723354781663,0.01708197939850058,0.025028081471110984
0.49499999999999994,-0.004,0.593,0.007808612452474787,1.022323270324299,0.01704707025230486,0.024353748936322483
0.49599999999999994,-0.0119,-0.407,0.00781033358292049,1.022323270324299,0.01705269266623507,0.024353748936322483
0.49699999999999994,-0.0043,0.593,0.007812236295161868,1.022323270324299,0.0170589082531116,0.024353748936322483
0.49799999999999994,-0.0006,0.593,0.007961018950742669,1.0135277254867343,0.017544936303687073,0.023801968668898294
0.49899999999999994,0.0005,0.593,0.007899126545295662,1.0124943797604853,0.017342752486982048,0.023737142692599914
0.49999999999999994,-0.005,-1.407,0.007899126545295662,1.043710703027451,0.017342752486982048,0.025695469495356043
0.5009999999999999,0.0041,0.593,0.007936352545110737,1.1025483098101807,0.017464358597924313,0.0293865916492126
0.502,0.0052,-0.407,0.007975585067391376,1.0915244444801955,0.017592519412427735,0.02869501978275485
0.5029999999999999,-0.0023,0.593,0.007913849818820063,1.0842567848371005,0.017390848979824035,0.028239089961979217
0.504,-0.0016,-0.407,0.007884042223014438,1.0852218007158858,0.01729347655677381,0.02829962932929511
0.5049999999999999,-0.0023,-1.407,0.007875487008401792,1.0740201088348127,0.017265529251597633,0.027596901680708278
0.506,-0.0077,0.593,0.007860185506423511,1.074020108834813,0.01721554386083855,0.027596901680708292
0.5069999999999999,0.0036,1.593,0.007882538990353452,1.062700348929112,0.017288565949170203,0.026886767145179662
0.508,0.0148,1.593,0.007870242455945446,1.0522539856566537,0.01724839688091539,0.026231424329408948
0.5089999999999999,0.0105,-0.407,0.007927210112428962,1.0627003489291122,0.017434493028470034,0.026886767145179676
0.51,0.0069,-0.407,0.008014579490013744,1.0636849218155722,0.017719902427178223,0.026948533403054826
0.5109999999999999,0.0058,-0.407,0.007959317829473027,1.0532483238126025,0.017539379253698625,0.026293803202319267
0.512,-0.0044,1.593,0.007833744646565383,1.0522539856566537,0.017129169548441587,0.026231424329408948
0.5129999999999999,-0.0033,-0.407,0.007800243347445864,1.0522539856566537,0.017019730910992594,0.026231424329408948
0.514,-0.0043,-1.407,0.007892446769882343,1.0552341892592105,0.01732093167588183,0.026418384611138646
0.5149999999999999,-0.0032,-1.407,0.007859360052227102,1.0656513386024935,0.01721284735100443,0.027071894718424493
0.516,-0.0024,0.593,0.007931132338234937,1.0759676374078464,0.017447305756909066,0.02771907806167052
0.5169999999999999,0.0002,0.593,0.007924718828130643,1.0676141334924176,0.0174263547542457,0.02719502881747833
0.518,0.0009,-0.407,0.007923664445632457,1.0591947504196328,0.017422910404713464,0.02666684670605223
0.5189999999999999,0.006,0.593,0.007809491014697921,1.0487134680325056,0.017049940250040495,0.026009313272328215
0.52,-0.0019,-1.407,0.007806585667413938,1.0411470120017896,0.01704044935695779,0.025534638740029675
0.5209999999999999,-0.0045,0.593,0.007756918424344888,1.0526985623471414,0.016878201457617138,0.02625931443169348
0.522,-0.0128,-1.407,0.007747467980353855,1.052698562347141,0.016847329708137307,0.02625931443169345
0.5229999999999999,-0.0073,0.593,0.0077450417251532415,1.0526985623471412,0.016839403864357,0.026259314431693465
0.524,-0.0066,-0.407,0.0077437770204288004,1.0517037044167883,0.016835272455562243,0.026196902951222723
0.5249999999999999,-0.0022,-0.407,0.00774959295320996,1.051703704416788,0.016854271353389887,0.02619690295122271
0.526,-0.013,-0.407,0.007711296627642694,1.0517037044167885,0.016729168811114362,0.026196902951222737
0.5269999999999999,0.0037,1.593,0.007712581693269415,1.0526985623471414,0.016733366732834324,0.02625931443169348
0.528,0.0193,-0.407,0.0077179883719611705,1.041147012001789,0.016751028721016914,0.025534638740029633
0.5289999999999999,0.0291,-0.407,0.007860819598596417,1.0411470120017885,0.017217615248672564,0.025534638740029605
0.53,0.0165,1.593,0.007851156277113096,1.0088143321489011,0.017186048092646962,0.023506278352442008
0.5309999999999999,0.0085,1.593,0.007945492853643028,0.999899964012789,0.01749421722842305,0.022947043816674065
0.532,0.004199999999998001,-0.407,0.007844627580851346,0.999899964012789,0.0171647208115569,0.022947043816674065
0.5329999999999999,-0.0048,-0.407,0.007863854997108418,1.032511831353039,0.017227530979882957,0.024992918769792673
0.534,-0.0037000000000002443,0.593,0.008148959586975521,1.0431559150806509,0.01815888166375332,0.025660665393131273
0.5349999999999999,-0.0048,1.593,0.0081512329398038,1.0345375026800592,0.018166308021611267,0.02511999736323728
0.536,-0.00010000000000055512,0.593,0.008159585289229589,1.0355488524136547,0.018193592627422976,0.025183443441538122
0.5369999999999999,-0.0026,-0.407,0.008184400846438756,1.026866596505593,0.018274657566392058,0.024638770248999207
0.538,-0.00470000000000111,-1.407,0.008177465983337915,1.0385769926136756,0.01825200346077234,0.02537341098081203
0.5389999999999999,-0.0097,0.593,0.008256277493823681,1.0309361435869604,0.018509456889431588,0.02489406947358641
0.54,0.0010999999999983347,1.593,0.008287475086536824,1.0299202643264236,0.01861137001304015,0.02483033923965529
0.5409999999999999,-0.0064,1.593,0.008309537386420212,1.0385769926136756,0.018683440890937014,0.02537341098081203
0.542,-0.005300000000000222,-0.407,0.008302348862779897,1.0309361435869604,0.018659958152859923,0.02489406947358641
0.5429999999999999,-0.0063,-1.407,0.008190422519896006,1.0309361435869602,0.01829432855694001,0.024894069473586397
0.544,0.0012999999999967137,0.593,0.008190427540609276,1.0415963294087096,0.0182943449580956,0.025562826246719402
0.5449999999999999,-0.0135,0.593,0.008187159108248585,1.0491595450026705,0.018283667975603903,0.02603729749325312
0.546,-0.002299999999995959,-0.407,0.008186290934652712,1.0481613280342232,0.01828083191437945,0.025974675286673625
0.5469999999999999,0.0159,-0.407,0.00809968306450823,1.0566686274810677,0.01799791013074483,0.026508372749483353
0.548,0.008999999999997512,-0.407,0.008090075859542226,1.0556775108995078,0.0179665262904519,0.02644619597902497
0.5489999999999999,-0.0022,2.593,0.008090075859542226,1.066090328397516,0.0179665262904519,0.02709943433205474
0.55,0.007699999999996292,3.593,0.008090019138215878,1.065107979042022,0.017966340998990585,0.027037807565312155
0.5509999999999999,-0.009,-0.407,0.008077580506393178,1.065107979042022,0.017925707741350348,0.027037807565312155
0.552,-0.006799999999996935,0.593,0.008067226899539941,1.065107979042022,0.017891885631268634,0.027037807565312155
0.5529999999999999,0.007,0.593,0.00815009089411364,1.065107979042022,0.018162577302877354,0.027037807565312155
0.554,0.0016000000000003331,-0.407,0.008156640222707262,1.0754294901585708,0.018183971983571218,0.02768531789801918
0.5549999999999999,0.0031,0.593,0.008186888437628334,1.0754294901585708,0.018282783776344284,0.02768531789801918
0.5559999999999998,-0.0074,-0.407,0.008233119018262567,1.0680523165417555,0.018433805136293235,0.02722251782067365
0.5569999999999999,-0.0038,0.593,0.008228754126824703,1.0670717733997404,0.018419546352779544,0.02716100436504196
0.5579999999999998,0.01,1.593,0.008231010097988212,1.0556775108995078,0.018426915929982437,0.02644619597902497
0.5589999999999999,0.0118,0.593,0.008096723707257905,1.0754294901585708,0.017988242803395973,0.02768531789801918
0.5599999999999998,0.0133,0.593,0.008035394616650851,1.0866166531349546,0.01778789916633053,0.028387134089378187
0.5609999999999999,-0.0005,-0.407,0.008010564189300549,1.0866166531349546,0.017706785651096426,0.028387134089378187
0.5619999999999998,-0.0023,1.593,0.008109336631963702,1.0866166531349546,0.018029445423304074,0.028387134089378187
0.563,-0.0135,1.593,0.008128429195508394,1.0764024199092397,0.018091815068501563,0.02774635373467551
0.5639999999999998,-0.0091,1.593,0.008136478174444633,1.0773744710499735,0.01811810865444565,0.027807334452560478
0.565,-0.0127,1.592999999999778,0.008256901986371645,1.0690319603051883,0.018511496918186963,0.027283974854632343
0.5659999999999998,0.0061,-0.407,0.008253382684298833,1.0719655199702944,0.01850000042002891,0.02746800897263307
0.567,-0.0018,-0.40699999999988895,0.008271051899167771,1.0709885595660862,0.0185577204145029,0.02740672027670208
0.5679999999999998,0.0004,0.593,0.008432222486593784,1.0709885595660862,0.019084216101187476,0.02740672027670208
0.569,0.0025,0.593000000000111,0.008463351137471216,1.082221630392281,0.019185904012617355,0.028111416454021407
0.5699999999999998,0.0043,1.592999999999889,0.008547819982506644,1.0812539368738425,0.019461838246528345,0.02805070910748977
0.571,-0.0012,0.592999999999889,0.008668018142051178,1.0739167745093985,0.019854489372011605,0.02759041909858697
0.5719999999999998,0.0035,-0.407,0.008657690448257606,1.0841544262033955,0.019820751912078282,0.028232668588963446
0.573,0.0017,-0.407,0.008696388775985232,1.07586449013812,0.019947167674134462,0.027712607214312592
0.5739999999999998,0.0031,-0.40699999999988895,0.008674956121265938,1.07586449013812,0.019877153657035414,0.027712607214312592
0.575,-0.0034,0.593,0.00865177179816834,1.0768370268633505,0.01980141746779313,0.02777361839488615
0.5759999999999998,-0.0121,0.592999999999889,0.008656522692259649,1.0778086860420284,0.019816937205525163,0.027834574523398655
0.577,-0.0089,-0.407,0.008559182095212297,1.0889714074644616,0.01949895484098077,0.02853485739676268
0.5779999999999998,-0.0154,0.593,0.008595196119889452,1.078779470045378,0.019616601794779823,0.027895475748606634
0.579,-0.0016,-0.407,0.008423815490924852,1.078779470045378,0.019056752982585266,0.027895475748606634
0.5799999999999998,0.0122,-0.407,0.007910182384847912,1.078779470045378,0.017378868579439728,0.027895475748606634
0.581,-0.0081,0.593,0.007793995681606035,1.0684903198942157,0.016999321671508832,0.027249995550753657
0.5819999999999999,0.0107,2.593,0.007756197676577801,1.0581011210767617,0.016875846992099455,0.026598238893527058
0.583,0.0226,1.593,0.007747078110796335,1.0694695624427033,0.01684605612190993,0.027311427414868538
0.5839999999999999,-0.002,-0.407,0.00784091703199633,1.0778086860420284,0.0171525995678573,0.027834574523398655
0.585,-0.0053,0.593,0.007838794875337096,1.0768370268633505,0.017145667122270298,0.02777361839488615
0.5859999999999999,-0.0083,-0.407,0.007825407720843123,1.0665291375017172,0.01710193532721624,0.02712696261021554
0.587,-0.0004,1.593,0.007852277986973825,1.0665291375017172,0.0171897123803611,0.02712696261021554
0.5879999999999999,0.0116,0.593,0.00785105983995209,1.067510179072734,0.01718573306153541,0.027188507334323812
0.589,-0.0087,-0.407,0.007838484643751528,1.085119533111517,0.01714465368927186,0.028293213666919493
0.5899999999999999,-0.0062,-1.407,0.007778453246735384,1.0841544262033953,0.016948549225675742,0.028232668588963433
0.591,0.0006,0.593,0.007777969869803526,1.0729415908095494,0.016946970179065997,0.027529241862539886
0.5919999999999999,-0.0059,-0.407,0.00787339198302529,1.0625959137909309,0.01725868543572627,0.02688021550460045
0.593,-0.0001,1.593,0.007856350748866342,1.0709885595660862,0.017203016864780676,0.02740672027670208
0.5939999999999999,0.0053,-1.407,0.00783540707798995,1.0709885595660862,0.01713460021037825,0.02740672027670208
0.595,0.0038,-0.407,0.00785030961595894,1.0700107071603056,0.017183282306079663,0.027345375621887904
0.5959999999999999,-0.0006,-1.407,0.0077576053863524525,1.0802853765192975,0.01688044555525105,0.027989947380806863
0.597,-0.0017,-0.407,0.00794505642486647,1.0812539368738427,0.017492791547273207,0.028050709107489784
0.5979999999999999,-0.0006,1.593,0.0077920549147623384,1.0895028658619674,0.016992981771726957,0.028568197941563057
0.599,0.0004,-0.407,0.007742361822164748,1.0895028658619674,0.016830649429774927,0.028568197941563057
0.5999999999999999,-0.0022,-1.407,0.007739416544219746,1.0586480769690227,0.016821028095269076,0.026632551659145864
0.601,0.0004,0.593,0.007743317307591538,0.9961733914009331,0.01683377071241048,0.022713260774199707
0.6019999999999999,0.0127,-0.407,0.007745665072358166,0.9961733914009331,0.016841440151622193,0.022713260774199707
0.603,-0.004,1.593,0.007920546474034654,0.995122024905234,0.01741272493214266,0.02264730428180824
0.6039999999999999,0.0072,-0.407,0.007890373908665455,1.0030357331042632,0.017314160263633374,0.02314376335364742
0.605,0.009,0.593,0.007909363339292593,1.0150211054217018,0.01737619300470267,0.02389565446040981
0.6059999999999999,0.0072,-0.407,0.007942725019946478,1.015021105421702,0.017485175550744962,0.023895654460409824
0.607,-0.0041,-0.407,0.00791107246870557,1.015021105421702,0.017381776214879477,0.023895654460409824
0.6079999999999999,0.0002,2.593,0.00793284938712138,1.0227808572142945,0.017452914837616514,0.0243824552212877
0.609,-0.0034,1.593,0.007909097705385183,1.011922477564494,0.017375325258864413,0.023701264943981448
0.6099999999999999,0.0028,-0.407,0.00784426633890974,1.011922477564494,0.017163540743114245,0.023701264943981448
0.611,-0.0139,-0.407,0.007736324714915516,1.0108874909288967,0.01681092802168468,0.02363633602677199
0.6119999999999999,-0.0071,0.593,0.007774306504782605,1.011922477564494,0.01693500307071782,0.023701264943981448
0.613,-0.0049,0.593,0.007776004578778832,1.0088143321489011,0.016940550166183337,0.023506278352442008
0.6139999999999999,-0.0147,-0.407,0.007659983432710111,0.996754329903586,0.016561544083591347,0.02274970540705313
0.615,-0.0021,1.593,0.007676738154769374,0.984546612209935,0.016616276705943112,0.021983865671364077
0.6159999999999999,0.0059,-0.407,0.007575951635932822,0.9721856145030026,0.01628703755448964,0.021208410057604803
0.617,0.0164,0.593,0.007560792637122836,0.9732617583827714,0.016237517678590583,0.021275920935979242
0.6179999999999999,0.0073,1.593,0.007564988728857278,0.9824178688554996,0.016251225044397206,0.021850320950817462
0.619,0.0134,-0.407,0.007574371835135363,0.9904330903595129,0.01628187682188348,0.02235314836476685
0.6199999999999999,0.0145,0.593,0.007570239710390726,1.0223232703243041,0.016268378416934792,0.024353748936322805
0.621,0.0015,1.593,0.007558138297737457,1.011459978329761,0.016228846752587782,0.02367225048767006
0.6219999999999999,-0.0152,-0.407,0.007573663564132921,1.0104245179522806,0.016279563114191868,0.023607291850707268
0.623,-0.004,0.593,0.007566809744977587,1.0192468421316572,0.016257173754692537,0.02416075209505833
0.6239999999999999,0.0018,0.593,0.007581327062897645,1.0202733489017044,0.01630459745270845,0.024225149035844797
0.625,0.0036,0.593,0.007605331166109857,1.0202733489017046,0.01638301161627141,0.02422514903584481
0.6259999999999999,-0.0011,1.593,0.007600977338956468,1.0202733489017048,0.01636878897643719,0.024225149035844825
0.627,-0.0087,0.593,0.007554558216643875,1.0192468421316583,0.01621715170770487,0.0241607520950584
0.6279999999999999,0.009,-0.407,0.007506249002252362,1.0202733489017053,0.016059340078359484,0.024225149035844856
0.629,-0.0029,-0.407,0.007455874438716237,1.0310437855701593,0.015894781576439504,0.024900822292584262
0.6299999999999999,-0.0095,0.593,0.007579187316761201,1.091524444480204,0.016297607547605855,0.028695019782755377
0.631,-0.0037,0.593,0.007484694544745612,1.091524444480204,0.01598892816829966,0.028695019782755377
0.6319999999999999,-0.0019,1.593,0.007497383350690338,1.0905650056801173,0.016030378669323258,0.02863483028824812
0.633,0.013,-1.407,0.007428253728026563,1.0607284615049166,0.015804553047316892,0.02676306263450444
0.6339999999999999,0.0032,-0.407,0.007131469705929984,1.0502624851735134,0.014835049181839704,0.026106489411850523
0.635,0.0014,0.593,0.007323771720376597,1.0617148630071687,0.015463241848776375,0.026824943608878615
0.6359999999999999,-0.0065,0.593,0.007362230620585603,1.086718779850197,0.015588875473360448,0.028393540913206415
0.637,-0.0022,0.593,0.007361111157096935,1.0876816113931707,0.015585218523866141,0.028453943248261032
0.6379999999999999,0.0015,-2.407,0.007367154212203864,1.0765055156362915,0.015604959361813112,0.027752821348552024
0.639,0.0004,-0.407,0.007722693853737742,1.0838251531625684,0.016766400110416822,0.02821201195314628
0.6399999999999999,-0.0007,-0.407,0.007840893058691647,1.0847905530154682,0.01715252125430324,0.028272575408718612
0.641,-0.0138,0.593,0.007817347244113147,1.0847905530154653,0.0170756041814487,0.028272575408718432
0.6419999999999999,-0.0011,-1.407,0.007825903678486814,1.0847905530154667,0.017103555471216156,0.028272575408718515
0.643,-0.0026,-1.407,0.007875480823352352,1.1149220994144928,0.01726550904690704,0.030162849750673022
0.6439999999999999,0.005,-0.407,0.007920240368646081,1.104969550023472,0.017411724978185,0.029538485886245216
0.645,0.0061,1.593,0.007906733084720632,1.1049695500234678,0.017367600756519327,0.029538485886244952
0.6459999999999999,0.0173,0.593,0.007897967800615201,1.1158605957047416,0.017338967217684624,0.030221725436440482
0.647,0.0035,-1.407,0.007916936182825138,1.115860595704739,0.017400931199924877,0.030221725436440316
0.6479999999999999,-0.002,-0.407,0.007930850683257025,1.1167983033342583,0.017446385675066765,0.030280551646315584
0.649,-0.0005,-0.407,0.008054842980439937,1.1068626242883683,0.017851431103587546,0.0296572461271887
0.6499999999999999,-0.0081,-0.407,0.008054791812604566,1.1068626242883681,0.017851263953705857,0.029657246127188685
0.651,-0.0092,-0.407,0.008157538580447666,1.0987440331261316,0.018186906647289804,0.029147933914547303
0.6519999999999999,-0.0179,-0.407,0.00820048005448496,1.105916492219365,0.0183271834882543,0.02959789141799278
0.653,-0.0012,-1.407,0.008131511243527227,1.106862624288366,0.018101883189577412,0.029657246127188543
0.6539999999999999,0.0057,1.593,0.008279578888646196,1.0968369467531551,0.018585575516680622,0.029028294637127246
0.655,0.0079,0.593,0.00828029902166901,1.0968369467531551,0.01858792797401422,0.029028294637127246
0.6559999999999999,0.0021,-0.407,0.008364759894761535,1.1040217956160543,0.018863836165992746,0.029479029401168373
0.657,-0.006999999999996692,-1.407,0.008395720247538945,1.1040217956160543,0.01896497429830254,0.029479029401168373
0.6579999999999999,0.0079,0.593,0.008395238902579493,1.1049695500234566,0.018963401889533632,0.029538485886244255
0.659,0.0060999999999979794,0.593,0.00843622987499331,1.0857550944827736,0.01909730703012753,0.028333085014274652
0.6599999999999999,-0.003,-0.407,0.008540158713774535,1.0857550944827736,0.01943681119285555,0.028333085014274652
0.661,-0.007699999999997669,0.593,0.008668229052098847,1.0968369467531551,0.01985517835150935,0.029028294637127246
0.6619999999999999,0.0028,-1.407,0.008589085794173584,1.0977909040643974,0.01959664120404785,0.029088140255565848
0.663,0.0017000000000019317,-0.407,0.008602946154784534,1.0977909040643974,0.019641918820727803,0.029088140255565848
0.6639999999999999,0.0104,-0.407,0.008621791249024884,1.0977909040643974,0.019703480058365305,0.029088140255565848
0.665,0.002699999999998557,-0.407,0.008519843364313686,1.1059164922193645,0.019370447074963774,0.029597891417992753
0.6659999999999999,-0.0038,0.593,0.008564788492324069,1.0958821590294463,0.019517269248989885,0.028968396923540325
0.667,-0.003100000000000155,-1.407,0.008544598342020832,1.095882159029446,0.019451314118975563,0.02896839692354031
0.6679999999999999,-0.0038,-1.407,0.008454937401621456,1.095882159029446,0.019158418875877777,0.02896839692354031
0.669,-0.0001999999999998446,2.593,0.008433216600454681,1.0857550944827736,0.019087463571263716,0.028333085014274652
0.6699999999999999,0.0005,0.593,0.008329084851755136,1.0939700836455966,0.018747296563047026,0.028848444665195868
0.671,-0.0049999999999992,-0.407,0.008212443851365318,1.0939700836455966,0.018366265603387562,0.028848444665195868
0.6719999999999999,-0.0014,-1.407,0.008230071281827978,1.091095687857084,0.018423849100811886,0.02866812213758
0.673,-0.0050000000000004,0.593,0.008150128627163043,1.0920546604195538,0.018162700565366334,0.02872828238310704
0.6739999999999999,-0.0068,-0.407,0.008165400815914273,1.091095687857084,0.018212590198655947,0.02866812213758
0.675,0.0022000000000014434,0.593,0.008166661451705774,1.091095687857084,0.018216708315474315,0.02866812213758
0.6759999999999999,0.0087,-0.407,0.008159285659304764,1.091095687857084,0.018192613826851847,0.02866812213758
0.677,0.0025000000000022647,0.593,0.008166981987226032,1.080923780280821,0.01821775540831886,0.02802999704285322
0.6779999999999999,0.0127,1.593,0.008145075705417415,1.0799549238245256,0.018146194194404268,0.027969216740504343
0.679,0.013699999999996382,3.593,0.008125386336538516,1.0882136996973957,0.018081874966225982,0.02848732330966947
0.6799999999999999,-0.0026,-0.407,0.008122484560006558,1.0882136996973957,0.018072395737712903,0.02848732330966947
0.681,-0.009199999999998713,-0.407,0.008071059655202585,1.0872513393532104,0.01790440608774103,0.028426950534829517
0.6819999999999999,-0.0034,0.593,0.008088702416165092,1.0862881264386564,0.017962039665283404,0.028366524274786004
0.683,-0.008900000000001754,0.593,0.008086491461060259,1.076070774790331,0.01795481714196362,0.0277255482887616
0.6839999999999999,-0.0168,1.593,0.008005144278003244,1.0677180777909525,0.017689080435983565,0.02720154966569206
0.6849999999999998,-0.0092,-2.407,0.007999101490398761,1.07898519740036,0.017669340471886383,0.027908381861535936
0.6859999999999999,-0.0082,0.593,0.007999250572190315,1.07898519740036,0.017669827477123937,0.027908381861535936
0.6869999999999998,0.003,-0.407,0.007986180606678885,1.07898519740036,0.0176271318427853,0.027908381861535936
0.688,0.0259,-1.406999999999778,0.008020137410157937,1.07898519740036,0.01773805847555894,0.027908381861535936
0.6889999999999998,0.0161,0.5929999999997779,0.008021990359802477,1.05379779847005,0.01774411150304413,0.02632827398031295
0.69,0.0012,-1.406999999999778,0.008086361799301377,1.062259958191299,0.017954393576114107,0.02685913964471559
0.6909999999999998,0.0037,0.593000000000222,0.008133714334598618,1.0632449388830045,0.018109080023472387,0.02692093148587087
0.692,0.0106,2.592999999999778,0.008016003526454015,1.062259958191299,0.017724554324620917,0.02685913964471559
0.6929999999999998,0.0084,0.5929999999997779,0.008016499014366617,1.0547906812937184,0.017726172934151078,0.026390561554315742
0.694,0.0026,-1.406999999999667,0.008012369898123373,1.0462681122101591,0.017712684357068825,0.02585590616514834
0.6949999999999998,0.0008,1.592999999999667,0.008051860199239477,1.0547906812937184,0.017841687257260205,0.026390561554315742
0.696,0.0055,-1.406999999999778,0.008030650652882908,1.044265196231457,0.017772402067874168,0.025730255107167675
0.6969999999999998,-0.005,0.593,0.007841996366820567,1.0432622962498836,0.01715612542911105,0.025667339116145847
0.698,-0.0141,0.592999999999889,0.007857923942422289,1.0432622962498836,0.017208156013522106,0.025667339116145847
0.6989999999999998,-0.0003,-0.407,0.007888409362994214,1.0518092210533414,0.01730774268559558,0.026203522438589363
0.7,-0.0131,-0.407000000000111,0.00795794920111538,1.0518092210533414,0.017534908357746185,0.026203522438589363
0.7009999999999998,-0.0084,-1.406999999999778,0.007957117208875038,1.0528039792746702,0.017532190490094957,0.026265927663907864
0.702,-0.007,0.593,0.007925043721963393,1.0537977984700497,0.01742741608438233,0.026328273980312938
0.7029999999999998,-0.0161,0.592999999999889,0.00787630791636232,1.0537977984700497,0.017268210910250652,0.026328273980312938
0.704,-0.0073,-0.407,0.007995247906151144,1.0567736483805572,0.01765675197471051,0.026514961137249618
0.7049999999999998,-0.0149,-1.407,0.008025364719615792,1.045267133963403,0.017755134518567032,0.025793110732360368
0.706,-0.0102,-0.407,0.007987724486368843,1.045267133963403,0.01763217523197004,0.025793110732360368
0.7069999999999999,-0.004,0.593,0.008001267097378872,1.0462681122101591,0.01767641485656346,0.02585590616514834
0.708,0.0083,1.593,0.008137814827863583,1.0462681122101591,0.018122475097919668,0.02585590616514834
0.7089999999999999,0.0137,1.593,0.008120817387653917,1.045267133963403,0.01806694958859448,0.025793110732360368
0.71,0.0151,1.593,0.00822469056996291,1.045267133963403,0.018406271938418338,0.025793110732360368
0.7109999999999999,0.0075,0.593,0.008238244552328508,1.0462681122101591,0.018450548709799855,0.02585590616514834
0.712,0.0086,0.593,0.008242075119663485,1.045267133963403,0.018463062017665944,0.025793110732360368
0.7129999999999999,0.0075,0.593,0.00825832655367527,1.0366662735074437,0.018516150549800083,0.025253543807273626
0.714,0.0064,-1.407,0.008256782796356107,1.0376755484791735,0.01851110756036381,0.025316859727332063
0.7149999999999999,0.009,0.593,0.008194751941746257,1.0462681122101591,0.018308471472011544,0.02585590616514834
0.716,0.0006,-0.407,0.008270738900137076,1.0472681337229515,0.01855669794109612,0.025918641578127177
0.7169999999999999,0.0108,0.593,0.008363833154578348,1.0472681337229515,0.018860808785396088,0.025918641578127177
0.718,-0.0041,0.593,0.008375602326744289,1.0472681337229515,0.01889925512030233,0.025918641578127177
0.7189999999999999,-0.0023,-1.407,0.008416454414873757,1.0396911591809563,0.019032706567838297,0.025443307176875245
0.72,-0.0042,0.593,0.008511844424067654,1.007311750466463,0.019344316950324767,0.023412015297921335
0.7209999999999999,-0.0056,-1.407,0.008622978435970374,1.0073117504664633,0.01970735823996203,0.02341201529792135
0.722,-0.01,0.593,0.008608901612937352,1.007311750466463,0.019661373505852214,0.023412015297921335
0.7229999999999999,-0.0064,-0.407,0.008620012689948699,1.0259548632099107,0.019697670042424554,0.024581573514629494
0.724,0.0023,0.593,0.008611465519349965,1.025954863209911,0.01966974901461508,0.024581573514629508
0.7249999999999999,-0.001,0.593,0.008691566656963579,1.0346447699864545,0.01993141526604235,0.025126726677236783
0.726,0.0037,0.593,0.00871764759569409,1.045267133963403,0.020016613824697493,0.025793110732360368
0.7269999999999999,0.0063,-0.407,0.008680664206869021,1.0537977984700497,0.01989580025066795,0.026328273980312938
0.728,0.007,-1.407,0.008693263383389506,1.0612740633280533,0.01993695795940223,0.026797290453864954
0.7289999999999999,0.0019,-0.407,0.008738588297519494,1.0612740633280533,0.020085020780106055,0.026797290453864954
0.73,0.0026,-0.407,0.008712164244174283,1.0000109467608878,0.019998701369516557,0.022954006215428927
0.7309999999999999,-0.0065,-0.407,0.008708598726561942,1.0010571786493268,0.019987053899133307,0.023019640593043043
0.732,-0.0,0.593,0.008806366125807184,1.002102318233569,0.020306430497699212,0.023085206445976437
0.7329999999999999,-0.0062,-0.407,0.00881286762362185,1.0021023182335693,0.020327668929667964,0.02308520644597645
0.734,-0.0008,1.593,0.008772667846123239,1.0021023182335693,0.02019634838417194,0.02308520644597645
0.7349999999999999,-0.0015,0.593,0.008720500823445247,0.9899605515582965,0.02002593445899004,0.022323504085655237
0.736,0.0046,0.593,0.008675853264818225,0.962446173815885,0.019880084354367725,0.020597415368117475
0.7369999999999999,-0.0077,0.593,0.00863747810145073,0.9706263312549017,0.01975472427278288,0.021110589883469307
0.738,-0.0023,0.593,0.008777287279349734,0.9830069366453305,0.020211438678918142,0.021887275566888048
0.7389999999999999,-0.0102,-1.407,0.008386233945858688,0.9738563645510493,0.018933985412569673,0.021313222997034427
0.74,-0.0088,0.593,0.008349823791383987,0.9738563645510506,0.01881504442222769,0.02131322299703451
0.7409999999999999,0.0003,-0.407,0.008350107525025989,0.9646189921727326,0.018815971294438474,0.020733725092659507
0.742,0.0014,0.593,0.008393449073007073,0.9635331954720566,0.0189575550562818,0.020665608653606348
0.7429999999999999,0.0003,-0.407,0.008436331565353214,0.9285017366302413,0.019097639221855076,0.018467942893841058
0.744,0.0094,-1.407,0.008424217354213085,0.9285017366302427,0.019058065748712577,0.018467942893841148
0.7449999999999999,-0.0018,0.593,0.008430689303621872,0.9285017366302477,0.019079207654953575,0.018467942893841464
0.746,-0.0004,-0.407,0.008434979387240877,0.9285017366302536,0.019093222063891302,0.01846794289384183
0.7469999999999999,0.0061,-1.407,0.008418705513208518,0.9199470840721707,0.01904006022697972,0.017931274777949775
0.748,0.0072,-1.407,0.008404196251617639,0.9318777917606111,0.018992662846560777,0.01867973655041118
0.7489999999999999,0.0105,-0.407,0.008298492859663296,0.9436576710123102,0.018647361753968812,0.019418736242160447
0.75,0.008,0.593,0.008308033868086987,0.9447663104409052,0.01867852935012838,0.019488285698354965
0.7509999999999999,-0.0058,0.593,0.008204347864020413,0.9447663104409048,0.018339818455154006,0.019488285698354937
0.752,-0.0156,-0.407,0.008163289520742922,0.9352416600151372,0.01820569323427313,0.018890765674739542
0.7529999999999999,-0.0138,1.593,0.008140026088022593,0.9352416600151372,0.018129698617759416,0.018890765674739542
0.754,-0.009,-0.407,0.007998391094877133,0.9341217165573914,0.017667019824031516,0.01882050707086367
0.7549999999999999,0.0015,0.593,0.007994997280945545,0.9469796956173949,0.017655933257773197,0.01962714034433212
0.756,0.0051,0.593,0.007882848416581368,0.946979695617395,0.017289576751308152,0.019627140344332127
0.7569999999999999,0.0164,-1.407,0.007834030485765333,0.9563874542401061,0.01713010329887498,0.02021732727016434
0.758,0.0059,-0.407,0.007825475053098671,0.9646189921727564,0.017102155281382116,0.020733725092661
0.7589999999999999,-0.0144,0.593,0.007781749559924703,0.961357923049035,0.016959317286423397,0.02052914497552138
0.76,-0.0056,0.593,0.007661951150949937,0.948694836942664,0.016567972025453594,0.01973473812896115
0.7609999999999999,-0.0081,-0.407,0.007641020881963758,0.9358604228591895,0.01649959915098337,0.018929583182224145
0.762,-0.0059,-0.407,0.007608796814269504,0.9358604228591895,0.01639433284328163,0.018929583182224145
0.7629999999999999,0.0006,0.593,0.007560097428208523,0.9475907937279279,0.016235246640800276,0.019665477011938222
0.764,0.0025,-1.407,0.007523853548826233,0.9475907937279264,0.016116848821022822,0.01966547701193813
0.7649999999999999,0.0115,0.593,0.007507663271422774,0.9475907937279249,0.016063960069078172,0.019665477011938035
0.766,0.013,0.593,0.007457918479644312,0.9464854626850718,0.015901458841499,0.01959613510422438
0.7669999999999999,0.0054,-1.407,0.007474471843064457,0.9475907937279251,0.015955533685923264,0.01966547701193805
0.768,0.0091,0.593,0.0073974080115654026,0.9591777174443007,0.015703789397268453,0.020392371818902116
0.7689999999999999,0.0127,-0.407,0.007390629989135071,0.9591777174442994,0.015681647642803116,0.020392371818902032
0.77,0.0138,0.593,0.007410531182320812,0.9591777174442977,0.01574665883708805,0.02039237181890193
0.7709999999999999,0.0008,-0.407,0.007584606308046602,0.9580857541775208,0.01631530975731738,0.020323868526100075
0.772,-0.0046,-2.407,0.0075639703337062394,0.949797596820184,0.01624789825467133,0.019803918737025805
0.7729999999999999,-0.0032,0.593,0.007525740407753442,0.9613579230490239,0.016123012619904634,0.020529144975520684
0.774,-0.0136,-1.407,0.007513213063964113,0.9613579230490239,0.01608208956703232,0.020529144975520684
0.7749999999999999,-0.0071,1.593,0.007515227688446177,0.9602684389926541,0.01608867073743714,0.020460797213661674
0.776,-0.0034,-1.407,0.007560370265993468,0.9602684389926548,0.016236137919533152,0.020460797213661716
0.7769999999999999,0.0053,-1.407,0.007561377789253461,0.9717042020126939,0.016239429194070846,0.021178209095919137
0.778,0.0155,1.593,0.007709488291494228,0.9717042020126939,0.016723261522461706,0.021178209095919137
0.7789999999999999,0.0119,0.593,0.007722392152080844,0.9624461738159025,0.01676541454212202,0.020597415368118568
0.78,0.0007,0.593,0.007884271951790348,0.9717042020126911,0.01729422701137943,0.021178209095918964
0.7809999999999999,-0.016,0.593,0.007880734601739697,0.9727808784576638,0.017282671555922544,0.02124575338427266
0.782,-0.004799999999999578,0.593,0.007867953830516172,0.973856364551061,0.017240920632077477,0.021313222997035156
0.7829999999999999,-0.0029,0.593,0.00786827311258799,0.9851344071040974,0.017241963630284112,0.022020740433517105
0.784,0.013799999999997512,-0.407,0.007844182454466121,0.994181180055526,0.017163266717943458,0.022588281261362777
0.7849999999999999,0.0026,0.593,0.007844200563609622,0.9819414729041195,0.017163325875052055,0.021820434697002955
0.786,0.0007999999999962919,-1.407,0.007845105875728488,0.9899605515583058,0.017166283256627057,0.022323504085655813
0.7869999999999999,-0.0159,1.593,0.007850907336698609,0.9899605515583058,0.017185234879413938,0.022323504085655813
0.788,-0.0003000000000030642,-0.407,0.007813151157658953,0.9979151923255495,0.017061896832891058,0.022822531023824248
0.7889999999999999,-0.0141,0.593,0.00781001490856807,0.9968656628605457,0.01705165165326437,0.02275668977583287
0.79,-0.0014000000000017542,-0.407,0.007816696494671644,1.0157005309177758,0.017073478379343397,0.023938277582551987
0.7909999999999999,-0.0093,-0.407,0.007778403492134658,1.0157005309177758,0.016948386692405292,0.023938277582551987
0.792,-0.013599999999998556,-0.407,0.007796317497724478,1.0157005309177758,0.017006906344315186,0.023938277582551987
0.7929999999999999,-0.0071,0.593,0.007841154802508528,1.026518947604181,0.017153376292389312,0.024616960820779188
0.794,0.004199999999999689,-1.407,0.007843621627703763,1.0352041192473356,0.01716143466610277,0.02516181692922826
0.7949999999999999,0.0028,1.593,0.007830133278635663,1.026518947604181,0.017117372298903723,0.024616960820779188
0.796,0.0016999999999997779,0.593,0.007828484190805063,1.026518947604181,0.01711198522646302,0.024616960820779188
0.7969999999999999,0.0007,1.593,0.007830435245591578,1.026518947604181,0.017118358733850387,0.024616960820779188
0.798,-0.004699999999999845,1.593,0.007909341822238923,1.026518947604181,0.017376122714979663,0.024616960820779188
0.7989999999999999,-0.004,0.593,0.007877044625506667,1.0177596627269812,0.017270617516772564,0.024067455288007192
0.8,0.00039999999999951153,-0.407,0.007819069566697315,1.0265189476041807,0.017081230489735633,0.024616960820779174
0.8009999999999999,-0.0018,-0.407,0.007777999428105482,1.026518947604181,0.01694706673712125,0.024616960820779188
0.802,0.0033000000000004883,0.593,0.007796448051400477,1.0254986925913907,0.017007332823788846,0.0245529560781288
0.8029999999999999,0.0055,-0.407,0.0077249097232643055,1.0523594471183146,0.016773638687669803,0.0262380403554304
0.804,0.006899999999999933,1.593,0.007749174110752073,1.0408041330489028,0.01685290312143764,0.02551312855006282
0.8049999999999999,0.0066,-1.407,0.007863239707073144,1.0493710793079516,0.017225521012960297,0.026050567899770623
0.806,0.00519999999999849,-1.407,0.007862694148113391,1.0493710793079516,0.017223738836424682,0.026050567899770623
0.8069999999999999,-0.0016,-1.407,0.007977287171495496,1.048373063753639,0.01759807967303992,0.02598795832871822
0.808,-0.0008999999999994226,-1.407,0.007973197294913076,1.048373063753639,0.017584719280091643,0.02598795832871822
0.8089999999999999,0.0017,-0.407,0.008152663591360994,1.048373063753639,0.01817098152864528,0.02598795832871822
0.81,0.013999999999996291,-0.407,0.008031388086732578,1.048373063753639,0.01777481104178974,0.02598795832871822
0.8109999999999999,-0.0027,0.593,0.008011998373379946,1.0473740972166767,0.017711470697814775,0.025925289098659984
0.8119999999999998,-0.0005,1.593,0.007973827756655604,1.0483730637536393,0.01758677880840485,0.025987958328718235
0.813,0.0013,0.5929999999997779,0.007952041182415779,1.0483730637536393,0.017515608643003756,0.025987958328718235
0.8139999999999998,-0.0041,-1.406999999999889,0.007954826320308486,1.0736877278580406,0.017524706848270306,0.02757605007144051
0.815,-0.0026,-0.40699999999988895,0.007959055038583945,1.0662985039473931,0.017538520795143554,0.0271124940301978
0.8159999999999998,0.005,0.593000000000111,0.007926765620099457,1.0662985039473931,0.017433041006125347,0.0271124940301978
0.817,-0.0015,1.592999999999889,0.007888266699872937,1.0662985039473931,0.017307276648217417,0.0271124940301978
0.8179999999999998,-0.0026,0.5929999999997779,0.007869706152306146,1.0588577156955203,0.01724664493871952,0.026645703148303793
0.819,-0.0059,-1.406999999999889,0.007845397976186356,1.0578686500715446,0.017167237460701153,0.026583655042748514
0.8199999999999998,-0.0167,-0.40699999999988895,0.007809877426793945,1.0588577156955203,0.017051202541784223,0.026645703148303793
0.821,-0.0,0.593000000000111,0.007702373982457407,1.0588577156955203,0.016700021221104946,0.026645703148303793
0.8219999999999998,-0.0065,1.592999999999778,0.007705660046957564,1.0588577156955203,0.01671075580247696,0.026645703148303793
0.823,-0.0047,-0.407,0.0077013952178140895,1.0321660838525075,0.016696823892291938,0.024971228624176025
0.8239999999999998,-0.0029,-0.40699999999988895,0.007696639178739015,1.0321660838525077,0.0166812873474501,0.02497122862417604
0.825,0.0083,0.593000000000111,0.007576337635047548,1.023455131375658,0.016288298497148055,0.024424755179271583
0.8259999999999998,0.0039,1.592999999999778,0.007544048365796764,1.0203821157232886,0.01618281919563134,0.024231972420525223
0.827,0.0163,-0.407,0.00754158950647495,1.012603982144758,0.01617478684402318,0.023744018495523014
0.8279999999999998,0.0083,-0.407000000000111,0.007554376612099137,1.0037232715939015,0.016216558460444227,0.02318689543684218
0.829,0.016,-1.406999999999778,0.007413096174989906,0.9926564484530495,0.01575503789432314,0.02249262865235424
0.8299999999999998,0.0011,0.593,0.007318171251927314,0.9926564484530495,0.015444946807919035,0.02249262865235424
0.831,-0.0047,0.593000000000111,0.007340847093586654,0.9926564484530495,0.015519021941702767,0.02249262865235424
0.8319999999999999,0.0007,1.592999999999667,0.007173144258894988,1.000589657196163,0.014971187373869654,0.02299031107256223
0.833,-0.0007,-1.407,0.007184722138829554,0.9995429359483222,0.015009008814765617,0.022924645995444384
0.8339999999999999,0.0008,-0.407,0.00721685064082634,0.9984951174244411,0.015113962938164282,0.022858912081741862
0.835,0.0019,-1.407,0.007094187076795658,0.9995429359483222,0.014713258079995547,0.022924645995444384
0.8359999999999999,0.0055,0.593,0.0070990834339026004,0.9984951174244411,0.01472925300151593,0.022858912081741862
0.837,0.0001,-1.407,0.007186296322005179,0.989487787091984,0.015014151196295983,0.022293845649655177
0.8379999999999999,-0.0006,-0.407,0.007067111309876013,0.9782599345370577,0.01462480971776932,0.02158947683569641
0.839,-0.0107,-2.407,0.0070673136391570905,0.987369696839388,0.014625470666491284,0.022160969241474694
0.8399999999999999,-0.0042,0.593,0.00692959969177535,0.9873696968393881,0.01417560074636037,0.0221609692414747
0.841,-0.0053,-0.407,0.006928799339465195,0.9995429359483222,0.014172986236815826,0.022924645995444384
0.8419999999999999,-0.0085,1.593,0.0068867156706288535,1.0084604600679437,0.01403551158665754,0.02348407851888187
0.843,-0.002,-1.407,0.006753188262464581,1.0094979350172995,0.013599317827142124,0.0235491635381244
0.8439999999999999,0.0082,-0.407,0.006874663789465445,1.0084604600679437,0.013996141726745088,0.02348407851888187
0.845,-0.0008,0.593,0.006870642980947033,1.000589657196163,0.013983006958325264,0.02299031107256223
0.8459999999999999,-0.0018,-0.407,0.006867235118662827,0.9884293093188042,0.013971874500337088,0.022227443037931418
0.847,0.0127,-1.407,0.006865108616429021,0.987369696839388,0.013964927859068946,0.022160969241474694
0.8479999999999999,-0.001,-0.407,0.007022657614794854,0.9750444890717646,0.014479592906865991,0.021387758876036892
0.849,0.0044,-1.407,0.007024145826626348,0.9718184047536805,0.014484454445951183,0.021185373497911955
0.8499999999999999,-0.0003,0.593,0.0070881636384805555,0.9718184047536805,0.014693581324189417,0.021185373497911955
0.851,-0.0079,-0.407,0.007184105389300897,0.9809879869469581,0.015006994080118382,0.021760618648521142
0.8519999999999999,-0.0115,-2.407,0.007199894741020506,0.9820544851575134,0.015058573128806381,0.02182752441487166
0.853,-0.0151,-0.407,0.007229149472670448,0.993239443992098,0.015154139511449737,0.022529202331459306
0.8539999999999999,-0.0161,-1.407,0.007327836081839072,1.005341611428284,0.01547651889152527,0.023288420470605302
0.855,-0.0012,0.593,0.007530832357145707,0.993239443992098,0.016139646482414283,0.022529202331459306
0.8559999999999999,0.0144,-0.407,0.00750209569191682,0.9932394439920978,0.016045772466476645,0.0225292023314593
0.857,0.0162,-1.407,0.007653297163127653,0.9841840144939741,0.016539702057999726,0.02196111844326448
0.8579999999999999,0.018,-0.407,0.007651705354995269,0.987369696839388,0.016534502101052784,0.022160969241474694
0.859,-0.0033,0.593,0.00765263930294451,0.9905451337965044,0.016537553027246674,0.022360177304845952
0.8599999999999999,-0.0004,-0.407,0.007660710080850394,0.9905451337965044,0.016563917823848213,0.022360177304845952
0.861,0.0021,0.593,0.007679626065592712,0.9995429359483221,0.016625710639369184,0.022924645995444377
0.8619999999999999,-0.0001,-0.407,0.007687562501546852,0.9995429359483222,0.01665163658134306,0.022924645995444384
0.863,-0.0022,-2.407,0.007690249223010261,0.9995429359483222,0.016660413289825666,0.022924645995444384
0.8639999999999999,0.0036,0.593,0.007689909424514752,0.9995429359483236,0.016659303270652286,0.022924645995444467
0.865,0.009,0.593,0.00779521098725141,0.9916013530505514,0.017003291708415143,0.022426438230487254
0.8659999999999999,0.0104,0.593,0.007791001538803385,0.9916013530505517,0.016989540710254738,0.022426438230487275
0.867,-0.0001,0.593,0.007822400156588149,0.9905451337965072,0.01709211052212643,0.022360177304846126
0.8679999999999999,-0.0067,-0.407,0.007846240622122917,0.979329403624848,0.017169990130763892,0.021656568977247725
0.869,-0.0103,0.593,0.007876881841510818,0.9782599345370635,0.017270085750567297,0.021589476835696772
0.8699999999999999,-0.0049,0.593,0.007856641350855256,0.9701441450052407,0.01720396617380876,0.02108034038071538
0.871,-0.0024,-0.407,0.007683925457508328,0.9701441450052412,0.016639755455703783,0.021080340380715407
0.8719999999999999,0.0038,-0.407,0.007684725483547243,0.9701441450052405,0.016642368899418614,0.021080340380715365
0.873,-0.0017,0.593,0.007671726955499392,0.9575972532962225,0.01659990662972202,0.0202932228808447
0.8739999999999999,-0.001,-0.407,0.007658634371906223,0.9575972532962225,0.016557137108933834,0.0202932228808447
0.875,0.0012,-1.407,0.007667539424513358,0.9586897729736215,0.016586227229297815,0.020361761079545793
0.8759999999999999,-0.0028,0.593,0.007622387227189634,0.9575972532962221,0.01643872862229432,0.020293222880844678
0.877,-0.0069,-0.407,0.0076127877017104365,0.9448837690176446,0.016407369868568014,0.0194956543521543
0.8779999999999999,-0.0054,0.593,0.007437344532821641,0.9459909715408139,0.015834249964040596,0.019565113665432753
0.879,0.0014,0.593,0.007399505434993303,0.9459909715408135,0.015710641046850285,0.019565113665432725
0.8799999999999999,0.0058,0.593,0.007237694448817587,0.9364787768660224,0.015182053370647881,0.01896837504168871
0.881,0.0035,-1.407,0.007239865518646474,0.9353603146577998,0.01518914560080386,0.018898209362614327
0.8819999999999999,-0.0063,-0.407,0.0072528650110461786,0.934240513440192,0.015231611020747035,0.018827959682040287
0.883,-0.0074,-0.407,0.0072535260150289275,0.9212047407528456,0.015233770321344972,0.01801017269188307
0.8839999999999999,-0.0039,0.593,0.007254345808686621,0.9212047407528458,0.015236448339906793,0.018010172691883077
0.885,0.0037,-0.407,0.007260553801903095,0.9223403686650937,0.015256727980898615,0.01808141524532199
0.8859999999999999,-0.0112,-0.407,0.0072927748385413676,0.9257388938142822,0.015361984387054882,0.01829461853747714
0.887,-0.0091,0.593,0.007282882532557737,0.9257388938142823,0.015329669207747514,0.018294618537477148
0.8879999999999999,0.0006,-1.407,0.007439621041853007,0.9171584716328894,0.01584168663226185,0.01775633378840272
0.889,0.0024,0.593,0.007622146693326518,0.926868966361604,0.01643794287072851,0.018365512580300596
0.8899999999999999,0.0009,1.593,0.007558424067472964,0.8974223223518892,0.016229780276101793,0.016518204948255826
0.891,0.0053,-1.407,0.007598989395351539,0.8974223223518886,0.0163622949644088,0.016518204948255785
0.8919999999999999,0.0016,0.593,0.007616493087060622,0.897422322351889,0.016419474244655074,0.016518204948255812
0.893,-0.0147,-0.407,0.007570943012796404,0.8939161486427133,0.01627067589371972,0.016298248424514154
0.8939999999999999,-0.0035,0.593,0.007587627565992894,0.8850272557225057,0.016325179295565567,0.015740612052555742
0.895,-0.0018,-0.407,0.007863242205543124,0.898588006785755,0.017225529174707974,0.01659133306942731
0.8959999999999999,-0.0,-0.407,0.007930135493725282,0.9107985437092749,0.017444049366627128,0.01735734966686168
0.897,0.0148,-0.407,0.008026187645514344,0.9119471303242744,0.017757822769214796,0.01742940517238051
0.8979999999999999,0.0049,-1.407,0.008232945568876507,0.9032357007305276,0.018433238529475714,0.016882901795994394
0.899,0.0103,0.593,0.0084062232245433,0.9165270828740669,0.018999284355605512,0.017716724205980517
0.8999999999999999,0.0117,-1.407,0.008442855304782372,0.906705837041644,0.019118950310468452,0.017100597547321645
0.901,-0.0051,0.593,0.008511488781075686,0.9188084981154278,0.019343155171961474,0.01785984665435999
0.9019999999999999,-0.0073,1.593,0.008478844596847605,0.9199470840721601,0.019236516470285767,0.017931274777949105
0.903,-0.0132,1.593,0.008400769992764774,0.8890949330978991,0.018981470292532724,0.015995793982889844
0.9039999999999999,-0.0187,-0.407,0.008265641753180024,0.8991085689596192,0.018540047099710334,0.016623990049843006
0.905,-0.0007,-1.407,0.0081489538229732,0.8991085689596192,0.01815886283449664,0.016623990049843006
0.9059999999999999,0.016,-0.407,0.008152923320312658,0.9078596015954932,0.01817182998477454,0.01717297788598452
0.907,0.0002999999999996003,1.593,0.00803614741437576,0.9176684994731945,0.017790358329391482,0.017788329907269102
0.9079999999999999,-0.0015,1.593,0.007870991454533276,0.9176684994731894,0.017250843633341645,0.017788329907268783
0.909,0.0039000000000024644,-0.407,0.007670149205906177,0.9307538006867649,0.016594752597781315,0.01860922402313027
0.9099999999999999,0.015,-1.407,0.007663113617620974,0.9307538006867649,0.01657176945337137,0.01860922402313027
0.911,0.004399999999998557,0.593,0.007698575671197776,0.9318777917605943,0.016687613284105896,0.018679736550410123
0.9119999999999999,-0.0021,1.593,0.007738104173981495,0.9318777917605943,0.01681674097762058,0.018679736550410123
0.913,-0.0010999999999967804,0.593,0.007757557435118317,0.933000428756785,0.016880288913035203,0.018750164130897556
0.9139999999999999,0.0134,0.593,0.007830571661642699,0.903753585836081,0.017118804363934984,0.016915390833036968
0.915,-0.0003999999999980016,-0.407,0.007822357978369629,0.9025945726780277,0.01709197273861098,0.016842681228105217
0.9159999999999999,0.0086,-0.407,0.007770940013723689,0.9025945726780277,0.016924005760041674,0.016842681228105217
0.917,-0.006299999999996958,0.593,0.0077593974565589524,0.9113121309739844,0.016886299707978458,0.017389569082884297
0.9179999999999999,0.0074,-0.407,0.007764410438966912,0.9233544180562997,0.01690267560917338,0.018145030684114508
0.919,-0.001700000000000333,0.593,0.007736603150800015,0.9233544180562997,0.016811837587719952,0.018145030684114508
0.9199999999999999,-0.0032,-0.407,0.007667880589842495,0.9233544180562997,0.016587341713504303,0.018145030684114508
0.921,0.0011000000000007993,0.593,0.007748767419359511,0.9222200388520868,0.01685157458335005,0.01807386646720463
0.9219999999999999,0.0047,-0.407,0.008090591305034403,0.9318777917605942,0.01796821009537367,0.018679736550410116
0.923,-0.0014000000000007327,-0.407,0.008183788996434578,0.9447663104408878,0.018272658837013192,0.019488285698353872
0.9239999999999999,-0.0047,0.593,0.00819675388576347,0.9530982209492375,0.01831501121916318,0.02001098030037747
0.925,1.7763568394000519e-16,-0.407,0.008198336078482032,0.9541958918693503,0.018320179765453977,0.02007984165746553
0.9259999999999999,0.0008,-0.407,0.008207647248996421,0.9447663104408878,0.01835059655050206,0.019488285698353872
0.927,-0.0014000000000004885,0.593,0.008222741797119673,0.9530982209492375,0.018399905885451238,0.02001098030037747
0.9279999999999999,-0.0036,-0.407,0.0083468276088826,0.9530982209492375,0.018805256797893168,0.02001098030037747
0.929,0.004399999999998557,-0.407,0.008329774782612402,0.9519992843972405,0.01874955035901726,0.019942039545058552
0.9299999999999999,-0.0021,-0.407,0.008414461870192194,0.9519992843972405,0.01902619752548061,0.019942039545058552
0.931,-0.006399999999998312,-0.407,0.008580849494253043,0.9508990778253571,0.019569735696959613,0.01987301911623157
0.9319999999999999,0.0012,-0.407,0.008881786817483125,0.9508990778253572,0.020552807144259364,0.01987301911623158
0.933,-0.0012999999999990229,-1.407,0.008860598417588269,0.9519992843972406,0.02048359103398421,0.01994203954505856
0.9339999999999999,0.0031,0.593,0.00884391350689319,0.9530982209492375,0.020429086464298328,0.02001098030037747
0.935,0.007099999999997535,1.593,0.008848330142426277,0.9530982209492375,0.020443514280160793,0.02001098030037747
0.9359999999999999,-0.004,0.593,0.00884257609230713,0.9541958918693503,0.020424717534320992,0.02007984165746553
0.937,-0.01520000000000031,0.593,0.008771684399771202,0.9830069366453413,0.02019313576162894,0.021887275566888728
0.938,-0.0166,-1.406999999999778,0.008725897027976133,0.9830069366453413,0.020043562231248944,0.021887275566888728
0.9389999999999998,-0.0042,0.593,0.00883742373698183,0.9861964212792946,0.020407886343851565,0.02208736489810921
0.94,-0.0089,0.592999999999889,0.008844160668093196,0.9973349300149029,0.020429893865374395,0.022786128811243023
0.9409999999999998,-0.0074,-0.407000000000111,0.00886408390652587,0.985134407104099,0.020494977074830383,0.02202074043351721
0.942,0.0017,-1.406999999999778,0.008850411701224699,0.9770757200073243,0.020450314104784206,0.02151518624631607
0.9429999999999998,0.0054,0.593000000000111,0.00885222736562752,0.9760037814189492,0.020456245332633027,0.021447939182958512
0.944,0.0222,1.593,0.008730450753801798,0.9760037814189492,0.020058437879739443,0.021447939182958512
0.9449999999999998,0.0103,1.592999999999889,0.008853342479765398,0.9760037814189493,0.020459888074110425,0.02144793918295852
0.946,0.0125,0.593,0.008903532854949853,0.9770757200073243,0.02062384488825201,0.02151518624631607
0.9469999999999998,0.0223,0.593000000000111,0.00890498632241234,0.9770757200073243,0.02062859292796544,0.02151518624631607
0.948,0.017,1.592999999999778,0.00880084661145822,0.9770757200073243,0.020288399909465134,0.02151518624631607
0.9489999999999998,0.009,-0.40699999999977793,0.008792938235087866,0.9770757200073243,0.02026256562968638,0.02151518624631607
0.95,-0.0108,1.592999999999889,0.00874333189396981,0.9770757200073245,0.020100516678646537,0.021515186246316077
0.9509999999999998,0.0026,0.592999999999889,0.008665163164539816,0.9770757200073245,0.01984516302178034,0.021515186246316077
0.952,0.0005,-0.407000000000111,0.008651881882377383,0.9760037814189484,0.019801777079693533,0.021447939182958464
0.9529999999999998,-0.0016,-1.407,0.008621584317015303,0.9646189921727351,0.019702804073917883,0.02073372509265966
0.954,0.0082,-1.407,0.008525385192476366,0.9530982209492351,0.019388550555695563,0.020010980300377325
0.9549999999999998,0.0028,-1.407,0.00832059734938431,0.9530982209492351,0.018719570453337237,0.020010980300377325
0.956,0.0043,-1.407,0.008331983307080338,0.9436576710122915,0.018756764942179587,0.01941873624215927
0.9569999999999999,0.0001,-1.406999999999667,0.008177469625546522,0.953098220949236,0.018252015358769066,0.02001098030037738
0.958,-0.0035,1.592999999999889,0.008178033612787182,0.9414364755483269,0.018253857734938903,0.01927939162511254
0.9589999999999999,0.0002,0.593,0.008182582145540468,0.929628450623749,0.018268716419228604,0.018538626240936634
0.96,-0.0074,0.593,0.008176737241238017,0.9307538006867621,0.018249622880181122,0.01860922402313009
0.9609999999999999,-0.0081,0.593,0.008050909988833652,0.9210842625822004,0.017838583206526763,0.018002614606688224
0.962,-0.0055,0.593,0.008042687763014337,0.9296284506237374,0.017811723675281315,0.01853862624093591
0.9629999999999999,-0.0109,0.593,0.008045229286712474,0.9296284506237374,0.01782002606646848,0.01853862624093591
0.964,0.0004,-0.407,0.008044801668894824,0.928501736630227,0.017818629168063267,0.01846794289384016
0.9649999999999999,-0.001,0.593,0.007943961106086831,0.9273736537348923,0.017489213471259247,0.0183971736699706
0.966,0.0095,-1.407,0.007944614135367392,0.9369782880930917,0.017491346720910964,0.018999711410673668
0.9669999999999999,-0.0028,1.593,0.00790181691869079,0.9464854626850417,0.017351541125223854,0.019596135104222492
0.968,-0.0013,-0.407,0.00794521088099259,0.9464854626850417,0.017493296108840442,0.019596135104222492
0.9689999999999999,0.0002,0.593,0.007923330292626107,0.9475907937278945,0.01742181882765002,0.019665477011936126
0.97,-0.0122,-0.407,0.007924072180050406,0.9464854626850436,0.01742424235005034,0.019596135104222614
0.9709999999999999,-0.0234,-1.407,0.007917671604323138,0.9755242531616702,0.017403333600094634,0.021417856426867183
0.972,-0.0129,1.593,0.00796666479708001,0.9755242531616701,0.01756337958041496,0.021417856426867176
0.9729999999999999,0.0049,-1.407,0.007987008166938352,0.9765967180931839,0.017629835232492067,0.02148513650986856
0.974,-0.0019,0.593,0.008070921294655446,0.98572185149089,0.01790395410557456,0.022057593206918576
0.9749999999999999,-0.0041,-0.407,0.008126587408872734,0.9846593254638301,0.018085798507198693,0.02199093663177927
0.976,0.0057,-1.407,0.008128787458257434,0.9846593254638301,0.018092985404820874,0.02199093663177927
0.9769999999999999,0.0159,-0.407,0.008216356413647624,0.9857218514908899,0.01837904676401009,0.02205759320691857
0.978,-0.0008,-0.407,0.00825708998931302,0.98572185149089,0.018512111067079135,0.022057593206918576
0.9789999999999999,-0.012,0.593,0.008266990575293844,0.9947632820037564,0.0185444532946394,0.02262479888188481
0.98,-0.0178,-0.407,0.008293024457199089,1.0037232715938897,0.01862949813284264,0.02318689543684144
0.9809999999999999,-0.0232,-1.407,0.008350586996013884,1.0037232715938897,0.018817537581507653,0.02318689543684144
0.982,0.0014,0.593,0.008333484329283804,1.004765637958865,0.018761668328885334,0.023252287314461526
0.9829999999999999,0.005,0.593,0.008334359594393699,1.016730618104113,0.018764527555946705,0.024002899137400967
0.984,-0.0048,0.593,0.008340743501523135,1.0078862689183312,0.018785381854621926,0.023448057174901834
0.9849999999999999,-0.0019,0.593,0.008349390503161127,1.0157005309177642,0.018813629000319323,0.023938277582551265
0.986,0.0006,-2.407,0.008343722039901413,1.0047656379588648,0.018795111840929187,0.023252287314461512
0.9869999999999999,-0.0016,0.593,0.008351062736494452,1.00372327159389,0.018819091682134824,0.023186895436841454
0.988,0.014,1.593,0.008321817751458764,1.0026798216057797,0.018723557138739844,0.023121435579138924
0.9889999999999999,0.0042,1.593,0.008310063611500633,1.0026798216057828,0.018685159909521555,0.023121435579139118
0.99,0.006,-0.407,0.008609386550229818,1.010534344833424,0.019662957649689332,0.02361418173723128
0.9909999999999999,-0.002,0.593,0.008642791192127327,1.0094979350172915,0.01977208053715386,0.023549163538123898
0.992,0.0024,-0.407,0.008613205918552788,1.0105343448334245,0.019675434373761746,0.02361418173723131
0.9929999999999999,0.0013,-0.407,0.008806076397711275,1.0026798216057862,0.020305484043415936,0.023121435579139326
0.994,0.0151,0.593,0.009034723779500826,1.0291190799922911,0.021052406060680307,0.024780077690847575
0.9949999999999999,0.0096,0.593,0.008870428146348534,1.0172998172793963,0.02051570179238133,0.024038607314546986
0.996,0.0016,-0.407,0.008958183026150236,1.006382301589686,0.020802370510532714,0.02335370719316416
0.9969999999999999,0.0059,-0.407,0.008931280437013677,1.006382301589686,0.02071448786787902,0.02335370719316416
0.998,-0.0032,-1.407,0.008690916960316092,1.0053416114282792,0.019929292903097483,0.023288420470604997
0.9989999999999999,-0.0044,0.593,0.008526790565456776,1.0053416114282825,0.01939314148524534,0.023288420470605205
1.0,0.001,-1.407,0.008488929923870361,1.0053416114282834,0.01926946219109678,0.02328842047060526
1.001,0.0017,-0.40699999999977793,0.008423507292310693,0.9942928011332867,0.01905574619069111,0.022595283705131117
1.002,0.0009,0.593,0.008426774881984792,0.9932394439920998,0.019066420420379936,0.022529202331459424
1.003,0.003,0.5929999999997779,0.00842897330642541,0.9932394439920994,0.01907360200980002,0.022529202331459396
1.004,-0.0021,-0.407,0.008470139656786724,0.9852470531136956,0.019208080057239833,0.02202780717542432
1.005,0.0044,-0.407000000000222,0.008595861021054986,0.9761174811225157,0.0196187738262982,0.02145507202736993
1.006,-0.0011,-1.407,0.00859432493651527,0.9679837289543929,0.01961375590151764,0.020944808703224165
1.007,0.001,0.593,0.008583657076378932,0.9712225508974147,0.019578907220764923,0.02114799316431944
1.008,0.0031,0.593,0.00858464803485004,0.9712225508974196,0.019582144383134648,0.02114799316431975
1.009,-0.0024,0.5929999999997779,0.008584247179497068,0.9586897729736182,0.019580834909627757,0.02036176107954559
1.01,-0.0046,-0.407,0.00859814480337585,0.9669017107424731,0.019626234254162024,0.020876929304124173
1.011,-0.0025,-1.406999999999334,0.008608298248718105,0.9669017107424731,0.0196594024969727,0.020876929304124173
1.012,0.0029,1.593,0.008584710198299837,0.9658184803331202,0.019582347452371477,0.020808973858953566
1.013,0.0007,-0.407,0.008568799445304124,0.9647340336430732,0.01953037182233915,0.020740942111552786
1.014,0.0043,-0.407,0.008510129015441488,0.9728949548135953,0.01933871322785281,0.021252909857617422
1.015,-0.0011,-1.407,0.008511710931066455,0.9739703149405997,0.019343880868962427,0.02132037156799625
1.016,0.0025,-1.407,0.008511232082625764,0.9820544851575215,0.019342316615567155,0.02182752441487217
1.017,0.0104,0.593,0.008457998074742304,0.9728949548135954,0.01916841717161035,0.02125290985761743
1.018,-0.0045,0.593,0.00845349038200809,0.9696617189775607,0.019153691899342216,0.021050075835712004
1.019,0.002,-0.40700000000044406,0.008497069239537754,0.9696617189775607,0.019296050879888484,0.021050075835712004
1.02,0.0002,-2.407,0.008530885104049831,0.9696617189775607,0.019406517107575915,0.021050075835712004
1.021,-0.0089,0.593,0.008600956626309277,0.9707406608019782,0.01963541963140618,0.021117762240523405
1.022,-0.0074,0.593,0.008759955125220209,0.9707406608019782,0.0201548197601943,0.021117762240523405
1.023,-0.0117,-1.406999999999778,0.008729073386917545,0.9582015800272793,0.02005393843765685,0.02033113475230148
1.024,-0.0106,-0.407,0.00871639837997824,0.9582015800272793,0.020012533013821034,0.02033113475230148
1.025,-0.0019,-0.407,0.008805093719180408,0.9571085030878324,0.02030227392911306,0.020262561594287742
1.026,-0.012,0.593,0.009183495582859878,0.9582015800272793,0.021538398660321256,0.02033113475230148
1.027,0.0083,0.593,0.009403425325755482,0.9582015800272793,0.022256842781283086,0.02033113475230148
1.028,0.0054,-1.407,0.009358728167868056,0.9592934114495512,0.02211083065084029,0.0203996297739618
1.029,0.0079,-1.407,0.00957410683950603,0.9603840016026199,0.022814407794984552,0.020468046925761242
1.03,0.01,-0.407,0.009583360977084584,0.9718184047536887,0.022844638270637135,0.021185373497912472
1.031,0.0035,0.593,0.009416859311403823,0.9841840144939823,0.0223007275595903,0.021961118443264996
1.032,0.0017000000000003995,1.593,0.009128618647032554,0.9750444890717727,0.021359132266415382,0.021387758876037402
1.033,0.0035,-0.407,0.009127622956633526,0.9863089459966272,0.021355879646264685,0.022094424030859743
1.034,0.004900000000000333,-1.407,0.009119454194723998,0.9863089459966272,0.02132919476548336,0.022094424030859743
1.035,0.0064,0.593,0.009132145951565541,1.0183282867133094,0.02137065490619662,0.024103127381212838
1.036,0.005299999999995825,-0.407,0.009136859721891079,1.0183282867133097,0.02138605337178549,0.02410312738121285
1.037,-0.0135,-0.407,0.009156278373438666,1.0026798216057995,0.021449488248113213,0.023121435579140162
1.038,-0.016000000000001534,-1.407,0.009154919621054977,1.0026798216057995,0.02144504961398828,0.023121435579140162
1.039,-0.0229,-1.407,0.009134544579654505,0.9905451337965125,0.021378490500537802,0.022360177304846462
1.04,-0.011699999999997825,-0.407,0.009153274680198163,0.9782599345370658,0.021439676088459862,0.02158947683569692
1.041,-0.0019,0.593,0.009133872668952886,0.9905451337965125,0.02137629557097969,0.022360177304846462
1.042,0.018400000000000555,0.593,0.00914588319861644,1.0016352846079726,0.021415530348017162,0.023055907528901153
1.043,0.0209,-2.407,0.009151417544294273,1.0016352846079726,0.0214336093857283,0.023055907528901153
1.044,0.014100000000000466,-0.407,0.00920290456150434,1.0026798216057995,0.021601801938192614,0.023121435579140162
1.045,0.0162,0.593,0.009082322057923196,1.0026798216057995,0.02120789527669184,0.023121435579140162
1.046,0.0103999999999996,0.593,0.009139080010698157,1.0105343448334405,0.021393306385494693,0.02361418173723231
1.047,0.0086,-0.407,0.0091573994521199,1.0115696927902171,0.02145315047395436,0.023679133321587543
1.048,-0.002600000000000333,1.593,0.009140272409654236,1.0115696927902171,0.021397201593157632,0.023679133321587543
1.049,-0.0041,-0.407,0.009148422582690456,1.0146693979927277,0.021423825749697815,0.023873590424264422
1.05,0.002400000000000244,0.593,0.009158827224890965,1.0146693979927277,0.021457814576862567,0.023873590424264422
1.051,0.0035,-0.407,0.009158355067648446,1.0068471332781412,0.021456272181593097,0.023382867973775232
1.052,-0.0020000000000014433,-0.407,0.00924845702521029,1.0078862689183519,0.02175060809471326,0.023448057174903128
1.053,-0.0085,0.593,0.00926146909062961,1.0068471332781423,0.021793114586918443,0.0233828679737753
1.054,-0.01679999999999678,-0.407,0.00927861738679362,1.0068471332781437,0.021849132897135786,0.023382867973775385
1.055,-0.0023,0.593,0.009276267096865017,1.0068471332781435,0.0218414552089817,0.02338286797377537
1.056,-0.0004999999999996004,1.593,0.009287236867061484,1.0068471332781426,0.021877290138819703,0.023382867973775315
1.057,0.0013,-1.407,0.00931610315115963,1.0068471332781426,0.021971587580499385,0.023382867973775315
1.058,-0.003400000000000333,-0.407,0.009578959236087274,1.0058069240697591,0.022830259110729622,0.02331761142335361
1.059,-0.0049,-1.407,0.009638147154018686,1.0136372161376,0.02302360818261927,0.023808837462330746
1.06,-0.008499999999999223,0.593,0.009680044321542005,1.0126039821447688,0.023160473589252197,0.02374401849552368
1.061,-0.005,-0.407,0.009677048484179355,1.0126039821447688,0.023150687092381807,0.02374401849552368
1.062,-0.0017000000000005771,-0.407,0.009682071112031109,1.0047656379588965,0.023167094502331738,0.023252287314463507
1.063,-0.0043,-1.407,0.009713151512056824,0.9937104235838552,0.023268624792785523,0.022558748795025865
1.064,-0.0016999999999995337,0.593,0.009721162392377735,0.9937104235838552,0.02329479392204704,0.022558748795025865
1.065,0.0004,-1.407,0.009719400301982883,0.9937104235838552,0.023289037704319882,0.022558748795025865
1.066,-0.00029999999999984455,-0.407,0.009718921047799716,0.9937104235838552,0.023287472125486347,0.022558748795025865
1.067,0.0004,-1.407,0.009740930416215706,0.9846593254638623,0.023359370092247745,0.02199093663178129
1.0679999999999998,-0.0087,-0.407,0.00971904403607865,0.9958150272549072,0.023287873891090143,0.0226907791351448
1.069,-0.0076,0.593,0.009721064040598372,1.006847133278153,0.023294472636454927,0.02338286797377597
1.0699999999999998,-0.0164,0.593,0.009721972901999346,1.007886268918361,0.023297441612463818,0.0234480571749037
1.071,-0.0287,-1.407,0.009788457353391247,0.9808748518161757,0.02351462625792834,0.021753521222054557
