time_sec,bts_raw,diy_raw,bts_rms,diy_rms,bts_norm_rms,diy_norm_rms
0.0,-0.0041000000000008556,-1.434,0.006438661018039945,0.6766089087810172,0.018816843274302473,0.0
0.0009999999999998899,-0.0118,-0.434,0.006343565849806406,0.6793609737140519,0.018139114105642413,0.000414691644748553
0.0019999999999998908,0.0005,-0.434,0.006439178448571658,0.6804744618873424,0.018820530925006622,0.0005824762912687635
0.0029999999999998916,-0.001,2.566,0.006545243936839152,0.6945085294417407,0.01957644393848925,0.002697183138039352
0.0039999999999998925,0.0005,-0.434,0.00697217365211748,0.6955977703691212,0.022619108738253586,0.002861314117029288
0.004999999999999893,-0.006,0.566,0.0071477758943828806,0.6966853083119064,0.02387059989049699,0.003025188483802593
0.005999999999999894,-0.0024,1.566,0.006990564610791658,0.6977711512328519,0.02275017837475186,0.003188807438217641
0.006999999999999895,0.0009,0.566,0.006833261752862363,0.6988553070328529,0.021629104222272755,0.0033521721708114787
0.007999999999999896,-0.0039,-0.434,0.0065518330239081645,0.6999377835516144,0.019623403385372436,0.003515283862900767
0.008999999999999897,0.0005,-0.434,0.006512270661031813,0.7025984756651642,0.019341448289225283,0.003916207102571855
0.009999999999999898,0.0027,-0.434,0.00650820265173243,0.7052491298618371,0.019312456189923225,0.0043156177906277645
0.010999999999999899,0.0063,-0.434,0.006493055376534508,0.7234124748879068,0.019204503804770054,0.0070525399222907586
0.0119999999999999,-0.0016,0.566,0.006412197944532925,0.7244582593211357,0.018628244871867792,0.007210122710931543
0.0129999999999999,-0.0008,0.566,0.006428123656372823,0.7255025362972713,0.018741745059585715,0.007367478350185737
0.013999999999999901,-0.0001,0.566,0.006394032365134772,0.7265453123164011,0.018498781480063245,0.007524607819511307
0.014999999999999902,-0.0023,0.566,0.0064115410382115864,0.7291089136835475,0.01862356319788458,0.007910901055059821
0.015999999999999903,-0.0015,0.566,0.006390797444605223,0.7301465391878306,0.018475726680940444,0.008067254425156259
0.016999999999999904,-0.0066,-1.434,0.006375532847735139,0.7311826921933599,0.018366938161619606,0.00822338591352208
0.017999999999999905,0.0025,0.5659999999999965,0.00628274036635814,0.7337300910600542,0.017705619900873763,0.008607237694481037
0.018999999999999906,-0.004,-0.434,0.006331117120032666,0.7362686762934175,0.01805039385373949,0.008989761403540837
0.019999999999999907,-0.0051,0.566,0.006361440867475398,0.7536848395340252,0.018266506707071323,0.011614095332861616
0.020999999999999908,-0.0061,-0.434,0.006419161072180236,0.7663794370479224,0.018677870050510907,0.013526965723115795
0.02199999999999991,-0.0053,0.566,0.006634040082695044,0.7831262447284335,0.020209280908327076,0.01605043860268221
0.02299999999999991,0.0031,0.566,0.006625447381555987,0.7855052083508572,0.020148042000949405,0.016408909918361532
0.02399999999999991,-0.0023,0.566,0.006619792352197385,0.7976935730797791,0.020107739444918997,0.018245499221019566
0.02499999999999991,0.0024,-0.434,0.006617660555673901,0.8000292205267572,0.020092546447078505,0.018597443490107748
0.025999999999999912,0.0126,-0.43399999999999306,0.00660802433403876,0.8349405975244043,0.020023870523799524,0.02385802298218637
0.026999999999999913,0.0036,1.566,0.00661788574047886,0.8358468532390206,0.020094151305805764,0.023994581051127936
0.027999999999999914,-0.005,0.566,0.006617885740478861,0.8380761774644586,0.02009415130580577,0.024330504131512977
0.028999999999999915,0.0026,-0.434,0.006607813453529156,0.8389790461677825,0.020022367609665026,0.024466551832669693
0.029999999999999916,0.0073,-0.434,0.006669240934427242,0.8398809442913714,0.020460152161028373,0.02460245328316864
0.030999999999999917,0.0099,-0.434,0.006705355790494105,0.8407818749586181,0.020717537387145886,0.024738208953654577
0.03199999999999992,0.0044,0.566,0.006690714902249803,0.841681841276199,0.02061319394675271,0.024873819312253347
0.03299999999999992,-0.0006,-1.434,0.0067005747332610985,0.8425808463341997,0.020683463500911374,0.02500928482459083
0.03399999999999992,0.0001,0.566,0.0067005747332611,0.8434788932062377,0.020683463500911384,0.025144605953811447
0.03499999999999992,0.003,-0.434,0.006731707140106753,0.8443759849495859,0.020905339549945494,0.025279783160596748
0.03599999999999992,-0.0021,-0.434,0.00674398052500924,0.8452721246052936,0.02099281014494123,0.02541481690318364
0.03699999999999992,-0.0028,-0.434,0.00672759602582608,0.8461673151983067,0.020876040247830952,0.02554970763738252
0.03799999999999992,0.0001,-1.434,0.006658902778921195,0.8574938655736094,0.020386473659094555,0.027256435464942247
0.038999999999999924,-0.0013,-1.434,0.006622139354501855,0.8583763103508477,0.020124466182462015,0.027389405610987894
0.039999999999999925,0.0066,1.566,0.006643118644981592,0.869543842688795,0.020273982476086864,0.029072171993937777
0.040999999999999925,0.0056,0.566,0.0066570463813213545,0.8704140710220392,0.020373243388562272,0.02920330131958994
0.041999999999999926,0.0081,0.566,0.0066561886216494,0.8712834301812028,0.02036713026252041,0.029334299674775275
0.04299999999999993,0.0092,1.5659999999999863,0.006631650004336203,0.8721519227654586,0.020192247174129433,0.02946516745114704
0.04399999999999993,0.0117,-0.434,0.006583278086659811,0.8742886786109908,0.0198475076867056,0.029787141974848677
0.04499999999999993,0.0027,0.566,0.006596159724547775,0.8852554985617505,0.019939313210571432,0.03143966424946916
0.04599999999999993,-0.0035,-1.434,0.006593549653787492,0.8861102969771745,0.019920711623136765,0.031568468536230576
0.04699999999999993,-0.0003,0.566,0.006620839725641607,0.8882134741000286,0.020115203920210586,0.03188538328987782
0.04799999999999993,0.0004,2.566,0.006620250404122628,0.9027028576588257,0.020111003913096136,0.034068698889471796
0.04899999999999993,0.0011,0.566,0.006507094236392183,0.9047674653684648,0.01930455667808651,0.034379801856772294
0.04999999999999993,-0.0043,0.566,0.006472127990717053,0.9153691990534405,0.0190553574279798,0.035977311539859884
0.050999999999999934,-0.0127,-0.43400000000000694,0.0064871082295374395,0.9056038466484336,0.019162119369628996,0.03450583097929185
0.051999999999999935,-0.0117,-1.433999999999993,0.0064136245150838555,0.9056038466484336,0.01863841182873297,0.03450583097929185
0.052999999999999936,-0.0247,-0.434,0.006417405349367072,0.9056038466484336,0.018665357274260896,0.03450583097929185
0.05399999999999994,-0.0157,-0.434,0.006443146356352218,0.8680239959807176,0.018848809615621423,0.028843155692914922
0.05499999999999994,-0.0078,-0.434,0.006506214362538516,0.8680239959807173,0.019298285947549423,0.028843155692914887
0.05599999999999994,-0.0002,-0.434,0.006550977387796546,0.9043786654801942,0.019617305393630324,0.034321216006122625
0.05699999999999994,-0.0067,-0.434,0.006550271591681045,0.8907668929626495,0.019612275289330735,0.03227014218679259
0.05799999999999994,-0.0031,0.566,0.006574028146209543,0.8994612524288791,0.01978158473217525,0.033580241444919515
0.05899999999999994,-0.0021,0.5660000000000068,0.006599904925630603,0.900693122605935,0.019966004703561867,0.03376586434345945
0.05999999999999994,0.0004,1.566,0.006602938525908992,0.900693122605935,0.01998762472309504,0.03376586434345945
0.06099999999999994,-0.0039,-0.434,0.0066862593760248215,0.9019233102644216,0.020581440071761038,0.033951233713681625
0.061999999999999944,0.0051,-0.434,0.0067007992116130104,0.9117280850723147,0.02068506332485248,0.03542865459233467
0.06299999999999994,0.0039,-0.434,0.006699761289486454,0.9105111446989145,0.020677666207700982,0.03524528137357497
0.06399999999999995,0.005,0.566,0.006702066293155331,0.9105111446989145,0.020694093627193315,0.03524528137357497
0.06499999999999995,0.0057,-0.434,0.00670206629315533,0.9190187330209993,0.020694093627193308,0.0365272372430677
0.06599999999999995,-0.0005,-0.434,0.006731893433390677,0.9190187330209993,0.020906667234566967,0.0365272372430677
0.06699999999999995,0.0016,0.566,0.006749775689754127,0.9178114594810965,0.02103411142509833,0.03634532065966368
0.06799999999999995,-0.0082,0.566,0.006726854364592688,0.908072371368892,0.020870754538152205,0.03487779770294779
0.06899999999999995,-0.0072,1.566,0.006725817401061803,0.9080723713688921,0.02086336425276997,0.034877797702947806
0.06999999999999995,-0.0134,-1.434,0.0068072009695145826,0.9214285347333926,0.021443372882174114,0.03689035535980788
0.07099999999999995,-0.0167,1.5659999999999863,0.006829546603911935,0.9202244226992808,0.021602626906375502,0.03670891516415933
0.07199999999999995,-0.0018,0.5659999999999722,0.006804898268767756,0.9202244226992808,0.021426961875265885,0.03670891516415933
0.07299999999999995,0.0003,-1.434,0.00678941272801483,0.9202244226992807,0.021316598721641107,0.03670891516415931
0.07399999999999995,0.0021,0.566,0.006785349086371553,0.9190187330209989,0.02128763774997673,0.03652723724306763
0.07499999999999996,0.0039,-2.434,0.006786070711776218,0.9178114594810961,0.021292780667273924,0.03634532065966361
0.07599999999999996,0.0086,-0.434,0.006782972548451704,0.9190187330209989,0.021270700516480782,0.03652723724306763
0.07699999999999996,0.01,0.566,0.006665982464117771,0.9202244226992808,0.020436929526114703,0.03670891516415933
0.07799999999999996,0.0165,-0.434,0.006657189763050155,0.9166025958211756,0.02037426524889089,0.03616316447090814
0.07899999999999996,0.0103,-0.434,0.006646460031488793,0.9166025958211756,0.020297796042451622,0.03616316447090814
0.07999999999999996,0.007,-0.434,0.006651049807636334,0.9522672881771297,0.020330506696742377,0.04153725639548819
0.08099999999999996,0.0005,-0.434,0.006617546383089549,0.9534309333249719,0.02009173275599289,0.04171259888631025
0.08199999999999996,0.0066,-0.434,0.006596883449184139,0.9534309333249719,0.01994447108878179,0.04171259888631025
0.08299999999999996,0.0044,-0.434,0.006626837767789997,0.9522672881771297,0.02015795107755126,0.04153725639548819
0.08399999999999996,0.0066,-0.434,0.006649735399261537,0.9428841628858378,0.020321139103081438,0.040123371274821046
0.08499999999999996,0.0044,-0.434,0.006651543412653484,0.9545931599952041,0.020334024546535732,0.04188772763551377
0.08599999999999997,-0.0036,-0.4340000000000139,0.006654458498840119,0.9557539733625655,0.020354799933703552,0.04206264342284819
0.08699999999999997,-0.0026,-1.4339999999999862,0.006652356273349355,0.9569133785704085,0.020339817684230137,0.04223734702333347
0.08799999999999997,-0.0033,-0.434,0.006680427895950487,0.9855192038258965,0.020539879977633745,0.04654778191976127
0.08899999999999997,-0.0059,-1.434,0.006695891795943199,0.976455660846068,0.020650088900768148,0.04518205268116744
0.08999999999999997,0.005,-0.434,0.0068092881533488485,0.9673071973716694,0.021458247931991196,0.04380352729843345
0.09099999999999997,0.0007,-0.434,0.006782128834080316,0.9545931599952041,0.021264687489214215,0.04188772763551377
0.09199999999999997,0.0072,-0.434,0.006759415564722495,0.9545931599952039,0.021102813385141708,0.04188772763551374
0.09299999999999997,0.001,0.566,0.00671473800494651,0.9534309333249714,0.020784403038883344,0.04171259888631018
0.09399999999999997,0.0043,-1.434,0.006663807994605656,0.9534309333249698,0.020421432404209384,0.04171259888630993
0.09499999999999997,0.0018,-0.434,0.006561995999546818,0.9821381937606924,0.019695833406357117,0.046038318422726404
0.09599999999999997,0.0061,0.566,0.006556728888525477,0.9810086009586324,0.01965829548681774,0.04586810706929519
0.09699999999999998,0.0039,1.566,0.0065871576364333806,0.9730431584119061,0.01987515666290131,0.04466784379381732
0.09799999999999998,-0.0012,0.566,0.006615728046470099,0.9843934907448952,0.020078773740426322,0.04637815517750246
0.09899999999999998,-0.0004,-1.434,0.006659699455455978,0.9592498729038805,0.020392151454671756,0.042589418904509894
0.09999999999999998,0.0061,-0.434,0.0066845023705568146,0.9580932951322687,0.020568918154220083,0.04241514135290415
0.10099999999999998,0.0068,-0.434,0.006709610824845499,0.9661819958993254,0.02074786238627211,0.043633977647319196
0.10199999999999998,-0.0022,-0.434,0.006593981865079753,0.9661819958993254,0.019923791928952835,0.043633977647319196
0.10299999999999998,-0.0058,-0.434,0.006491110807286035,0.9661819958993255,0.019190645147967086,0.04363397764731921
0.10399999999999998,-0.009,-0.43399999999995836,0.006053219563418417,0.9673289025397238,0.016069859158703206,0.04380679791597303
0.10499999999999998,-0.0097,2.566,0.005880271308216687,0.9684744509678139,0.014837282578879278,0.043979413524013924
0.10599999999999998,0.002299999999999123,-0.434,0.005872564194142553,0.9684744509678139,0.014782355119248487,0.043979413524013924
0.10699999999999998,-0.005600000000000155,-1.434,0.005875419820298384,1.0022950821207872,0.014802706743590138,0.04907563527042277
0.10799999999999998,-0.00699999999999899,0.566,0.005846132814313366,1.0022950821207872,0.014593982592957975,0.04907563527042277
0.10899999999999999,0.002100000000000977,-0.434,0.005840899587800589,1.0022950821207872,0.014556686163288653,0.04907563527042277
0.10999999999999999,0.010899999999999644,0.566,0.0058805961529546655,1.0022950821207872,0.014839597699177223,0.04907563527042277
0.11099999999999999,0.007699999999999279,-1.434,0.005890612205360089,0.9911497743302035,0.014910980620056153,0.04739621776706847
0.11199999999999999,0.0012000000000000888,-0.434,0.005894963036230875,0.9922678225376027,0.014941988346776784,0.047564689536927225
0.11299999999999999,0.0019999999999997667,0.566,0.00591545893278712,0.9922678225376028,0.015088059563559256,0.04756468953692724
0.11399999999999999,-9.999999999923395e-05,-1.434,0.005979685624540337,0.9922678225376028,0.015545793675778236,0.04756468953692724
0.11499999999999999,0.006799999999998679,0.566,0.006046686110075937,0.9922678225376028,0.016023296205142788,0.04756468953692724
0.11599999999999999,-0.005099999999999834,-0.434,0.006023378812419524,0.9922678225376029,0.015857188549435186,0.04756468953692726
0.11699999999999999,-0.0035999999999998334,-0.434,0.00606782908513471,0.9933846123894904,0.016173979054500524,0.047732971692976175
0.118,-0.0021000000000010103,0.5660000000000138,0.006101123894317607,0.9933846123894904,0.01641126622447328,0.047732971692976175
0.119,-0.011199999999999589,1.5659999999999723,0.006056109535322759,0.9933846123894904,0.016090455560103644,0.047732971692976175
0.12,-0.007499999999999389,-0.434,0.0060976198785043685,0.9810086009586324,0.016386293623149882,0.04586810706929519
0.121,-0.0020000000000000777,-0.434,0.0061065665594783386,0.9810086009586324,0.01645005529234284,0.04586810706929519
0.122,-0.0026999999999999112,0.566,0.006009183431986742,0.9696186459975444,0.01575602017717997,0.04415182519682603
0.123,-0.0019000000000000666,-0.434,0.006038753357104944,0.9696186459975445,0.01596676065053907,0.044151825196826054
0.124,-0.0024999999999995894,-0.434,0.006038719158112398,0.9615588550075944,0.01596651691938829,0.04293734513793209
0.125,0.0011999999999999223,0.566,0.006039800134047151,0.9604050578557015,0.01597422087464922,0.04276348658071518
0.126,0.0004999999999998445,0.566,0.006073353056829229,0.9322180778234886,0.01621334758198484,0.038516164880655
0.127,-0.0009000000000002665,-1.434,0.006016012153903974,0.9322180778234888,0.0158046874661069,0.03851616488065501
0.1279999999999999,-0.0033,0.566,0.005940974443717068,0.9322180778234888,0.015269904827958203,0.03851616488065501
0.1289999999999999,0.0036,2.566,0.005711979055933279,0.9334067179475528,0.013637888641725101,0.038695273709863746
0.1299999999999999,0.0029,0.566,0.005625482825941483,0.9334067179475529,0.013021442831349069,0.03869527370986376
0.1309999999999999,0.0084,-0.434,0.005625482825941483,0.9345938463302254,0.013021442831349069,0.038874154744111475
0.1319999999999999,0.0077,-0.434,0.0058104661252818815,0.9357794687248846,0.014339791386872703,0.039052808850339196
0.1329999999999999,0.0056,-0.434,0.005784947888438794,0.9369635908485076,0.014157926695294858,0.03923123689000281
0.1339999999999999,0.0016,1.566,0.005769042888139923,0.9464054174015633,0.014044574115659899,0.040653967340770064
0.1349999999999999,-0.0035,0.566,0.005734699823003369,0.9475762610870586,0.013799816180881608,0.04083039453471208
0.1359999999999999,-0.0013,0.566,0.005816467412247313,0.9475762610870587,0.01438256166954347,0.0408303945347121
0.1369999999999999,-0.0067,-2.434,0.005813012361402971,0.9475762610870587,0.014357938034295635,0.0408303945347121
0.1379999999999999,-0.0045,-0.434,0.0059721473866176465,0.9393273569704731,0.015492069771447363,0.03958741818832628
0.1389999999999999,-0.0124,-0.434,0.005969099029813455,0.9405070122236393,0.01547034458434206,0.0397651731429059
0.1399999999999999,0.0025,-0.434,0.005951841032321895,0.9310053686905029,0.015347349394260816,0.03833342924134546
0.1409999999999999,0.0003,0.5659999999999722,0.005934417738378944,0.9310053686905029,0.015223176160871323,0.03833342924134546
0.1419999999999999,0.0022,-0.4339999999999445,0.005934062212135788,0.932195555138106,0.015220642378033698,0.03851277107648513
0.1429999999999999,0.004,1.565999999999889,0.005892852604130073,0.9333842239442147,0.01492694761001004,0.038691884227613785
0.1439999999999999,0.0011,-2.4339999999999447,0.005921070133182089,0.932195555138106,0.015128049757062336,0.03851277107648513
0.1449999999999999,-0.0003,-0.434,0.005980939809776031,0.9226083185772519,0.01555473206805328,0.03706812969092378
0.1459999999999999,0.0073,0.566,0.005978846746211383,0.922608318577252,0.015539815114269277,0.0370681296909238
0.1469999999999999,0.0062,1.566,0.005948243422759537,0.922608318577252,0.015321709764160234,0.0370681296909238
0.1479999999999999,-0.0076,-1.434,0.006010488027032477,0.9092694850980866,0.01576531783269926,0.03505818336730905
0.1489999999999999,-0.0058,-0.434,0.006011743848796676,0.921405748310288,0.015774267888270386,0.03688692181463176
0.1499999999999999,-0.0072,-1.434,0.006011629306517626,0.9129204050719024,0.015773451562425454,0.03560831791922805
0.1509999999999999,-0.0029,-0.434,0.005981693909250171,0.9141341381248972,0.0155601064232302,0.03579120784671136
0.1519999999999999,-0.0018,-1.434,0.005985115891435905,0.9141341381248972,0.015584494383049687,0.03579120784671136
0.1529999999999999,-0.0079,0.566,0.005981145667484304,0.9274030059595199,0.015556199185427187,0.03779061148004906
0.15399999999999991,0.0065,0.566,0.00595250277433868,0.9285978095771364,0.01535206553152871,0.03797064904798339
0.15499999999999992,-0.0072,-0.434,0.005883587525985332,0.9297910778449952,0.014860916771374947,0.03815045526355801
0.15599999999999992,-0.0018,2.566,0.0058819923911432835,0.8932294100476377,0.014849548481792166,0.03264120365701345
0.15699999999999992,-0.0033,-0.434,0.005975208074540886,0.8944698628029641,0.015513882840610359,0.03282811981119444
0.15799999999999992,-0.0019,0.566,0.005948706885840205,0.8981809421986523,0.015325012796840023,0.03338731941434239
0.15899999999999992,0.0072,0.566,0.0059069728906284485,0.8969456217854883,0.015027580798925425,0.033201176621061146
0.15999999999999992,0.0035,0.566,0.0059037685506586,0.8981809421986522,0.015004743942918855,0.03338731941434237
0.16099999999999992,0.0046,0.566,0.005815948327261557,0.8969456217854883,0.014378862227790588,0.033201176621061146
0.16199999999999992,0.0071,-0.434,0.005774002794830528,0.8969456217854884,0.014079922635469023,0.03320117662106117
0.16299999999999992,0.0096,-0.434,0.0057856889198357585,0.8981809421986523,0.014163207916222742,0.03338731941434239
0.16399999999999992,0.0103,0.566,0.005790978793717677,0.8981809421986522,0.014200908063295459,0.03338731941434237
0.16499999999999992,0.002,-0.434,0.005791741641520043,0.8882266385430921,0.014206344766510937,0.03188736695838821
0.16599999999999993,0.0074,0.566,0.005778950626393811,0.9006464999689185,0.014115185097635537,0.033758839066622845
0.16699999999999993,0.0066,0.566,0.0057580541573373665,0.9141111698714046,0.013966259060018416,0.0357877469026386
0.16799999999999993,-0.0036,0.566,0.005747110486198938,0.915323323953001,0.013888265137924268,0.03597039890468696
0.16900000000000004,-0.010100000000000822,-0.434,0.005745180458146334,0.9141111698714045,0.013874510114068912,0.035787746902638584
0.16999999999999993,-0.0138,-1.434,0.0056353726080428474,0.9018767512221203,0.013091925842487199,0.03394421801953935
0.17100000000000004,-0.012699999999998556,0.566,0.0055870221704428045,0.9116820267539906,0.012747339440383648,0.035421714349191814
0.17199999999999993,-0.0062,0.566,0.005631415806666075,0.9128974062812132,0.013063726305565963,0.03560485237369398
0.17300000000000004,-0.0001000000000004885,0.5659999999999722,0.005625510162060802,0.9116820267539907,0.013021637651819597,0.03542171434919183
0.17399999999999993,-0.0023,-0.43399999999997224,0.005639705940893204,0.9249860706430496,0.013122808863409849,0.03742641844462794
0.17500000000000004,-0.0073999999999979135,0.5659999999999722,0.005657419761401369,0.9249860706430496,0.013249052636566755,0.03742641844462794
0.17599999999999993,0.002,-0.434,0.0056975945924168875,0.9249860706430496,0.013535372702359567,0.03742641844462794
0.17700000000000005,0.0030999999999997557,0.566,0.005698572802901449,0.9249860706430496,0.013542344263489239,0.03742641844462794
0.17799999999999994,0.002,0.566,0.005707054308712118,0.9153233239530014,0.013602790698243246,0.03597039890468703
0.17900000000000005,0.002700000000000955,-0.434,0.005713818325112864,0.9153233239530014,0.013650996840545061,0.03597039890468703
0.17999999999999994,0.007,0.566,0.005759328652114016,0.8794212155701989,0.013975342195381496,0.030560532227308944
0.18100000000000005,0.01459999999999758,0.566,0.0057941177202689605,0.8794212155701989,0.01422327872756372,0.030560532227308944
0.18199999999999994,0.0037,0.566,0.00573803113760276,0.8794212155701989,0.0138235579662523,0.030560532227308944
0.18300000000000005,-0.0007000000000002443,-1.434,0.0056868395306704875,0.889474068147163,0.013458722971446062,0.032075334410758514
0.18399999999999994,-0.0018,0.566,0.005663040394616998,0.8907197507605669,0.013289110056384513,0.03226303861990939
0.18500000000000005,-0.010599999999998312,-0.434,0.005715060816154067,0.8768959809564426,0.01365985189002932,0.03018002024055148
0.18599999999999994,-0.003,-0.434,0.005719099629858778,0.875630632703573,0.013688635916655619,0.0299893527378107
0.18700000000000006,-0.01389999999999629,0.566,0.00577112542911886,0.8844737938183659,0.01405941607653523,0.03132187399610314
0.18799999999999994,0.0028,0.566,0.00574955306300248,0.8537836736653847,0.01390567302075579,0.026697369591791538
0.18900000000000006,-0.003799999999998712,-0.434,0.0057444393320600145,0.8537836736653844,0.013869228218304027,0.026697369591791503
0.18999999999999995,0.002,-0.434,0.005626378704717651,0.8550813516305111,0.013027827626596515,0.026892908658930792
0.19100000000000006,0.00010000000000033307,0.566,0.005708391469558838,0.8550813516305111,0.013612320445399137,0.026892908658930792
0.19199999999999995,0.0016,0.566,0.005721315452434414,0.8537836736653845,0.013704427755715159,0.02669736959179152
0.19299999999999984,0.0059,-0.434,0.005719364467349845,0.8550813516305116,0.013690523374199307,0.026892908658930858
0.19399999999999995,0.0095,-0.434,0.005714954688792123,0.8419896444835672,0.013659095536051312,0.024920200273977827
0.19499999999999984,0.0008,-0.434,0.005714948700437855,0.8096908242555756,0.013659052857938064,0.02005329080428954
0.19599999999999995,-0.0003,0.566,0.00573456230896404,0.8110590529501386,0.013798836138706123,0.020259460724530057
0.19699999999999984,-0.0094,-0.434,0.005798735659548225,0.8110590529501386,0.014256190096319834,0.020259460724530057
0.19799999999999995,0.0018,1.566,0.005788981141430233,0.7972447747609722,0.014186671091541897,0.01817787257792973
0.19899999999999984,0.0003,0.566,0.00575251979566921,0.7860132234080899,0.013926816484732023,0.01648545956554174
0.19999999999999996,-0.0008,0.566,0.005724816607658956,0.7860132234080899,0.013729379970046925,0.01648545956554174
0.20099999999999985,-0.007,-0.434,0.0056858832737443285,0.7746188377912574,0.013451907870073092,0.014768510064959614
0.20199999999999996,0.0006,1.566,0.005802583498866155,0.7860132234080901,0.01428361307679844,0.016485459565541774
0.20299999999999985,-0.0001,0.566,0.0058000012390939494,0.7760489033236119,0.014265209694153558,0.014983997795860043
0.20399999999999996,0.0006,0.5659999999999722,0.005804188538930051,0.7760489033236119,0.01429505195942914,0.014983997795860043
0.20499999999999985,0.0097,-0.43399999999997224,0.005770869720319483,0.7760489033236118,0.014057593677824134,0.014983997795860028
0.20599999999999996,0.0108,0.5660000000000277,0.0057787124667015135,0.7760489033236118,0.014113487768809403,0.014983997795860028
0.20699999999999985,0.0006,1.5659999999999445,0.005793637007132218,0.7760489033236118,0.014219852756291151,0.014983997795860028
0.20799999999999996,-0.0004,-0.43399999999997224,0.005783973015808125,0.7760489033236119,0.01415097892255513,0.014983997795860043
0.20899999999999985,0.0007,0.566,0.005785458565248222,0.7760489033236119,0.014161566213221333,0.014983997795860043
0.20999999999999996,0.0039,-0.434,0.005741140097440783,0.7760489033236118,0.013845715062196928,0.014983997795860028
0.21099999999999985,0.0032,-1.434,0.005788440446942898,0.7746188377912573,0.014182817642074299,0.014768510064959597
0.21199999999999997,0.0039,0.566,0.00588111081713968,0.7746188377912573,0.014843265634538484,0.014768510064959597
0.21299999999999986,0.0032,0.566,0.005961763783552974,0.7760489033236118,0.01541806737149962,0.014983997795860028
0.21399999999999997,0.001,-0.434,0.005896697242413953,0.7760489033236119,0.014954347777193441,0.014983997795860043
0.21499999999999986,-0.0055,1.566,0.0058271315725572275,0.7902337988459383,0.014458563559392871,0.017121431976329555
0.21599999999999997,-0.0015,1.566,0.005826486228252192,0.8055461314014782,0.014453964286186087,0.019428752670755053
0.21699999999999986,-0.0008,0.566,0.005841384906068242,0.804168522964674,0.014560144954646637,0.019221169375164757
0.21799999999999997,-0.0015,-0.434,0.005840235774828353,0.8041685229646739,0.014551955266628227,0.01922116937516474
0.21899999999999986,-0.0012,0.566,0.005888310514589292,0.8041685229646739,0.014894576811097385,0.01922116937516474
0.21999999999999997,-0.0016,-1.434,0.005888310514589278,0.8192204381633738,0.014894576811097286,0.021489249388626355
0.22099999999999986,-0.0073,0.566,0.005749023786823777,0.8192204381633738,0.013901900947881348,0.021489249388626355
0.22199999999999998,0.001,-0.434,0.005755750578631911,0.8192204381633736,0.013949841796029174,0.021489249388626338
0.22299999999999986,-0.0044,1.566,0.005799220673873465,0.8178658629725828,0.014259646721525287,0.02128513683042982
0.22399999999999998,-0.0051,-0.434,0.0058943550497128905,0.8313375525648955,0.014937655316981012,0.023315102420092625
0.22499999999999987,0.0069,0.566,0.005902916803666477,0.8313375525648956,0.014998673668354934,0.023315102420092642
0.22599999999999998,-0.0011,0.566,0.005859687678403081,0.8300027528965724,0.01469058610017573,0.02311396971307603
0.22699999999999987,0.0033,-0.434,0.00586975339136079,0.8300027528965724,0.01476232294444994,0.02311396971307603
0.22799999999999998,0.0044,0.566,0.00586694003031416,0.8286658031602283,0.01474227253727688,0.02291251302560633
0.22899999999999987,0.0081,0.566,0.005866929197180211,0.8286658031602283,0.01474219533113695,0.02291251302560633
0.22999999999999998,0.007,0.566,0.0059044055480117095,0.8300027528965723,0.01500928372863648,0.023113969713076013
0.23099999999999987,0.0023,-0.434,0.005961101301825059,0.843280573892575,0.015413345962420139,0.02511472244293168
0.23199999999999998,-0.0002,-1.434,0.005788812823505881,0.8419647081771826,0.01418547151464371,0.0249164427761861
0.23299999999999987,0.002,0.566,0.005803896607728346,0.8419647081771823,0.01429297140902566,0.02491644277618605
0.23399999999999999,-0.0078,-0.434,0.005859001848082663,0.8313375525648954,0.014685698289138295,0.023315102420092607
0.23499999999999988,-0.0041,-0.43400000000002775,0.005862085748818583,0.830002752896572,0.014707676792576582,0.02311396971307596
0.236,-0.0078,-1.4339999999999444,0.005793151908465777,0.8300027528965717,0.014216395529998456,0.023113969713075912
0.23699999999999988,-0.0045,0.5659999999999722,0.0057880885223551195,0.8313375525648952,0.0141803095277007,0.023315102420092573
0.238,-0.0038,-0.43399999999997224,0.005689914625956922,0.831337552564895,0.013480638719751036,0.023315102420092555
0.23899999999999988,0.0046,0.5659999999999722,0.005685102598727398,0.8313375525648946,0.01344634411494183,0.02331510242009249
0.24,-0.0099,-0.434,0.0058386698505091105,0.8313375525648946,0.014540795156111794,0.02331510242009249
0.24099999999999988,0.0039,-0.434,0.005864640772808674,0.8326702125051018,0.014725886069839314,0.02351591270471234
0.242,-0.0015,0.566,0.005881484908033348,0.8459061645844612,0.01484593172488859,0.025510356466455296
0.24299999999999988,0.0033,0.566,0.005883373545807952,0.8459061645844612,0.014859391766367653,0.025510356466455296
0.244,-0.001,0.566,0.005912069223534849,0.8459061645844612,0.015063901608152951,0.025510356466455296
0.24499999999999988,0.0048,0.566,0.005910478766100026,0.8563525458555555,0.015052566653758159,0.027084457055064466
0.246,0.0113,0.566,0.005921875764810794,0.8563525458555556,0.01513379137426656,0.02708445705506448
0.2469999999999999,0.0052,0.566,0.005945906016470224,0.8550567971220329,0.015305051415994884,0.02688920869190435
0.248,0.0041,-0.434,0.005882978144613335,0.8563525458555556,0.014856573800661375,0.02708445705506448
0.2489999999999999,0.0016,-0.434,0.005885070212502731,0.8806572768574582,0.014871483658415438,0.030746786658325708
0.25,-0.0028,-0.434,0.005895129829378409,0.8793973406789968,0.014943177056816592,0.030556934667606787
0.2509999999999999,-0.0119,-1.434,0.005900923129274998,0.8793973406789967,0.01498446504647629,0.03055693466760677
0.252,-0.0006,0.566,0.00586128539853363,0.8793973406789968,0.014701972814726454,0.030556934667606787
0.2529999999999999,-0.0082,0.566,0.005880255386944066,0.8653927257701481,0.014837169110329219,0.028446665857845634
0.254,-0.0017,0.566,0.005947933808731334,0.8641105330495541,0.015319503190873314,0.02825346016643724
0.2549999999999999,-0.0078,-0.434,0.005956005036697706,0.8641105330495542,0.01537702563624384,0.028253460166437257
0.256,-0.0045,2.566,0.005898925060805002,0.8641105330495544,0.014970225108651368,0.02825346016643729
0.2569999999999999,0.0002,-0.434,0.005810959540920121,0.8641105330495541,0.014343307886990637,0.02825346016643724
0.258,-0.0023,0.566,0.0058111838126931456,0.8511577156076797,0.01434490623867463,0.02630168021218465
0.2589999999999999,-0.0002,0.566,0.005813960119394856,0.8511577156076799,0.014364692565023774,0.026301680212184684
0.26,0.0082,-0.434,0.005821082995020845,0.8498540464984454,0.014415456243832517,0.026105238376591726
0.2609999999999999,0.0114,0.566,0.005822440532424279,0.8498540464984454,0.014425131211687819,0.026105238376591726
0.262,0.0121,0.566,0.005834112542841057,0.8406467827376648,0.014508315899861748,0.02471785274235033
0.2629999999999999,0.0038,-0.434,0.005826132531303537,0.8537590818350859,0.01445144354045923,0.02669366400097078
0.264,0.0049,1.566,0.005817621721276612,0.8524593910135465,0.014390788258899535,0.026497821628947083
0.2649999999999999,-0.0017,1.566,0.005817101821495605,0.8524593910135465,0.014387083010221674,0.026497821628947083
0.266,0.0085,-0.434,0.005799151417658866,0.8705267298437063,0.014259153142749238,0.029220277180694004
0.2669999999999999,-0.0064,0.566,0.0058768803128807345,0.8563770632116279,0.014813115457745203,0.027088151423824623
0.268,-0.0083,0.566,0.005886991219905368,0.855081351630516,0.014885174393435556,0.026892908658931527
0.2689999999999999,-0.0101,1.566,0.005887856642718006,0.855081351630516,0.014891342133545215,0.026892908658931527
0.27,-0.0054,-1.434,0.0059273999411508516,0.8641348302949404,0.015173161360229302,0.028257121368079383
0.2709999999999999,-0.013,0.566,0.005974267695832465,0.8679756185486852,0.015507180900941681,0.02883586599686982
0.272,-0.0094,-0.434,0.0059975510912829355,0.8806811175923297,0.015673118209170403,0.030750379071221638
0.2729999999999999,-0.0105,1.566,0.005999344221675367,0.8944463895958659,0.015685897583693167,0.0328245827787857
0.274,0.004,-0.434,0.005983435788541607,0.8806811175923297,0.015572520538752783,0.030750379071221638
0.2749999999999999,0.0022,-0.434,0.0059843331130382494,0.8819392197721888,0.015578915637435763,0.030939954708033453
0.276,0.004,-0.434,0.005991499174989082,0.8819392197721888,0.015629987098780437,0.030939954708033453
0.2769999999999999,0.0025,-0.434,0.005994616460714182,0.8806811175923297,0.01565220353208816,0.030750379071221638
0.278,-0.0019,0.566,0.0061180334168578765,0.8819392197721887,0.016531777885228863,0.030939954708033436
0.2789999999999999,0.0072,0.566,0.006103438120026337,0.8819392197721888,0.016427759368076725,0.030939954708033453
0.28,0.0108,1.566,0.006103438120026337,0.8806811175923297,0.016427759368076725,0.030750379071221638
0.2809999999999999,0.0031,-0.434,0.006072976168935453,0.8806811175923297,0.016210661557829548,0.030750379071221638
0.28200000000000003,0.0056,0.5659999999999444,0.0060695416012511,0.8907197507605703,0.016186183903026865,0.0322630386199099
0.2829999999999999,0.0081,-0.434,0.0060957466770574925,0.8907197507605703,0.016372943594090503,0.0322630386199099
0.28400000000000003,0.0027,-0.434,0.006092868459695663,0.8994145659358469,0.01635243096557225,0.03357320654601482
0.2849999999999999,-0.0057,-0.4339999999999445,0.006095476974647509,0.9006464999689224,0.016371021464990792,0.03375883906662343
0.28600000000000003,0.0019,0.566,0.006090555444558649,0.9104650248183989,0.016335946449533987,0.03523833185400621
0.2869999999999999,-0.009,0.566,0.006040691657850663,0.9006464999689232,0.015980574632652057,0.033758839066623546
0.28800000000000003,-0.0014,0.5659999999999444,0.0061276698123268565,0.9006464999689233,0.016600455047395848,0.03375883906662357
0.2889999999999999,-0.0138,-0.434,0.006142530048871343,0.9141111698714095,0.016706361750611867,0.035787746902639334
0.29000000000000004,-0.0058,0.566,0.006126540041311415,0.9141111698714096,0.016592403336827433,0.035787746902639354
0.2909999999999999,-0.0044,1.566,0.0060545128929661565,0.9141111698714096,0.016079076526688087,0.035787746902639354
0.29200000000000004,0.0022,0.566,0.006042300285306918,0.9273803663336213,0.015992039082096367,0.03778720005483606
0.2929999999999999,0.0083,-0.434,0.006050169890608576,0.9261839921810242,0.0160481245926207,0.0376069258326984
0.29400000000000004,0.009399999999997091,-1.434,0.006058547522034657,0.9381014571255509,0.016107830730032375,0.03940269492221236
0.29499999999999993,-0.0037,-0.434,0.006098545899142749,0.9381014571255508,0.016392893234981585,0.039402694922212336
0.29600000000000004,0.005399999999999667,-0.434,0.006114140781243842,0.9381014571255508,0.016504035648187785,0.039402694922212336
0.29699999999999993,0.0039,0.566,0.006086728624088556,0.9381014571255504,0.016308673267268425,0.039402694922212274
0.29800000000000004,0.002400000000000244,2.566,0.006092100204312775,0.9369187730920852,0.01634695572333192,0.039224483579460734
0.29899999999999993,0.0035,-0.434,0.0060824191710020506,0.9381014571255499,0.0162779604338832,0.039402694922212204
0.30000000000000004,-0.002699999999999778,0.566,0.006087122911794945,0.9381014571255499,0.01631148329730915,0.039402694922212204
0.30099999999999993,-0.0017,-0.434,0.006091390585778745,0.9381014571255495,0.016341898377222046,0.03940269492221214
0.30200000000000005,0.004799999999996958,-0.434,0.006091390585778745,0.9416405966860107,0.016341898377222046,0.03993598597494321
0.30299999999999994,-0.0089,-0.434,0.00615354980976959,0.9533648670975287,0.016784897953145948,0.04170264377508017
0.30400000000000005,-0.003100000000000422,0.566,0.006101800888389534,0.9522011412129194,0.01641609106087746,0.041527289118534
0.30499999999999994,-0.005,-0.434,0.006134347368126544,0.9854552888409454,0.01664804499780941,0.046538150965958064
0.30600000000000005,-0.003499999999999045,0.566,0.006085017338444138,0.9854552888409454,0.01629647718813344,0.046538150965958064
0.30699999999999994,0.0008,0.566,0.006070809172718684,0.9510359913475851,0.016195217696992437,0.0413517198911389
0.30800000000000005,0.0019000000000002442,-0.434,0.006174119568479255,0.9510359913475851,0.016931495574547727,0.0413517198911389
0.30899999999999994,0.003,-0.434,0.006191095313765635,0.9498694122613812,0.01705247919499907,0.04117593530328992
0.31000000000000005,0.004100000000000178,-0.434,0.006233370327137686,0.9580275504245048,0.01735376694915048,0.04240523468948612
0.31099999999999994,0.0049,0.566,0.006193085498745248,0.9580275504245048,0.01706666294835656,0.04240523468948612
0.31200000000000006,0.0023999999999995115,1.566,0.006093492836245774,0.9580275504245047,0.0163568808046976,0.04240523468948611
0.31299999999999994,0.0002,-0.434,0.005984257951302074,0.9580275504245047,0.015578379970882779,0.04240523468948611
0.31400000000000006,-0.0004999999999991784,-0.434,0.0060531396775868615,0.9580275504245047,0.016069289824222666,0.04240523468948611
0.31499999999999995,0.0032,-2.434,0.006037852974581206,0.9463610467911675,0.01596034375775026,0.04064728140789739
0.31600000000000006,0.009699999999998645,-0.434,0.006035373536875885,0.9345489149290004,0.015942673172735414,0.03886738430913693
0.31699999999999995,0.0036,-0.434,0.005976072593906313,0.9357345942539873,0.015520044141985656,0.03904604699384365
0.31800000000000006,-0.0018000000000011323,-0.434,0.005951198729928537,0.9345489149290004,0.015342771800307672,0.03886738430913693
0.31899999999999995,-0.0069,-1.434,0.005913093703040689,0.9428396265630583,0.015071202921739116,0.04011666037177411
0.32000000000000006,-0.0076000000000003105,1.566,0.005838054682843565,0.9297910778449978,0.014536410947341767,0.03815045526355841
0.32099999999999995,-0.009,1.566,0.005814139326946424,0.9201787896538722,0.014365969750681027,0.03670203900276203
0.32199999999999984,-0.0017,1.566,0.005864839952363089,0.9189730401051833,0.014727305593000535,0.03652035206016898
0.32299999999999995,0.0009,-0.434,0.005863237239459308,0.9201787896538721,0.014715883295695033,0.03670203900276202
0.32399999999999984,0.0053,0.566,0.005767675734617169,0.9068042191958859,0.014034830615147537,0.03468670769482236
0.32499999999999996,0.0075,0.566,0.0057550837403634635,0.9080261276197743,0.013945089338531063,0.034870829518385445
0.32599999999999985,-0.0022,-0.434,0.005756283404822969,0.9092463939597808,0.01395363916931547,0.03505470390648376
0.32699999999999996,0.0127,0.566,0.005753675833695168,0.9104650248183986,0.013935055396391002,0.035238331854006176
0.32799999999999985,-0.001,0.566,0.005792766074045276,0.9201787896538721,0.014213645745273281,0.03670203900276202
0.32899999999999996,0.0081,-0.434,0.005974469273479251,0.9285978095771389,0.01550861751495178,0.03797064904798376
0.32999999999999985,0.0034,0.566,0.0059315631926150835,0.9274030059595225,0.015202832236323105,0.03779061148004945
0.33099999999999996,-0.0009,-1.434,0.00593522100908486,0.9153462617906164,0.015228900952128773,0.035973855265579294
0.33199999999999985,0.0057,-1.434,0.005928489394362431,0.9165567824541794,0.01518092573178564,0.036156261137965995
0.33299999999999996,-0.0005,-1.434,0.006062792840346983,0.9153462617906167,0.01613808648438831,0.03597385526557934
0.33399999999999985,-0.008,0.566,0.006010187781170789,0.9153462617906167,0.015763178024946506,0.03597385526557934
0.33499999999999996,-0.0033,-1.434,0.006022326988124878,0.9165567824541798,0.015849692353592338,0.036156261137966064
0.33599999999999985,0.0011,-0.434,0.006011311397974901,0.9463832323564035,0.01577118587536298,0.04065062441351727
0.33699999999999997,-0.0112,0.566,0.006037831605325607,0.9463832323564034,0.015960191462233028,0.04065062441351726
0.33799999999999986,-0.0057,1.566,0.0059719219423926195,0.9545711652401562,0.015490463063871732,0.04188441338190108
0.33899999999999997,-0.001,0.566,0.0059733543762166726,0.9534089117578292,0.015500671807415378,0.04170928059254882
0.33999999999999986,0.0034,-0.434,0.005849666137275196,0.9626894600703519,0.014619164061985379,0.04310770902266753
0.34099999999999997,-0.0002,1.566,0.005820842639563512,0.970739863997117,0.014413743266114434,0.04432077460306396
0.34199999999999986,0.0035,-0.434,0.005829368036933817,0.9580713807309643,0.014474502509508207,0.04241183920730013
0.34299999999999997,0.0046,1.566,0.005880775800144511,0.9580713807309642,0.014840878018071312,0.04241183920730011
0.34399999999999986,0.0071,0.566,0.005828184814221481,0.9592279849256059,0.014466069856618824,0.042586120740428814
0.345,0.0065,0.566,0.005752777145639373,0.9499136189955069,0.013928650579824052,0.04118259654266093
0.34599999999999986,0.0097,0.5659999999999444,0.005760157315031368,0.9843721618469551,0.013981247953166135,0.046374941257779384
0.347,0.0058,-0.4339999999999445,0.005750980476499636,0.9843721618469551,0.013915845985173769,0.046374941257779384
0.34799999999999986,0.0022,0.5659999999999444,0.005742471386158057,0.9843721618469551,0.01385520295955664,0.046374941257779384
0.349,0.0029,-0.434,0.005773812540611045,0.9499136189955069,0.014078566721846918,0.04118259654266093
0.34999999999999987,-0.0036,-0.433999999999889,0.00576427183349416,0.9499136189955069,0.014010571516382048,0.04118259654266093
0.351,-0.0119,1.566,0.005785387070512835,0.9499136189955069,0.014161056680839432,0.04118259654266093
0.35199999999999987,-0.0087,1.566,0.005789272058054949,0.959227984925606,0.014188744411205557,0.042586120740428834
0.353,-0.0021,-0.434,0.005782559178965388,0.960383196205109,0.014140902716940814,0.04276019238378971
0.35399999999999987,-0.0065,2.566,0.0057215714362776615,0.961537019589908,0.013706252114623157,0.042934054893880996
0.355,-0.0011,-0.434,0.005720522574089219,0.9615370195899081,0.013698777029272174,0.04293405489388101
0.35599999999999987,-0.0018,-0.434,0.005699167386082774,0.9626894600703518,0.01354658176969133,0.043107709022667515
0.357,-0.0112,-0.434,0.005694287573891374,0.9615370195899081,0.01351180407150615,0.04293405489388101
0.3579999999999999,-0.0051,-0.434,0.005706782021784231,0.9615370195899081,0.013600850149667524,0.04293405489388101
0.359,0.0073,-1.434,0.005703797474949605,0.9626894600703515,0.013579579726757173,0.04310770902266746
0.3599999999999999,-0.004,-0.434,0.0057010074617696044,0.9626894600703513,0.01355969571636888,0.04310770902266743
0.361,-0.0025,0.566,0.005702439438806682,0.963840522606954,0.013569901204459457,0.043281155517618346
0.3619999999999999,-0.0036,0.566,0.0056854543053512325,0.9626894600703512,0.013448850675918701,0.04310770902266741
0.363,-0.0098,-0.434,0.005680609030075738,0.9592279849256045,0.013414319117214002,0.0425861207404286
0.3639999999999999,-0.0022,0.566,0.005720571131412897,0.9592279849256045,0.013699123090120686,0.0425861207404286
0.365,0.0003,0.566,0.005720937361264345,0.9592279849256046,0.013701733155988082,0.04258612074042861
0.3659999999999999,-0.0004,0.566,0.005842158923907335,0.9298136587735417,0.014565661265058209,0.03815385784403005
0.367,0.0035,-0.434,0.005762056203997772,0.9310053686905043,0.013994781053369688,0.038333429241345675
0.3679999999999999,-0.0049,-1.434,0.005754069489781138,0.9310053686905042,0.013937860924966619,0.03833342924134566
0.369,-0.0038,-0.434,0.005760266492303659,0.9440371335429271,0.013982026043403109,0.04029710529264741
0.3699999999999999,-0.0013,-0.434,0.0057183133872471354,0.934571380899634,0.013683032482102087,0.038870769567312016
0.371,-0.0151,-0.434,0.005769835673191186,0.9214057483102893,0.01405022417721086,0.03688692181463196
0.3719999999999999,-0.0093,0.566,0.005698498970629464,0.9080492497887102,0.013541818071830478,0.03487431365502447
0.373,-0.0003,-0.434,0.005708802157366668,0.8957320378065847,0.013615247356531949,0.0330183091566307
0.3739999999999999,0.0011,0.566,0.005729575292267521,0.9092694850980878,0.013763294409903192,0.03505818336730923
0.375,0.0025,0.566,0.005786516779642151,0.9080492497887102,0.014169107950354611,0.03487431365502447
0.3759999999999999,0.0036,0.566,0.0057383387831296965,0.9068273725208877,0.013825750510322473,0.034690196526176276
0.377,0.0072,-1.434,0.005736607217153325,0.9068273725208879,0.013813409896267677,0.034690196526176297
0.3779999999999999,0.0148,-1.434,0.005633583543683322,0.9068273725208877,0.013079175445978272,0.034690196526176276
0.379,-0.0002,-0.434,0.005636716051283735,0.9056038466484307,0.013101500363335123,0.03450583097929141
0.3799999999999999,0.011,0.566,0.005620790175760695,0.9068273725208877,0.01298799900907171,0.034690196526176276
0.381,0.0012,0.566,0.005628420564666199,0.9068273725208876,0.01304237965979815,0.03469019652617626
0.3819999999999999,0.0139,-0.434,0.0056968094113173376,0.9068273725208877,0.01352977683304538,0.034690196526176276
0.383,-0.0011,-0.434,0.005668760461276707,0.8969690295890038,0.013329876123619855,0.03320470379820849
0.3839999999999999,0.0047,0.566,0.005670098684551187,0.8882502761154899,0.01333941344254091,0.03189092875798742
0.385,-0.0044,-2.434,0.0056531107776227755,0.8882502761154899,0.01321834314786945,0.03189092875798742
0.3859999999999999,-0.0059,0.566,0.005643240425842836,0.8781834145028852,0.013147998613752083,0.030374015639595357
0.387,-0.0016,-1.434,0.005706649595554849,0.8781834145028852,0.013599906367559396,0.030374015639595357
0.3879999999999999,0.002,-0.434,0.005602991778772566,0.8781834145028852,0.012861152471878334,0.030374015639595357
0.389,-0.0067,-1.434,0.005573695933498324,0.8781834145028852,0.012652365324942055,0.030374015639595357
0.3899999999999999,0.0008,-1.434,0.005574107986072704,0.8781834145028852,0.012655301962563783,0.030374015639595357
0.391,0.0055,-0.434,0.005574698037089241,0.8781834145028852,0.0126595071686992,0.030374015639595357
0.3919999999999999,0.0081,0.566,0.005602185775148433,0.8654412475837073,0.01285540820351783,0.028453977309850095
0.393,0.0026,0.566,0.0056170942120361425,0.86672147170123,0.012961658423435572,0.028646886364636397
0.3939999999999999,0.0004,-0.434,0.005639186031028666,0.8538082647873841,0.013119103542868157,0.026701075075883055
0.395,-0.0047,2.566,0.0056497473542923915,0.8628751010672628,0.013194372528332242,0.0280673005614942
0.3959999999999999,0.0043,-0.434,0.005613430968215462,0.8615891616966505,0.012935551027704465,0.02787353031056552
0.397,-0.0022,0.566,0.005533265685880018,0.8920107701631358,0.012364224942879918,0.03245757434943639
0.3979999999999999,0.0065,-0.434,0.005503677218349802,0.892010770163136,0.01215335232049882,0.03245757434943643
0.399,0.001,-0.434,0.0055084930350563135,0.8920107701631363,0.012187673932348833,0.032457574349436476
0.3999999999999999,0.0057,0.566,0.005502523228846069,0.8920107701631363,0.0121451280083541,0.032457574349436476
0.401,-0.0027,-1.434,0.005506852038369369,0.8932529152349489,0.01217597879219528,0.0326447455083227
0.4019999999999999,-0.0038,0.566,0.005376335290896145,0.8807287971260122,0.011245805278605074,0.03075756360528051
0.403,-0.0031,0.566,0.005304701826123175,0.868023995980716,0.010735284192932267,0.028843155692914686
0.4039999999999999,0.003,0.566,0.005316558687451117,0.8782073223958154,0.01081978628615081,0.03037761817212383
0.405,-0.001,0.566,0.005306225175324273,0.8407217067093148,0.010746140876892312,0.02472914257227464
0.4059999999999999,0.0027,-0.434,0.005368723702848551,0.8407217067093148,0.011191558618806226,0.02472914257227464
0.40700000000000003,-0.0038,0.566,0.005422637608824698,0.8407217067093149,0.01157579503538942,0.024729142572274657
0.4079999999999999,0.0002,0.5659999999999444,0.0053277203357132265,0.8512317144253502,0.010899333698896094,0.026312830636377356
0.40900000000000003,0.0024,-0.4339999999999445,0.0053033193640504,0.8512317144253503,0.010725431590652989,0.026312830636377373
0.4099999999999999,-0.0042,0.5659999999999444,0.00526354006782111,0.8407217067093149,0.01044193044265407,0.024729142572274657
0.41100000000000003,-0.002,-0.4340000000000555,0.00527317303960208,0.8407217067093149,0.010510583204704077,0.024729142572274657
0.4119999999999999,0.0002,-1.4339999999999444,0.0052911503873810835,0.8407217067093149,0.010638705097659303,0.024729142572274657
0.41300000000000003,0.0068,-0.434,0.005294058876182854,0.8394018296641489,0.010659433466243077,0.02453025846305337
0.4139999999999999,-0.0008,-0.434,0.0052099984913156604,0.8538328552011368,0.010060347563020553,0.02670478045325324
0.41500000000000004,0.0123,-0.4339999999999445,0.005208425608272041,0.8525332768474337,0.010049137858706937,0.02650895502831224
0.4159999999999999,-0.0004,0.5659999999999444,0.0052161654555770536,0.8654655074703588,0.010104298603222364,0.028457632882135524
0.41700000000000004,-0.0018,-0.434,0.005228050538573683,0.8782073223958154,0.010189001828090528,0.03037761817212383
0.4179999999999999,-0.0032,1.566,0.00522028125957611,0.8794689634082207,0.010133631328264692,0.030567727053726283
0.41900000000000004,0.00039999999999751313,-0.434,0.005196797346042675,0.8693004164769694,0.00996626495738018,0.029035491603535232
0.41999999999999993,-0.0108,-0.434,0.005221266242218733,0.870574965511721,0.010140651153561076,0.029227545515196022
0.42100000000000004,-0.00020000000000079936,-0.434,0.005226255977854333,0.8705749655117204,0.010176212259839825,0.02922754551519594
0.42199999999999993,-0.0038,0.566,0.005015951311850503,0.8844975316828964,0.00867740207732796,0.031325450908103576
0.42300000000000004,-0.004899999999996758,1.566,0.004943070586892518,0.8844975316828968,0.008157991953189843,0.031325450908103646
0.42399999999999993,0.0097,-0.434,0.004943681415623332,0.8982043178088926,0.00816234523901517,0.03339084174048419
0.42500000000000004,3.996802888650116e-16,-0.434,0.004953913695674009,0.8969690295890017,0.008235269182271798,0.03320470379820817
0.42599999999999993,0.0018,-0.434,0.0049652307411745455,0.8969690295890017,0.008315924088101828,0.03320470379820817
0.42700000000000005,0.006599999999999023,0.566,0.005106643358908896,0.8969690295890016,0.009323750854018863,0.033204703798208154
0.42799999999999994,0.0022,-0.434,0.00505632030051213,0.8882502761154871,0.008965105875885863,0.031890928757987005
0.42900000000000005,-0.00679999999999749,0.566,0.004838837127597691,0.8781834145028823,0.0074151355386456305,0.030374015639594923
0.42999999999999994,0.0045,0.566,0.004874027448389454,0.8794450898132539,0.007665931738895387,0.03056412968934581
0.43100000000000005,0.008899999999997979,-1.434,0.004842529780748061,0.8882502761154862,0.007441452530310278,0.031890928757986874
0.43199999999999994,-0.0002,-0.434,0.004912670287175524,0.8882502761154862,0.007941333523146197,0.031890928757986874
0.43300000000000005,-0.001300000000001199,0.566,0.004713947642464029,0.889497672570277,0.00652506668965686,0.03207889121529717
0.43399999999999994,-0.0067,0.566,0.004716172130070664,0.8907433221734767,0.00654092028310797,0.03226659045034453
0.43500000000000005,-0.000200000000001843,-0.434,0.004734588080446815,0.8907433221734766,0.006672168031761847,0.03226659045034451
0.43599999999999994,-0.0085,-0.434,0.0047144078767159875,0.860276894646572,0.006528346710953031,0.02767579290444033
0.43700000000000006,-0.002999999999999445,0.566,0.004765368540721859,0.8602768946465719,0.00689153580975398,0.027675792904440312
0.43799999999999994,-0.0005,1.566,0.004777244905025368,0.8641348302949351,0.006976176897788593,0.02825712136807858
0.43900000000000006,-0.0012000000000004884,0.566,0.004793939954182832,0.8641348302949351,0.007095160038534923,0.02825712136807858
0.43999999999999995,-0.0034,-0.434,0.004779734767063823,0.8537836736653839,0.0069939217754805515,0.02669736959179142
0.44100000000000006,-0.00549999999999758,0.566,0.004865916333848514,0.8446192481792985,0.007608125027820033,0.025316438992232636
0.44199999999999995,0.0054,0.566,0.004856656507709865,0.8550813516305107,0.007542131619453887,0.026892908658930723
0.44300000000000006,0.006800000000000244,0.566,0.004831382516936779,0.8550813516305107,0.007362007633413933,0.026892908658930723
0.44399999999999995,0.0079,-1.434,0.0048499830153638165,0.8679756185486799,0.007494570628672115,0.028835865996869017
0.44500000000000006,-0.0008000000000002443,-0.434,0.004850169251481205,0.8679756185486799,0.007495897905876172,0.028835865996869017
0.44599999999999995,-0.0019,-2.434,0.0048455582866523735,0.8300280485727929,0.007463036242994516,0.02311778136208582
0.44700000000000006,0.0007000000000005551,-0.434,0.004837147843152621,0.830028048572793,0.0074030962587973,0.023117781362085837
0.44799999999999995,0.0032,0.566,0.0048371478431526215,0.8286911396466458,0.007403096258797306,0.022916330824052318
0.44899999999999984,-0.0012,-0.434,0.004803612142798758,0.830028048572793,0.007164092293154801,0.023117781362085837
0.44999999999999996,0.0043,0.566,0.004832394130217589,0.830028048572793,0.007369217251321382,0.023117781362085837
0.45099999999999985,-0.0008,0.566,0.004818027334800788,0.8286911396466458,0.0072668272298827994,0.022916330824052318
0.45199999999999996,-0.0001,0.566,0.00481039108221926,0.8178915340175363,0.007212404789606472,0.02128900504143255
0.45299999999999985,-0.0041,-1.434,0.004804028694546667,0.8273520704271877,0.007167060995719384,0.022714554764780025
0.45399999999999996,-0.0056,0.566,0.004794285131527211,0.8273520704271876,0.007097620066304908,0.022714554764780008
0.45499999999999985,-0.0082,-0.434,0.00478739188203357,0.8367056444549358,0.007048492898905419,0.024123986988302083
0.45599999999999996,-0.0078,-0.434,0.00480012877838809,0.8367056444549357,0.0071392668713165,0.02412398698830207
0.45699999999999985,-0.0049,-1.434,0.004812514072501789,0.8367056444549357,0.007227535026672967,0.02412398698830207
0.45799999999999996,0.0008,-0.434,0.004798039830922992,0.8367056444549357,0.007124379252363891,0.02412398698830207
0.45899999999999985,-0.0032,-0.434,0.00483114863949889,0.8353794221633949,0.007360340823580232,0.02392414675314643
0.45999999999999996,0.0052,-0.434,0.004825737094855627,0.8367056444549363,0.0073217735470258805,0.02412398698830217
0.46099999999999985,-0.005,0.566,0.004814869329798552,0.8367056444549367,0.0072443205963224734,0.024123986988302218
0.46199999999999997,-0.004,-0.434,0.004827515041516923,0.8380297679387367,0.007334444709347428,0.024323510967099383
0.46299999999999986,-0.0029,1.566,0.004866528232421955,0.8286911396466472,0.007612485938255192,0.022916330824052537
0.46399999999999997,-0.0018,-0.434,0.0048195918523504366,0.8300280485727946,0.007277977314560852,0.023117781362086073
0.46499999999999986,0.0029,1.566,0.004854243916365085,0.8300280485727946,0.007524937438542417,0.023117781362086073
0.46599999999999997,0.0036,1.566,0.004700343358822757,0.8300280485727949,0.006428110976620298,0.023117781362086122
0.46699999999999986,-0.0019,0.566,0.004725103219642942,0.8286911396466481,0.006604570834692084,0.022916330824052672
0.46799999999999997,0.0002,-0.434,0.0047752934664614275,0.8433054712891795,0.006962269284392479,0.025118474077649285
0.46899999999999986,-0.0063,0.5659999999999444,0.004797598301908369,0.8393518025477507,0.007121232540521655,0.024522720186273564
0.47,0.0027,-0.433999999999889,0.005061957296741308,0.840671758136825,0.009005279912475803,0.024721616130790654
0.47099999999999986,0.0038,1.5659999999999445,0.005165372981766102,0.840671758136825,0.009742308171010865,0.024721616130790654
0.472,-0.0038,0.5660000000000555,0.005166589659207131,0.840671758136825,0.009750979250792867,0.024721616130790654
0.47299999999999986,0.0009,1.565999999999889,0.005160666433781515,0.840671758136825,0.009708765301145816,0.024721616130790654
0.474,0.0034,-0.4339999999999445,0.005155259217231306,0.8273520704271901,0.00967022887026913,0.022714554764780376
0.47499999999999987,0.0042,0.566,0.005151552297914879,0.8273520704271901,0.009643810205753578,0.022714554764780376
0.476,0.0125,0.566,0.005275136267798106,0.8380297679387383,0.010524574841060565,0.024323510967099615
0.47699999999999987,0.0001,0.5659999999999444,0.005314021297651838,0.8380297679387384,0.010801702685152188,0.024323510967099633
0.478,0.0016,-0.4339999999999445,0.00527872005880933,0.8367056444549382,0.010550115988395442,0.024123986988302454
0.47899999999999987,0.0059,0.5659999999998889,0.0053480934767074426,0.8380297679387384,0.011044530054983242,0.024323510967099633
0.48,0.0095,-1.434,0.005311197297504731,0.8367056444549381,0.010781576454686996,0.024123986988302436
0.48099999999999987,0.0084,0.566,0.005295085029654757,0.835379422163397,0.01066674670993725,0.023924146753146747
0.482,0.0008,0.566,0.0052258696514212635,0.8246674089975627,0.010173458968614001,0.022310019737106626
0.4829999999999999,-0.0018,0.566,0.005235305571930088,0.835379422163397,0.010240707375455065,0.023924146753146747
0.484,-0.0062,0.566,0.005259851666012911,0.8446441061160886,0.010415643749674923,0.02532018468099486
0.4849999999999999,-0.0008,0.566,0.0052501871988762305,0.8576952969938384,0.01034676652489312,0.027286787919913826
0.486,-0.0091,0.566,0.005301304953455006,0.8894976725702793,0.010711075184922638,0.03207889121529752
0.4869999999999999,-0.0037,1.566,0.005231990159792165,0.8994379094852749,0.010217078924570137,0.03357672404111109
0.488,-0.0044,-0.434,0.005223791031216787,0.9080492497887088,0.010158644950517099,0.03487431365502427
0.4889999999999999,0.0057,-0.434,0.005249836357450821,0.8944933353940834,0.010344266130057175,0.032831656750785115
0.49,-0.0091,0.566,0.0053573475621606,0.8944933353940834,0.011110482550334796,0.032831656750785115
0.4909999999999999,0.0046,-1.434,0.005348788566445937,0.8944933353940834,0.011049483856520846,0.032831656750785115
0.492,0.0064,0.566,0.005339341880983494,0.8932529152349461,0.010982158729450964,0.03264474550832228
0.4929999999999999,0.005,1.566,0.00531392101983533,0.8932529152349461,0.010800988020017468,0.03264474550832228
0.494,0.0006,-0.434,0.005284885156192696,0.9019233102644177,0.010594053723634275,0.03395123371368104
0.4949999999999999,0.0043,0.566,0.005320078096248046,0.8932529152349461,0.010844868590987369,0.03264474550832228
0.496,0.0032,-0.434,0.005320083303774146,0.8932529152349461,0.01084490570425401,0.03264474550832228
0.4969999999999999,-0.0022,-0.434,0.005321280226761026,0.8718476512926052,0.010853435996969366,0.029419318664654748
0.498,-0.003,0.566,0.005322589413504978,0.8718476512926052,0.010862766376841243,0.029419318664654748
0.4989999999999999,0.0054,-0.434,0.00531759206025663,0.8718476512926052,0.010827150980965547,0.029419318664654748
0.5,0.0043,-0.434,0.005317366695898683,0.8718476512926052,0.010825544842590757,0.029419318664654748
0.5009999999999999,-0.0004,-0.434,0.00534064008982579,0.8705749655117184,0.010991410871444927,0.029227545515195637
0.502,-0.0029,-1.434,0.005390289854119716,0.8693004164769665,0.011345257382305013,0.0290354916035348
0.5029999999999999,-0.0007,0.566,0.005431115249541048,0.8680239959807132,0.011636213924189114,0.02884315569291427
0.504,0.0015,-1.434,0.0054166878602050815,0.8590115078249707,0.011533392058870082,0.0274851195900159
0.5049999999999999,-0.0036,0.566,0.005391050427460857,0.8590115078249707,0.011350677875772468,0.0274851195900159
0.506,0.0044,-0.434,0.00548267010881229,0.8603013001643274,0.01200363776457265,0.02767947042097616
0.5069999999999999,-0.0009,0.566,0.005547733855024285,0.8603013001643274,0.012467337439848182,0.02767947042097616
0.508,-0.0056,-0.434,0.005548634757022171,0.8499034554307533,0.012473758034852253,0.026112683503034084
0.5089999999999999,0.0006,0.566,0.005582089462899463,0.8512070488675695,0.012712184764865516,0.026309113936018313
0.51,0.0028,0.566,0.005586623080616644,0.8525086489476451,0.0127444951863471,0.026505244002403127
0.5109999999999999,-0.004,0.566,0.005584814314387033,0.8538082647873827,0.012731604377530358,0.026701075075882836
0.512,0.0062,0.566,0.005575270487444166,0.8538082647873827,0.012663586937528146,0.026701075075882836
0.5129999999999999,-0.0003,0.566,0.005605087224638749,0.8538082647873827,0.012876086403972262,0.026701075075882836
0.514,0.0059,-0.434,0.005719360271917102,0.878183414502874,0.013690493473972012,0.030374015639593667
0.5149999999999999,-0.0017,-0.434,0.005763452244966683,0.878183414502875,0.014004730430429015,0.03037401563959382
0.516,0.0049,-0.434,0.005759370554716044,0.8957320378065657,0.013975640829015198,0.03301830915662783
0.5169999999999999,-0.0071,1.566,0.0057742022058587805,0.8832430736011458,0.014081343808309974,0.031136424377899003
0.518,-0.0056,-1.434,0.005796576320291129,0.8819868312938102,0.01424080080549937,0.03094712899377546
0.5189999999999999,-0.0161,0.566,0.005797693909256865,0.8832430736011454,0.014248765696405201,0.031136424377898937
0.52,-0.0149,-0.434,0.0057628514422131535,0.883243073601145,0.01400044859825771,0.03113642437789887
0.5209999999999999,-0.0011,-0.434,0.0057695965965906,0.8832430736011455,0.014048520313715259,0.031136424377898955
0.522,-0.0029,0.566,0.005832788176574284,0.8693004164769467,0.014498877337780687,0.029035491603531804
0.5229999999999999,-0.0043,0.566,0.005883983469051784,0.9056038466484037,0.014863738598921478,0.03450583097928733
0.524,0.0095,-0.434,0.006026326278478834,0.8932529152349211,0.015878194703156098,0.03264474550831852
0.5249999999999999,0.0114,-1.434,0.006017464148743321,0.8932529152349213,0.01581503561810714,0.03264474550831855
0.526,0.0067,-0.434,0.00612094184015543,0.8920107701631088,0.016552505786973797,0.032457574349432326
0.5269999999999999,0.0024,-0.434,0.006083408898274284,0.892010770163108,0.016285014073451554,0.03245757434943221
0.528,0.0089,0.566,0.006148914855938919,0.8907668929626199,0.016751865324203915,0.03227014218678812
0.5289999999999999,0.0028,-0.434,0.006228597831789866,0.8907668929626201,0.017319754082202616,0.032270142186788156
0.53,0.0017,-0.434,0.006233493983867962,0.8994612524288507,0.017354648232338316,0.033580241444915226
0.5309999999999999,0.0024,-0.434,0.006206317914831262,0.8907668929626209,0.017160968416446317,0.032270142186788274
0.532,0.0032,-1.434,0.006152353441228348,0.8895212763670013,0.01677637161188247,0.03208244792544903
0.5329999999999999,0.0053,-1.434,0.006152235954099979,0.8895212763670012,0.01677553429853294,0.03208244792544901
0.534,-0.0059,1.566,0.006162121289670444,0.9019233102643933,0.01684598561990443,0.03395123371367736
0.5349999999999999,-0.0073,-2.434,0.006135668310073909,0.9019233102643933,0.016657459155273616,0.03395123371367736
0.536,0.0003,-1.434,0.006145920138555134,0.9019233102643933,0.01673052241729723,0.03395123371367736
0.5369999999999999,-0.0008,-1.434,0.006084598296443377,0.9019233102643933,0.016293490737905897,0.03395123371367736
0.538,0.0053,-0.434,0.006077202096302508,0.8895212763670011,0.016240779115792726,0.032082447925448995
0.5389999999999999,0.0108,0.566,0.006062406647652,0.9031518222796118,0.016135334146294006,0.03413635059157839
0.54,0.0017,-0.434,0.00604138287935374,0.9043786654801659,0.0159855008658492,0.03432121600611836
0.5409999999999999,-0.0045,-0.434,0.00597264091909582,0.9031518222796118,0.015495587104266184,0.03413635059157839
0.542,-0.0012,0.566,0.005960316359233545,0.8944933353940588,0.015407751792917371,0.03283165675078142
0.5429999999999999,-0.0038,-1.434,0.005950490610753513,0.9238320505363955,0.01533772513990719,0.03725252629173692
0.544,-0.009899999999997603,0.566,0.005951331092118288,0.9105111446988865,0.015343715126014833,0.035245281373570754
0.5449999999999999,0.0009,-0.434,0.0059987973730059405,0.9117280850722866,0.015682000274282,0.03542865459233044
0.546,0.0022999999999992007,-1.434,0.006056346765925612,0.9117280850722866,0.016092146267447024,0.03542865459233044
0.5469999999999999,-0.0013,-0.434,0.006098892468186313,0.9117280850722868,0.016395363181185382,0.03542865459233045
0.548,-0.002099999999999778,0.566,0.006106904957401555,0.9117280850722868,0.016452467004183072,0.03542865459233045
0.5489999999999999,-0.0011,-0.434,0.006112712619226786,0.9105111446988865,0.01649385734917943,0.035245281373570754
0.55,-0.0065000000000001775,-0.434,0.006091209294568149,0.9105111446988866,0.016340606341635745,0.035245281373570775
0.5509999999999999,-0.0073,-0.434,0.0060805113940033805,0.9105111446988866,0.0162643639899911,0.035245281373570775
0.552,-0.006599999999998801,-0.434,0.006128261102428612,0.9117280850722868,0.01660466908430796,0.03542865459233045
0.5529999999999999,-0.0012,0.566,0.006134537332734239,0.9019233102643934,0.01664939884741123,0.03395123371367738
0.554,-0.0020000000000024204,0.566,0.006136865033050725,0.9006931226059067,0.016665988022546898,0.03376586434345518
0.5549999999999999,-0.0129,0.566,0.006135246838197656,0.9214285347333653,0.016654455387683606,0.03689035535980376
0.556,-0.011499999999998557,-0.434,0.00612473277344067,0.9298362391536866,0.01657952320659223,0.03815726034186683
0.5569999999999999,-0.005,-0.434,0.006117361121835825,0.9310279201679047,0.016526986538256638,0.038336827384006636
0.558,-0.006099999999997757,0.566,0.006120054839796702,0.9310279201679046,0.016546184266891452,0.03833682738400662
0.5589999999999999,0.004,0.566,0.006113991663189928,0.9440593737205192,0.016502972905920347,0.040300456527465486
0.56,0.0049999999999997555,0.566,0.006114483387412911,0.942884162885811,0.01650647735157245,0.040123371274817014
0.5609999999999999,0.0039,0.566,0.0061244650723049346,0.9417074854391752,0.016577615340277452,0.03994606502748735
0.562,0.007100000000001044,-0.434,0.006146054908490472,0.940529335876065,0.016731482902650304,0.03976853695603041
0.563,0.0118,2.5659999999996668,0.006115193280559148,0.9393497086574146,0.016511536654802816,0.03959078622579859
0.5640000000000001,0.007399999999998779,-0.43400000000022204,0.006118866740690582,0.9381685982093343,0.01653771686066637,0.03941281199689693
0.565,0.0019,-2.433999999999667,0.006098462013375319,0.9393497086574145,0.01639229539355095,0.03959078622579857
0.5660000000000001,0.00549999999999758,0.5659999999998889,0.006118534716985012,0.940529335876065,0.016535350576930494,0.03976853695603041
0.567,-0.0054,-0.433999999999889,0.00613543199385481,0.941707485439175,0.016655774964607722,0.03994606502748733
0.5680000000000001,-0.001099999999999778,0.566,0.006107773248701686,0.9381685982093342,0.016458655187577918,0.03941281199689692
0.569,-0.0001,0.5659999999998889,0.006083570307872614,0.9298362391536865,0.016286164415734147,0.03815726034186682
0.5700000000000001,-0.0038000000000012212,-0.434,0.0058656947807838745,0.928643028916262,0.014733397828449799,0.03797746287053945
0.571,-0.0093,-0.43399999999966693,0.005672024409695943,0.9298362391536866,0.013353137800209835,0.03815726034186683
0.5720000000000001,-0.008600000000000977,2.565999999999778,0.005678521131062229,0.9298362391536866,0.013399438970420459,0.03815726034186683
0.573,-0.013,0.5659999999998889,0.005671359875003621,0.928643028916262,0.013348401759957322,0.03797746287053945
0.5740000000000001,-0.00069999999999718,-0.434,0.005661834660427929,0.936985998922804,0.013280516967537178,0.0392346134241369
0.575,0.012,-0.433999999999889,0.005587753024212464,0.9369859989228041,0.012752548126870291,0.03923461342413692
0.5759999999999998,0.0105,0.5659999999998889,0.005486961744584168,0.9274482835533566,0.012034223616597471,0.037797434080647264
0.577,0.009,-0.434,0.005468957284310413,0.9369859989228041,0.01190590849691086,0.03923461342413692
0.5779999999999998,0.0101,-0.434,0.005471335309990841,0.9381685982093343,0.011922856333455939,0.03941281199689693
0.579,0.0064,-1.434,0.0054109275848879795,0.936985998922804,0.011492339430493369,0.0392346134241369
0.5799999999999998,0.0075,0.566,0.005498452375047301,0.936985998922804,0.012116115636726552,0.0392346134241369
0.581,-0.0017,-0.434,0.005496977257054511,0.936985998922804,0.012105602689439112,0.0392346134241369
0.5819999999999999,-0.0006,0.566,0.0055435761281964575,0.9381685982093343,0.012437705937019155,0.03941281199689693
0.583,-0.0039,1.566,0.00554048885325301,0.928643028916262,0.012415703386103955,0.03797746287053945
0.5839999999999999,0.0026,0.566,0.005553110424734015,0.928643028916262,0.012505655455235356,0.03797746287053945
0.585,-0.0036,0.566,0.005547004141460359,0.9153921357414891,0.012462136879438798,0.035980767727531116
0.5859999999999999,-0.0029,0.566,0.005648528341248106,0.8845212689103467,0.01318568480305202,0.03132902772410635
0.587,-0.0022,0.566,0.005684035301166459,0.875678587229455,0.013438737643423609,0.02999657870874345
0.5879999999999999,0.0014,1.566,0.005753415793918247,0.8667456957548615,0.013933202131444892,0.028650536537465653
0.589,-0.0025,0.566,0.0057397656515245105,0.8807287971259845,0.013835919589876861,0.030757563605276348
0.5899999999999999,0.0011,-0.434,0.005665401879891253,0.8794689634081928,0.013305940011906473,0.030567727053722082
0.591,0.0025,0.566,0.005663793397118087,0.8794689634081929,0.013294476593597093,0.0305677270537221
0.5919999999999999,0.0054,-2.434,0.005682245522109439,0.8807287971259846,0.013425982153371579,0.030757563605276365
0.593,0.0051,-0.434,0.00579713130523136,0.8895212763670013,0.014244756100906576,0.03208244792544903
0.5939999999999999,0.0076,0.566,0.00582021194484796,0.8794689634081929,0.014409248398360485,0.0305677270537221
0.595,0.0094,0.566,0.005745546718542017,0.8794689634081928,0.01387712039762054,0.030567727053722082
0.5959999999999999,0.0079,-0.434,0.005744917559096543,0.8794689634081929,0.01387263647150887,0.0305677270537221
0.597,0.0039,-0.434,0.0057514798210844395,0.8705749655116933,0.013919404740015053,0.029227545515191855
0.5979999999999999,-0.004,-0.434,0.005768684052123962,0.8705749655116933,0.014042016744562081,0.029227545515191855
0.599,-0.0015,-0.434,0.005767342785703518,0.8705749655116933,0.014032457737590803,0.029227545515191855
0.5999999999999999,-0.0022,-0.434,0.005770581162671311,0.87184765129258,0.014055537170236637,0.02941931866465095
0.601,-0.0076,0.566,0.005752935391888501,0.8718476512925801,0.01392977837738577,0.029419318664650966
0.6019999999999999,-0.004,-0.434,0.0057444136723150616,0.8857502131198123,0.013869045345105125,0.0315142097266856
0.603,-0.0018,-0.434,0.005711954027529072,0.8857502131198124,0.013637710267998118,0.031514209726685616
0.6039999999999999,-0.0003,-2.434,0.005762916532015461,0.8844975316828707,0.014000912483630916,0.03132545090809971
0.605,-0.0006,-1.434,0.005793070866332945,0.8932529152349217,0.014215817954730108,0.032644745508318605
0.6059999999999999,-0.0031,0.566,0.0056502353016998404,0.8920107701631096,0.013197850057179848,0.032457574349432444
0.607,-0.002,0.566,0.005545755441388054,0.8920107701631096,0.012453237579110195,0.032457574349432444
0.6079999999999999,-0.0049,1.566,0.005534138028602504,0.8932529152349217,0.012370442000161373,0.032644745508318605
0.609,0.001,-0.434,0.005501076866126413,0.8932529152349216,0.012134819995636084,0.032644745508318584
0.6099999999999999,-0.0044,-0.434,0.005533276695247705,0.9056038466484052,0.01236430340501158,0.03450583097928757
0.611,-0.0065,-0.434,0.005513859509185125,0.9056038466484052,0.012225919998027197,0.03450583097928757
0.6119999999999999,0.0,-0.434,0.005521717407088476,0.914157105801286,0.012281922071659113,0.03579466870382392
0.613,-0.0021,-0.434,0.005478172810426877,0.9153691990534125,0.011971586185585201,0.035977311539855665
0.6139999999999999,0.0031,0.566,0.005377338444120843,0.8794689634082026,0.011252954602946596,0.030567727053723556
0.615,0.0053,0.566,0.00546369153515555,0.8807287971259934,0.011868380283192013,0.030757563605277687
0.6159999999999999,0.0067,0.566,0.005493984172160662,0.8485978594507647,0.012084271417046225,0.025915951319203837
0.617,0.0042,-1.434,0.005480420598310139,0.8485978594507655,0.011987605836654178,0.02591595131920395
0.6179999999999999,-0.0015,0.566,0.005462370386409298,0.8590115078249648,0.011858964651902792,0.02748511959001501
0.619,0.0007,-0.434,0.005515856698768078,0.8577197759682456,0.012240153672154436,0.027290476505178227
0.6199999999999999,-0.0,0.566,0.00552660542854803,0.8577197759682463,0.012316758276081615,0.027290476505178345
0.621,-0.0029,-0.434,0.005733705581945149,0.8680239959807082,0.013792730372229582,0.028843155692913517
0.6219999999999999,0.0008,-0.434,0.005763863660038322,0.869300416476963,0.014007662524663197,0.02903549160353426
0.623,-0.0028,-1.434,0.005709036151366794,0.8300786376126819,0.013616914997087433,0.023125404311641257
0.6239999999999999,-0.0024,-0.434,0.005562880775988539,0.8287418102957187,0.012575287300430513,0.022923966070790978
0.625,0.0042,-0.434,0.005575014726305999,0.8300786376126826,0.01266176416580625,0.023125404311641375
0.6259999999999999,0.005,-1.434,0.00545185161932647,0.8446689633213316,0.011783998958032138,0.02532393025952475
0.627,0.0029,0.566,0.005361217647646419,0.8433552638773484,0.01113806407595454,0.02512597701482063
0.6279999999999999,0.0036,-0.434,0.005292603265549312,0.8433552638773484,0.01064905954501355,0.02512597701482063
0.629,0.0102,-0.434,0.005237416848916904,0.8433552638773484,0.010255754133599195,0.02512597701482063
0.6299999999999999,0.0011,-0.434,0.005201074773602895,0.8472902516704292,0.009996749549586507,0.025718915989621182
0.631,-0.0075,0.566,0.005147966630067028,0.847290251670429,0.00961825568248225,0.025718915989621165
0.6319999999999999,0.0026,-0.434,0.005155241171280124,0.847290251670429,0.009670100259449895,0.025718915989621165
0.633,-0.0064,-1.434,0.005154953358425561,0.8564260958181589,0.009668049059896058,0.02709553984406303
0.6339999999999999,-0.0053,-0.434,0.005142793978994923,0.8420395148809405,0.009581390964999895,0.024927714935736995
0.635,-0.0129,-0.434,0.005173166075714091,0.8512317144253526,0.009797848396458383,0.026312830636377724
0.6359999999999999,-0.0063,0.566,0.005160287257842514,0.8499281588198044,0.009706062970431346,0.026116405903953303
0.637,-0.0089,0.566,0.0051567613284782465,0.8486226008457001,0.009680934194477865,0.025919679446994703
0.6379999999999999,-0.0034,1.566,0.005232452819077069,0.8577442542440699,0.010220376228716656,0.027294164985177494
0.639,-0.0055,-0.434,0.0052531286319947934,0.8433801590690351,0.010367729682739555,0.025129728317292807
0.6399999999999999,0.001,-0.434,0.005247629544203904,0.8420644489720532,0.010328538499148025,0.024931472099723104
0.641,0.0065,0.566,0.005263774323842337,0.843380159069033,0.010443599950595102,0.02512972831729249
0.6419999999999999,0.0116,-1.434,0.005262063007504692,0.8525579040357937,0.010431403652714034,0.02651266594702056
0.643,0.0065,-0.434,0.005237708445342928,0.8525579040357842,0.010257832298106022,0.026512665947019138
0.6439999999999999,0.0036,0.566,0.005272085073304878,0.8538574449066962,0.010502829430166108,0.02670848572391016
0.645,0.0,-0.434,0.005223477270306577,0.8538574449066955,0.010156408823016778,0.026708485723910044
0.6459999999999999,0.0036,0.566,0.005148738944035266,0.8525579040357829,0.009623759849658785,0.026512665947018937
0.647,0.0047,-0.434,0.005103075772502321,0.8538574449066941,0.009298325194499413,0.026708485723909842
0.6479999999999999,0.0018,0.566,0.0051487389440352405,0.8538574449066937,0.009623759849658605,0.026708485723909776
0.649,-0.0022,0.566,0.005133094840721251,0.855155010925674,0.009512266644163828,0.026904007922576592
0.6499999999999999,-0.0047,-0.434,0.0051344570897463564,0.8564506110687248,0.009521975191048413,0.02709923389555744
0.651,-0.0066,1.566,0.005149657720804328,0.8577442542440583,0.009630307835507565,0.027294164985175756
0.6519999999999999,-0.0026,-0.434,0.005120551689656733,0.8705990823435289,0.009422873465716986,0.029231179531431794
0.653,-0.0077,-0.434,0.005113636770456392,0.8718717329206713,0.009373591861529805,0.02942294737625638
0.6539999999999999,-0.0062,-1.434,0.005195097358958127,0.88201063609085,0.009954149401406672,0.030950715991421785
0.655,0.0021,-0.434,0.005215735462720871,0.8512317144253336,0.010101234107871407,0.02631283063637486
0.6559999999999999,-0.004,-0.434,0.005251449052684119,0.8731425285454777,0.010355759569945534,0.029614435709785312
0.657,0.0036,0.566,0.005247717596095834,0.8718717329206677,0.010329166031930447,0.02942294737625583
0.6579999999999999,-0.0011,0.566,0.005245451628202356,0.8718717329206677,0.010313016814623365,0.02942294737625583
0.659,0.0072,1.566,0.005227795354402658,0.8718717329206677,0.010187183168327929,0.02942294737625583
0.6599999999999999,0.0018,0.566,0.005242608635718105,0.8731425285454777,0.010292755228586453,0.029614435709785312
0.661,-0.0048,-1.434,0.005245268836516775,0.8832668445413809,0.010311714085374254,0.031140006273872818
0.6619999999999999,0.0014,0.566,0.0052109831152443815,0.883266844541381,0.010067364831816125,0.031140006273872835
0.663,0.0054,0.566,0.005221748351385622,0.883266844541381,0.010144087074133576,0.031140006273872835
0.6639999999999999,0.0122,0.566,0.0052268176983435305,0.883266844541381,0.010180215558506149,0.031140006273872835
0.665,0.0061,-0.434,0.005297548685189511,0.8820106360908501,0.010684304817761756,0.0309507159914218
0.6659999999999999,0.0039,0.566,0.005325223457789582,0.8907904631281036,0.010881538820030307,0.032273693829256336
0.667,0.0032,-1.434,0.005284369135945608,0.8895448795374402,0.010590376123819611,0.03208600454122982
0.6679999999999999,-0.0077,-0.434,0.005268723717034917,0.9166025958211598,0.010478873542262148,0.03616316447090575
0.669,-0.003400000000002731,0.566,0.0052673018864058865,0.9153921357415007,0.010468740366117784,0.03598076772753285
0.6699999999999999,-0.0157,-1.434,0.005297099567084122,0.9153921357415007,0.010681104019594516,0.03598076772753285
0.671,-0.010999999999998311,0.566,0.005300691370997316,0.9499357215910931,0.010706702273694035,0.0411859270460974
0.6719999999999999,-0.0034,-0.434,0.00529505159390266,0.9511022193452673,0.010666508418288024,0.04136169937852583
0.673,-0.0022999999999986456,-0.434,0.00529470794944476,0.9511022193452673,0.01066405931517276,0.04136169937852583
0.6739999999999999,0.0038,0.566,0.0053101776334758995,0.9428841628858221,0.010774309460291703,0.04012337127481869
0.675,0.0027000000000001554,1.566,0.0053067895976005,0.9440593737205302,0.010750163430794324,0.040300456527467145
0.6759999999999999,0.0034,-0.434,0.005291570163326651,0.9440593737205303,0.010641696778602692,0.04030045652746716
0.677,0.002700000000000866,-0.434,0.005402216484719763,0.9345938463302133,0.011430256710784402,0.03887415474410966
0.6779999999999999,0.0066,-0.434,0.005412207667671291,0.9345938463302133,0.011501462390751657,0.03887415474410966
0.679,0.0015999999999998225,1.566,0.005420509622854038,0.9357794687248725,0.01156062919479409,0.03905280885033737
0.6799999999999999,0.0008,0.566,0.005402674520825026,0.9487456598395637,0.011433521066214888,0.04100660400063791
0.681,-0.003199999999999201,-0.434,0.005515495837864446,0.9615370195898928,0.012237581869982325,0.042934054893878706
0.6819999999999999,0.0004,-1.434,0.005468236804822629,0.9603831962050937,0.011900773746393428,0.0427601923837874
0.683,0.001800000000000977,-0.434,0.005538413930954727,0.9695969920871297,0.012400915722436378,0.04414856230298318
0.6839999999999999,0.0062,-1.434,0.005507134052415399,0.9615370195898929,0.012177988664500221,0.04293405489387872
0.685,-4.884981308350142e-16,-0.434,0.005489571972046659,0.9626894600703366,0.012052826320825546,0.04310770902266522
0.6859999999999999,-0.0022,-0.434,0.005471254564637373,0.9638405226069396,0.011922280873290135,0.04328115551761619
0.687,-0.009099999999999046,-1.434,0.005485106257697827,0.9626894600703366,0.01202099983658531,0.04310770902266522
0.688,-0.0048,-0.434,0.005444216053637087,0.9615370195898928,0.011729581413134313,0.042934054893878706
0.6890000000000001,-0.0007999999999988676,-0.433999999999889,0.005437934125277479,0.9499136189954914,0.011684811040844905,0.04118259654265861
0.69,0.0043,0.5659999999997779,0.005411243151612975,0.9510801438584522,0.011494588427768003,0.04135837295994243
0.6910000000000001,0.002099999999999933,-1.434000000000111,0.005453617583532789,0.952245239699583,0.011796584723173147,0.0415339340467644
0.692,0.0018,-2.433999999999667,0.005430432995246726,0.952245239699583,0.011631351598959613,0.0415339340467644
0.6930000000000001,0.007899999999998802,0.566,0.005346441765179699,0.9428618949873935,0.011032758551747504,0.0401200158629192
0.694,0.0025,0.5659999999998889,0.005307375146923145,0.9440371335429136,0.010754336554024638,0.040297105292645394
0.6950000000000001,0.0032000000000001554,-0.433999999999889,0.005367308490880718,0.9428618949873936,0.011181472612879181,0.04012001586291922
0.696,0.0039,0.5659999999998889,0.005421572779746324,0.9522452396995831,0.01156820615638056,0.04153393404676442
0.6970000000000001,0.00789999999999838,-0.433999999999889,0.005411607127095231,0.9603831962050938,0.011497182427080312,0.042760192383787414
0.698,0.0006,0.566,0.0054414685242522,0.9615370195898929,0.011710000178456697,0.04293405489387872
0.6990000000000001,-0.0019000000000005772,0.566,0.005453719342378594,0.9695969920871297,0.011797309943384147,0.04414856230298318
0.7,-0.0045,0.566000000000111,0.005518914131758959,0.9684527714740182,0.012261943543896977,0.04397614677516961
0.7010000000000001,-0.005299999999998135,1.565999999999889,0.005538536337284031,0.996727474086223,0.012401788094201827,0.04823668684829279
0.702,0.0031,0.5659999999997779,0.005547417513415937,0.9843934907448838,0.012465082920094754,0.04637815517750074
0.7030000000000001,-0.009299999999998955,-1.433999999999778,0.005563143545078345,0.9843934907448838,0.012577160016785,0.04637815517750074
0.704,-0.0046,0.566,0.005550098980795582,0.9855192038258818,0.012484193340652953,0.04654778191975905
0.7049999999999998,-0.0061,-2.434,0.005576157593689902,0.9775905145238494,0.012669909212251498,0.04535305676342546
0.706,-0.0024,-0.434,0.00571192241236158,0.9775905145238494,0.013637484951385516,0.04535305676342546
0.7069999999999999,-0.0013,0.566,0.005697611912026606,0.9787240523128605,0.013535496136650858,0.045523862562542754
0.708,-0.0024,1.566,0.0057080210629846485,0.9775905145238494,0.013609680612647852,0.04535305676342546
0.7089999999999999,0.0041,0.566,0.005707234071966652,0.9775905145238494,0.013604071844313167,0.04535305676342546
0.71,0.0048,-1.434,0.005662429017293932,0.9661602649655502,0.013284752860823517,0.0436307031473025
0.7109999999999999,0.0027,-0.434,0.005674202793423876,0.9989498338633962,0.01336866281815111,0.0485715604990401
0.712,0.0034,-0.434,0.00565530619495848,0.9911285908261912,0.013233989561808532,0.04739302575585721
0.7129999999999999,-0.0031,-0.434,0.005676214297805939,0.9911285908261912,0.013382998511729822,0.04739302575585721
0.714,0.0092,-0.434,0.005718247037906827,0.9900092560498661,0.013682559620188241,0.04722436012088374
0.7149999999999999,-0.0075,-1.434,0.0056306772817341704,0.9888886542860662,0.013058462947843042,0.04705550357140332
0.716,-0.0009,-0.434,0.0056216867223322494,0.9900092560498661,0.012994388563597893,0.04722436012088374
0.7169999999999999,0.0009,2.566,0.005694287933829203,0.9888886542860662,0.01351180663672971,0.04705550357140332
0.718,-0.0009,-0.434,0.005690003433088051,0.9798562787799083,0.013481271635011293,0.0456944707666632
0.7189999999999999,-0.0056,-0.434,0.005638169400215855,0.9798562787799083,0.013111858165753852,0.0456944707666632
0.72,0.002,2.566,0.00597406169483883,0.9798562787799083,0.015505712762394238,0.0456944707666632
0.7209999999999999,-0.0016,0.566,0.006024014812853156,0.9707398639971018,0.015861721230255456,0.04432077460306166
0.722,-0.0004,-0.434,0.005947767121334004,0.9695969920871297,0.015318315234499533,0.04414856230298318
0.7229999999999999,0.005,0.566,0.00596459808623361,0.9695969920871297,0.0154382670265942,0.04414856230298318
0.724,-0.0015,0.566,0.005972405914695165,0.9707398639971018,0.015493912262735898,0.04432077460306166
0.7249999999999999,0.0011,-0.434,0.005987344514682637,0.9695969920871297,0.015600377450594768,0.04414856230298318
0.726,0.012,-0.434,0.006133062009016904,0.958071380730949,0.016638884433955458,0.04241183920729782
0.7269999999999999,0.0044,0.566,0.006123947441798777,0.958071380730949,0.01657392626438508,0.04241183920729782
0.728,-0.0046,0.566,0.006120171273508961,0.9707398639971018,0.01654701407270051,0.04432077460306166
0.7289999999999999,0.0092,1.566,0.00611703250269605,0.9832451355234443,0.016524644518356547,0.0462051166311285
0.73,-0.0111,1.566,0.006205431490264931,0.971881391961907,0.017154650999951043,0.044492784392354524
0.7309999999999999,0.0023,-0.434,0.00621819005329203,0.9707398639971018,0.01724557938752608,0.04432077460306166
0.732,0.0092,-1.434,0.0062270733019602524,0.9707398639971018,0.017308888984078133,0.04432077460306166
0.7329999999999999,0.0027,0.566,0.006233965563831546,0.9615370195898928,0.01735800911283954,0.042934054893878706
0.734,-0.003,0.566,0.006278305420459983,0.9615370195898929,0.017674012698820882,0.04293405489387872
0.7349999999999999,-0.0121,0.566,0.0062684833173382365,0.9615370195898929,0.017604012025738868,0.04293405489387872
0.736,-0.0074,-0.434,0.006311405958051999,0.9626894600703367,0.017909915323961047,0.04310770902266524
0.7369999999999999,-0.0059,-0.434,0.006331756281541952,0.9638405226069396,0.018054949063077405,0.04328115551761619
0.738,-0.0022,0.566,0.006303729793900196,0.9557320053219016,0.0178552084398392,0.04205933319466081
0.7389999999999999,0.0014,0.566,0.0062906343893254415,0.9557320053219016,0.017761879432481864,0.04205933319466081
0.74,0.0069,0.566,0.0063018437150984645,0.9568914371470395,0.0178417666357805,0.042234040805941654
0.7409999999999999,-0.004,0.566,0.006306953069824044,0.9557320053219035,0.01787818024958317,0.0420593331946611
0.742,0.0066,-0.434,0.006315371382051041,0.9475541034547994,0.017938176313033127,0.04082705573813973
0.7429999999999999,0.0001,0.566,0.006314388541722529,0.9177657064585979,0.01793117175569187,0.036338426419660674
0.744,0.0088,-0.434,0.006266626369519496,0.9262066610503537,0.01759077783387804,0.03761034166442315
0.7449999999999999,0.0077,-1.434,0.0062678717148009246,0.93457138089963,0.017599653225109327,0.03887076956731141
0.746,-0.0013,-1.434,0.006269451779162662,0.9345713808996304,0.01761091410961273,0.03887076956731148
0.7469999999999999,0.0074,0.566,0.006271366309608308,0.9345713808996311,0.017624558684320415,0.03887076956731158
0.748,0.0041,-1.434,0.006226451873722394,0.9345713808996315,0.017304460157137196,0.03887076956731165
0.7489999999999999,0.0088,-0.434,0.0062341625211330695,0.9345713808996315,0.017359412798333796,0.03887076956731165
0.75,0.0067,-2.434,0.006231699094279813,0.9345713808996315,0.017341856320288434,0.03887076956731165
0.7509999999999999,0.0074,-0.434,0.006215096683963168,0.9333842239442129,0.017223533402829366,0.03869188422761352
0.752,-0.0049,-0.434,0.006202200049923939,0.921405748310288,0.017131621003616246,0.03688692181463176
0.7529999999999999,-0.0067,0.566,0.006218630370397617,0.9333842239442162,0.017248717462272252,0.03869188422761401
0.754,-0.0082,0.566,0.006163344077229962,0.9238093233977753,0.01685470024559524,0.03724910167977312
0.7549999999999999,-0.0125,-0.434,0.006161154112045072,0.9238093233977752,0.016839092688326875,0.0372491016797731
0.756,-0.0002,0.566,0.006139016726731909,0.9031285747253033,0.016681322824481086,0.034132847561393
0.7569999999999999,-0.0049,-0.434,0.0062552862041052116,0.9165567824541819,0.01750995815584965,0.036156261137966376
0.758,-0.0006,0.566,0.006284015431742571,0.9165567824541818,0.017714707102873924,0.03615626113796636
0.7589999999999999,0.0005,0.566,0.00634849860592707,0.9043554494633512,0.018174269127363925,0.03431771772812287
0.76,0.0041,2.566,0.006352610023096548,0.9043554494633511,0.018203570588122078,0.03431771772812286
0.7609999999999999,-0.0014,0.566,0.006358229071131648,0.894469862802969,0.01824361671059317,0.032828119811195176
0.762,0.0051,0.566,0.006369705025191215,0.8944698628029691,0.018325404134169422,0.0328281198111952
0.7629999999999999,-0.0087,-0.434,0.006361039085929066,0.8957085976764233,0.018263643269544085,0.033014777108381
0.764,-0.0069,-0.434,0.006391126222935073,0.8957085976764233,0.018478069835364607,0.033014777108381
0.7649999999999999,-0.0051,0.566,0.006391079559572092,0.8957085976764237,0.018477737272493248,0.03301477710838107
0.766,-0.0098,-0.434,0.0063503283916842524,0.8957085976764203,0.01818730973923808,0.03301477710838055
0.7669999999999999,-0.0022,-0.434,0.006356461711932866,0.89694562178549,0.018231021003547645,0.033201176621061396
0.768,-0.0011,-0.434,0.006359866701077662,0.869276263615511,0.018255287856483136,0.02903185215821425
0.7689999999999999,-0.02,0.566,0.00638599598711261,0.8705508480117895,0.018441507405079514,0.02922391139828484
0.77,-0.0175,-0.434,0.0065777642827769284,0.8718235689993399,0.019808211623707703,0.029415689852818352
0.7709999999999999,-0.0055,-0.434,0.006581475765488889,0.832720641029535,0.01983466281086682,0.023523511467186457
0.772,0.0057,-0.434,0.00663216441860369,0.831388061922913,0.020195913328365525,0.02332271336287964
0.7729999999999999,0.0039,0.566,0.0066321043519188515,0.8313880619229126,0.020195485242005977,0.023322713362879575
0.774,0.0057,-0.434,0.006615904303904058,0.8313880619229125,0.02008002990103265,0.023322713362879558
0.7749999999999999,0.0136,0.566,0.006699312457177038,0.8313880619229109,0.020674467446359278,0.023322713362879326
0.776,-0.0002,-0.434,0.006711320131895413,0.8420145800514552,0.020760044364257345,0.024923957660490083
0.7769999999999999,0.0016,1.566,0.006606109460183595,0.8420145800514552,0.020010223501663104,0.024923957660490083
0.778,0.0063,1.566,0.0066024100291278975,0.8406967327940119,0.019983858204871835,0.024725379407427604
0.7789999999999999,0.0106,0.566,0.006586713954334432,0.8393768164786454,0.019871994606346227,0.02452648938082266
0.78,0.0041,-0.434,0.006522981512989548,0.8577197759682418,0.019417782943527903,0.027290476505177658
0.7809999999999999,-0.0046,-0.434,0.0064288724296118925,0.8538328552011224,0.018747081455474757,0.026704780453251066
0.782,0.003,-0.434,0.006428203030204293,0.8538328552011218,0.01874231074511753,0.026704780453250983
0.7829999999999999,0.0077,-0.434,0.006385191488303114,0.8446689633213139,0.018435773861309884,0.02532393025952209
0.784,0.0051,-1.434,0.006380716769068314,0.84335526387733,0.01840388320058209,0.025125977014817853
0.7849999999999999,-0.0073,0.566,0.006383864576491328,0.842039514880922,0.01842631715750682,0.0249277149357342
0.786,-0.0055,0.566,0.006294436612589964,0.842039514880922,0.017788977314109205,0.0249277149357342
0.7869999999999999,-0.0069,0.566,0.0063453777029211155,0.842039514880922,0.01815202691423171,0.0249277149357342
0.788,-0.0026,-0.434,0.00634444808096627,0.842039514880922,0.018145401636351362,0.0249277149357342
0.7889999999999999,0.0039,0.566,0.006348795217694752,0.8407217067092988,0.018176383035467352,0.024729142572272232
0.79,0.005,-0.434,0.0063742423897400055,0.8407217067092988,0.018357741258764514,0.024729142572272232
0.7909999999999999,0.0039,0.566,0.006343724116734047,0.8394018296641328,0.018140242050576835,0.024530258463050944
0.792,0.0014,-0.434,0.006343114094597668,0.8705990823435243,0.018135894513230486,0.029231179531431107
0.7929999999999999,-0.0012,-1.434,0.0063263128668655895,0.8718717329206681,0.018016154653521042,0.029422947376255896
0.794,0.0028000000000001552,-1.434,0.006367736580805969,0.8845212689103588,0.018311375322805523,0.03132902772410817
0.7949999999999999,0.0035,-0.434,0.006355992434577099,0.8845212689103588,0.018227676533391034,0.03132902772410817
0.796,0.0041999999999985565,0.566,0.006389328450843363,0.8744114773054467,0.018465257380139096,0.029805645750673737
0.7969999999999999,-0.0023,-0.434,0.006388237882211264,0.8654655074703431,0.01845748505914604,0.028457632882133165
0.798,-0.0030999999999991117,0.566,0.0064555193370003094,0.8654655074703431,0.01893699001473365,0.028457632882133165
0.7989999999999999,0.0009,0.566,0.006444007964662774,0.8551304585322644,0.01885495017034014,0.026900308274256775
0.8,0.00019999999999917846,-0.434,0.00638863287803869,0.8551304585322644,0.01846030013586044,0.026900308274256775
0.8009999999999999,-0.0035,0.566,0.006409874313792999,0.8233472964525407,0.018611684700001064,0.022111100141868466
0.802,0.005499999999999755,1.566,0.006373504493170308,0.8340762639513282,0.018352482379285905,0.023727781901488068
0.8029999999999999,0.0044,-0.434,0.006354426451636776,0.8340762639513282,0.018216516005090857,0.023727781901488068
0.804,-0.004299999999998312,0.566,0.006404296599422947,0.8340762639513281,0.018571933156434153,0.023727781901488054
0.8049999999999999,0.0033,-1.434,0.006415090713200811,0.8340762639513281,0.01864886120538747,0.023727781901488054
0.806,0.012299999999998645,1.566,0.006296325499321674,0.8354045550364851,0.017802439129868664,0.02392793387035938
0.8069999999999999,0.0062,0.566,0.006326224979548912,0.8354045550364851,0.018015528293642048,0.02392793387035938
0.808,0.009399999999998956,0.566,0.006307286213934651,0.8354045550364851,0.017880554518279676,0.02392793387035938
0.8089999999999999,0.0047,0.566,0.006309384883556021,0.8340762639513281,0.01789551142559899,0.023727781901488054
0.81,0.005499999999999822,-0.434,0.006359133750752142,0.8327458541465717,0.018250064228153635,0.023527310675863423
0.8109999999999999,0.0047,-0.434,0.006386382630233413,0.7931144587138091,0.018444262953291872,0.01755550079651951
0.812,-0.0004000000000014433,0.566,0.006394063090696356,0.7917152190858756,0.0184990004565864,0.017344658030514982
0.813,-0.0069,-0.434,0.006374093921625462,0.7917152190858756,0.018356683148518627,0.017344658030514982
0.8140000000000001,-0.009099999999998469,-0.434000000000111,0.0063389884336142064,0.8069994430664749,0.01810649153892134,0.019647743217618762
0.815,-0.0022,-1.433999999999778,0.006349483839444079,0.806999443066475,0.01818129074060487,0.01964774321761878
0.8160000000000001,-0.0028999999999998445,0.5659999999997779,0.006330478923721826,0.8069994430664749,0.018045845523227837,0.019647743217618762
0.817,-0.0022,-1.433999999999778,0.006257093124885732,0.8407217067092987,0.017522835812424264,0.024729142572272215
0.8180000000000001,-0.0058000000000024195,0.566,0.006276743588386586,0.8407217067092987,0.017662881753134026,0.024729142572272215
0.819,-0.0167,0.5659999999998889,0.006305739219706568,0.8551304585322643,0.017869529319717057,0.026900308274256757
0.8200000000000001,-0.002900000000001199,-0.434,0.006104735709000975,0.8551304585322644,0.016437007092365768,0.026900308274256775
0.821,-0.0083,-0.434,0.005888220747191248,0.8564260958181407,0.014893937052157163,0.027095539844060285
0.8220000000000001,-0.0003000000000003108,-0.433999999999889,0.005911706616649943,0.8577197759682386,0.015061317362631091,0.027290476505177172
0.823,-0.0017,0.566,0.005909798078927929,0.8590115078249579,0.015047715497176475,0.027485119590013974
0.8240000000000001,0.010699999999996714,0.5659999999997779,0.005998002246596525,0.8577197759682386,0.015676333526218528,0.027290476505177172
0.825,-0.0041,-1.433999999999889,0.005971420116247562,0.8590115078249579,0.015486886623318343,0.027485119590013974
0.8260000000000001,0.0016999999999988008,-0.434,0.005837514981576918,0.8590115078249579,0.014532564576410794,0.027485119590013974
0.827,-0.0037,-0.434,0.005972989336675881,0.8590115078249579,0.015498070224715605,0.027485119590013974
0.8280000000000001,0.000999999999999689,-0.43400000000022204,0.00608168788666903,0.8446689633213138,0.016272748678835304,0.025323930259522075
0.829,-0.0004,-2.433999999999889,0.006056188300657468,0.8314133154512265,0.016091016908969243,0.023326518660882
0.8300000000000001,-0.0014999999999992008,-1.433999999999889,0.005966131905211693,0.8300786376126653,0.015449198327102951,0.023125404311638766
0.831,0.0021,-0.433999999999889,0.005952829030106161,0.8300786376126653,0.015354390708024772,0.023125404311638766
0.8320000000000001,0.005399999999998557,0.5659999999998889,0.005934654445853495,0.8300786376126653,0.015224863139956833,0.023125404311638766
0.833,-0.0011,-0.434,0.005927782283097772,0.8314133154512267,0.015175886254612936,0.023326518660882017
0.8339999999999999,-0.0036,-0.434,0.005894276481241742,0.8327458541465717,0.014937095371132832,0.023527310675863423
0.835,-0.0058,0.566,0.0058765296490551075,0.8233472964525406,0.014810616328636585,0.02211110014186845
0.8359999999999999,-0.0109,-0.434,0.005859662926009115,0.8233472964525406,0.014690409693532821,0.02211110014186845
0.837,-0.0058,-0.434,0.00583343973077193,0.8233472964525406,0.014503520867971655,0.02211110014186845
0.8379999999999999,0.0033,-0.434,0.005798909615248528,0.8219995219505942,0.014257429852811566,0.021908012337415385
0.839,-0.0058,0.566,0.005796841296996364,0.8233472964525406,0.014242689255201798,0.02211110014186845
0.8399999999999999,0.0029,-0.434,0.005793733919142458,0.8233472964525406,0.01422054343382349,0.02211110014186845
0.841,0.004,-2.434,0.005953122342371466,0.8233472964525407,0.015356481101063824,0.022111100141868466
0.8419999999999999,0.0047,0.566,0.0060217822265613485,0.8219995219505942,0.01584580991867554,0.021908012337415385
0.843,0.0073,1.566,0.0061866535089690426,0.8233472964525407,0.01702082311059369,0.022111100141868466
0.8439999999999999,0.0079,-0.434,0.00620764798435506,0.813840207628692,0.017170447624794843,0.020678535723126727
0.845,0.0101,-0.434,0.0062339883569188775,0.8042207386846706,0.017358171555794482,0.019229037439085484
0.8459999999999999,0.0007,0.566,0.006232399301726081,0.805598257830303,0.017346846594970773,0.01943660727994132
0.847,0.0119,0.566,0.006245098334351986,0.8042207386846706,0.01743735071820031,0.019229037439085484
0.8479999999999999,0.0013,-0.434,0.006240842501885497,0.819271694560432,0.017407020031026097,0.021496972898106394
0.849,0.0024,-0.434,0.006232995203794484,0.819271694560432,0.017351093500685578,0.021496972898106394
0.8499999999999999,0.0085,0.566,0.006232510737924763,0.8179172042567754,0.017347640784241315,0.02129287313102715
0.851,-0.0027,-1.434,0.0062325914848515235,0.8179172042567754,0.017348216255619744,0.02129287313102715
0.8519999999999999,0.0005,-0.434,0.0062680990932752895,0.8273774471435724,0.017601273717793287,0.02271837862523098
0.853,-0.0104,0.566,0.006379221211379522,0.8233472964525408,0.018393224582610893,0.02211110014186848
0.8539999999999999,-0.009,0.566,0.006364363527623546,0.8340762639513282,0.018287336072740204,0.023727781901488068
0.855,-0.0025,0.566,0.006352190582100718,0.8340762639513282,0.018200581294315815,0.023727781901488068
0.8559999999999999,-0.0061,0.566,0.006373587593546103,0.8233472964525407,0.018353074623346764,0.022111100141868466
0.857,-0.0007,-0.434,0.006256650067117004,0.809742683873714,0.01751967820537812,0.020061105209423547
0.8579999999999999,0.0018,-0.434,0.006231978496847582,0.8083722271319711,0.017343847580974892,0.01985459955853274
0.859,0.008,-0.434,0.0061633677284433286,0.806999443066475,0.016854868804287236,0.01964774321761878
0.8599999999999999,0.0072,0.566,0.006151506853532236,0.8206495339658112,0.016770338106856488,0.021704590996922832
0.861,0.0035,-0.434,0.006130725252198496,0.8206495339658113,0.016622230714472976,0.02170459099692285
0.8619999999999999,-0.0001,0.566,0.006113301766203838,0.8206495339658113,0.016498056112359438,0.02170459099692285
0.863,-0.0056,1.566,0.0061131553442322515,0.8206495339658112,0.016497012584671122,0.021704590996922832
0.8639999999999999,-0.0078,-0.434,0.0060833384941922225,0.8219995219505942,0.01628451231399424,0.021908012337415385
0.865,0.0016,0.566,0.006060104177639141,0.8219995219505937,0.01611892478379257,0.021908012337415298
0.8659999999999999,-0.0021,-2.434,0.006063615702639003,0.811110825088479,0.01614395090197599,0.020267261947874322
0.867,-0.0054,-0.434,0.006126649169844647,0.809742683873719,0.01659318107970836,0.0200611052094243
0.8679999999999999,-0.0061,1.566,0.006123794791127426,0.8000739509972966,0.016572838345676782,0.018604183648079937
0.869,-0.0123,0.566,0.006207984402549625,0.8000739509972965,0.01717284522740242,0.01860418364807992
0.8699999999999999,-0.0069,0.566,0.0060330714106695766,0.8000739509972973,0.0159262662604923,0.018604183648080037
0.871,-0.0076,0.566,0.006066944619243296,0.8000739509972973,0.016167675597191056,0.018604183648080037
0.8719999999999999,-0.0054,0.566,0.0060959950037176285,0.8340762639513374,0.016374713381389443,0.02372778190148946
0.873,-0.0109,-0.434,0.00609697703871068,0.8354045550364949,0.016381712199224237,0.02392793387036085
0.8739999999999999,0.0004,0.566,0.006115370033467969,0.8667456957548835,0.01651279634658505,0.028650536537468962
0.875,0.0051,0.566,0.006024438609883507,0.866745695754885,0.015864741568874085,0.0286505365374692
0.8759999999999999,0.0127,-0.434,0.006015553086839144,0.8564260958181537,0.015801415763180393,0.027095539844062242
0.877,0.0116,-0.434,0.00611041559966325,0.8577197759682516,0.016477486831222424,0.02729047650517913
0.8779999999999999,0.0029,0.566,0.006109810312927564,0.8590115078249709,0.016473173042374924,0.02748511959001593
0.879,0.0018,-0.434,0.006112857038417763,0.8590115078249699,0.0164948866033472,0.02748511959001578
0.8799999999999999,-0.0007,-0.434,0.006112793735021544,0.8273774471435879,0.016494435449425394,0.022718378625233304
0.881,0.0,-0.434,0.0061136370570025736,0.8165604671612178,0.016500445680184044,0.02108843480877152
0.8819999999999999,-0.0007,0.566,0.006115505550217501,0.8165604671612183,0.016513762154372197,0.021088434808771605
0.883,0.0044,0.566,0.006093133121975897,0.8152014720557405,0.016354317174414303,0.020883656240965644
0.8839999999999999,0.0022,0.566,0.006110553456411244,0.8152014720557405,0.016478469315831766,0.020883656240965644
0.885,-0.0058,0.566,0.006110572925354293,0.8485978594507775,0.016478608068103123,0.02591595131920576
0.8859999999999999,-0.0003,0.566,0.006106874365292397,0.8472902516704292,0.016452248978755572,0.025718915989621182
0.887,-0.0028,-0.434,0.006023647535376055,0.8472902516704292,0.01585910369811532,0.025718915989621182
0.8879999999999999,-0.0021,0.566,0.006042522173854527,0.8485978594507774,0.015993620448886074,0.02591595131920574
0.889,0.0034,0.566,0.006040486354697582,0.8485978594507769,0.015979111467510805,0.025915951319205675
0.8899999999999999,0.0146,-0.434,0.006013860102604745,0.8485978594507769,0.01578935011548191,0.025915951319205675
0.891,0.0099,-0.434,0.006038478284499285,0.8499034554307597,0.01596480024885077,0.026112683503035056
0.8919999999999999,0.0143,0.566,0.00602570376928578,0.8564015798658043,0.015873758172407708,0.02709184568682043
0.893,0.0053,0.566,0.006035160887911713,0.8564015798658051,0.01594115765508734,0.027091845686820545
0.8939999999999999,0.0064,0.566,0.006013542923823564,0.8564015798658051,0.015787089629321786,0.027091845686820545
0.895,0.0032,0.566,0.005962538644147408,0.8705508480117908,0.015423589688103586,0.029223911398285042
0.8959999999999999,0.0058,-0.434,0.0058773061950816935,0.871823568999342,0.01481615065706568,0.02941568985281867
0.897,-0.0004,1.566,0.00587872942602693,0.8718235689993412,0.014826293813056083,0.029415689852818554
0.8979999999999999,0.0004,0.566,0.005771568432924674,0.8705508480117885,0.014062573298995686,0.02922391139828469
0.899,-0.0003,-0.434,0.0057717939529474465,0.908026127619768,0.014064180546770616,0.034870829518384494
0.8999999999999999,0.0004,-0.434,0.0058149438227755295,0.94401489284134,0.014371703273209859,0.040293753978871784
0.901,-0.0075,-1.434,0.0057771158342978645,0.9440148928413379,0.014102108806327068,0.04029375397887147
0.9019999999999999,-0.013,-1.434,0.005778637936840022,0.9638187388806724,0.014112956605533631,0.043277873062625365
0.903,0.0001,-1.434,0.005809030527483384,0.9638187388806724,0.014329560094152169,0.043277873062625365
0.9039999999999999,0.0019,0.566,0.005724688971778558,0.962667650297249,0.013728470328045968,0.04310442264284012
0.905,-0.0061,-0.434,0.0056965014711281925,0.9626676502972483,0.01352758218896132,0.043104422642840014
0.9059999999999999,0.0016,0.566,0.005698974603738902,0.9615151836763276,0.013545207838501428,0.0429307645751067
0.907,0.0027,-0.434,0.005680901974767599,0.9615151836763276,0.013416406890611595,0.0429307645751067
0.9079999999999999,0.0016,-0.434,0.00568058855745564,0.9626676502972478,0.013414173211885084,0.04310442264283993
0.909,0.0027,1.566,0.005678257491056639,0.9638187388806707,0.013397560047178264,0.04327787306262511
0.9099999999999999,-0.002,-0.434,0.005623922564844277,0.9649684543580835,0.013010323081776673,0.043451116577557534
0.911,0.0006,-0.434,0.0057133768037358965,0.9649684543580835,0.013647850183135262,0.043451116577557534
0.9119999999999999,-0.0001,0.566,0.005799733262416873,0.9661168016316304,0.014263299864096477,0.04362415392631098
0.913,0.0035,0.566,0.005801530665673908,0.9661168016316304,0.014276109690691938,0.04362415392631098
0.9139999999999999,-0.0074,-0.434,0.0057739709549191566,0.9545491699782828,0.014079695717140102,0.041881099051917996
0.915,0.0031,-0.434,0.0057368854499139695,0.9545491699782829,0.01381539281991215,0.04188109905191801
0.9159999999999999,-0.0092,-0.434,0.0057445535037438916,0.9545491699782829,0.013870041902972089,0.04188109905191801
0.917,-0.0012,0.566,0.005744936178760222,0.9261839921810006,0.013872769171092038,0.037606925832694836
0.9179999999999999,-0.0117,0.566,0.0057440267850721385,0.9273803663335979,0.013866288057070601,0.03778720005483253
0.919,-0.008099999999999755,0.566,0.005711397844949959,0.9141111698713857,0.013633746437196118,0.03578774690263575
0.9199999999999999,-0.007,-0.434,0.005579713640994902,0.9128974062811939,0.012695252634304393,0.03560485237369107
0.921,-0.01019999999999798,-2.434,0.005537688154667796,0.9213829613236434,0.012395743222416532,0.036883488184539286
0.9219999999999999,-0.0011,0.566,0.005624111809844979,0.9213829613236434,0.013011671802846111,0.036883488184539286
0.923,0.0050999999999992674,-2.434,0.0056153064246859275,0.9201787896538499,0.012948917127982719,0.03670203900275867
0.9239999999999999,0.0018,0.566,0.0055075422387908446,0.9213829613236434,0.012180897748295203,0.036883488184539286
0.925,0.002600000000001843,-0.434,0.005545089749706601,0.9213829613236433,0.012448493293167643,0.036883488184539265
0.9259999999999999,0.0109,0.566,0.005522143346830023,0.9297910778449757,0.01228495768106283,0.03815045526355508
0.927,-0.003599999999998712,0.566,0.005386981579907177,0.9297910778449758,0.011321679802356287,0.0381504552635551
0.9279999999999999,0.0022,-0.434,0.005269923902370919,0.930982816666787,0.010487427085256138,0.03833003101636359
0.929,0.0004000000000003331,0.566,0.0052670040544911,0.930982816666787,0.010466617762206793,0.03833003101636359
0.9299999999999999,0.0019,-0.434,0.0052670040544911,0.9404846880412896,0.010466617762206793,0.03976180924993044
0.931,-0.0024999999999991787,-0.434,0.005277105927208046,0.9404846880412896,0.01053861231172536,0.03976180924993044
0.9319999999999999,0.0012,-0.434,0.005311689541681653,0.9416628934649726,0.010785084605973758,0.03993934573867163
0.933,0.004799999999999755,-0.434,0.005317761169852946,0.9404846880412897,0.010828356199992473,0.03976180924993045
0.9339999999999999,0.0037,-2.434,0.005313164768045239,0.9393050047516087,0.010795598325603792,0.03958405007070181
0.935,-0.005399999999999756,-0.434,0.005459728400710588,0.9475541034547921,0.011840135611432498,0.04082705573813863
0.9359999999999999,-0.0043,-0.434,0.005430522475922128,0.9557320053218947,0.011631989314470063,0.04205933319465978
0.937,-0.007499999999998956,0.566,0.0054304128884956615,0.9557320053218947,0.01163120830112507,0.04205933319465978
0.938,-0.0028,-0.433999999999889,0.005435196230565622,0.9557320053218947,0.011665298471053888,0.04205933319465978
0.9390000000000001,0.0014999999999983126,0.566,0.005569562425473428,0.9557320053218946,0.012622906425931725,0.04205933319465976
0.94,-0.0061,0.566000000000222,0.0055594707296116805,0.9545711652401343,0.012550984405351712,0.041884413381897787
0.9410000000000001,0.0004999999999986233,2.565999999999778,0.005367605918629661,0.9545711652401343,0.011183592336360109,0.041884413381897787
0.942,-0.0057,0.566000000000111,0.0054896599205378,0.9545711652401343,0.012053453116685873,0.041884413381897787
0.9430000000000001,0.005199999999999023,1.566,0.005316148072646364,0.9534089117578068,0.010816859895300108,0.04170928059254545
0.944,0.0008,1.565999999999889,0.00532132000795313,0.9534089117578068,0.010853719511628985,0.04170928059254545
0.9450000000000001,-0.00030000000000024424,0.566,0.005338397605889617,0.9615370195898859,0.010975429020820682,0.042934054893877666
0.946,-0.0014,0.5659999999998889,0.005336710524332719,0.9695969920871228,0.010963405440629835,0.04414856230298214
0.9470000000000001,0.003999999999999422,-0.43399999999966693,0.005323441893141108,0.9787240523128538,0.010868841872850414,0.045523862562541734
0.948,0.0014,2.566,0.005323783682854456,0.9661602649655434,0.010871277757476169,0.04363070314730148
0.9490000000000001,0.007499999999999511,2.565999999999778,0.00533182568576084,0.9661602649655433,0.010928591920176006,0.04363070314730146
0.95,0.0053,0.5659999999996669,0.005346311607716703,0.9673071973716474,0.01103183093880113,0.04380352729843014
0.9510000000000001,0.003100000000000644,-2.433999999999778,0.005356055495443793,0.9684527714740112,0.011101274182358784,0.043976146775168555
0.952,0.006,-0.434,0.005517488513850085,0.9603831962050853,0.01225178337637053,0.04276019238378613
0.9530000000000001,-0.003400000000000799,-0.433999999999889,0.0055344608305625135,0.9510801438584436,0.012372742561883518,0.04135837295994114
0.954,-0.007,0.5659999999998889,0.0056145299934151505,0.9510801438584404,0.012943383617401267,0.04135837295994065
0.9550000000000001,0.003100000000000244,-0.433999999999889,0.0056378953860009694,0.9499136189954798,0.01310990530705971,0.04118259654265685
0.956,0.0042,0.566,0.005650991164047285,0.9510801438584391,0.013203236976093508,0.04135837295994045
0.9570000000000001,0.0004999999999997557,0.566,0.0057209217428007405,0.9499136189954783,0.013701621845512994,0.04118259654265663
0.958,-0.0006,0.566,0.005811368434005243,0.9510801438584376,0.01434622200740073,0.041358372959940236
0.9590000000000001,-0.0012999999999969579,0.566,0.0059309646810580575,0.9510801438584376,0.01519856673316967,0.041358372959940236
0.96,0.0124,0.566,0.00602358774440157,0.9510801438584339,0.015858677576702594,0.04135837295993967
0.9609999999999999,0.0106,0.566,0.006038826951501232,0.9522452396995648,0.015967285146892995,0.04153393404676166
0.962,0.0015,0.566,0.006045289085919815,0.9522452396995649,0.01601333982105394,0.04153393404676167
0.9629999999999999,0.0,0.566,0.006097342383328969,0.951080143858434,0.01638431595616612,0.04135837295993968
0.964,-0.0043,-0.434,0.006087666474089045,0.9499136189954731,0.01631535718521049,0.041182596542655846
0.9649999999999999,-0.0033,0.566,0.006042392032636784,0.9499136189954732,0.015992692951717204,0.04118259654265586
0.966,-0.0022,0.566,0.00603751122301351,0.9592279849255663,0.015957908144982907,0.042586120740422846
0.9669999999999999,0.0054,0.566,0.005987577027532554,0.9603831962050693,0.015602034535212255,0.042760192383783716
0.968,0.0007,-0.434,0.006098552261678998,0.9592279849255653,0.016392938579834353,0.042586120740422694
0.9689999999999999,-0.0019,-0.434,0.006009071894008444,0.9592279849255653,0.015755225262541195,0.042586120740422694
0.97,-0.0012,-1.434,0.0059724748509473605,0.9580713807309235,0.015494403561187321,0.042411839207293967
0.9709999999999999,-0.0124,0.566,0.006010321775312797,0.9580713807309235,0.015764132981335516,0.042411839207293967
0.972,-0.0044,-0.434,0.0059895250407962465,0.9298136587734999,0.01561591773700121,0.03815385784402374
0.9729999999999999,-0.0,0.566,0.005988426281294848,0.9286204195219165,0.015608087040896744,0.03797405600073221
0.974,0.0065,0.566,0.0059681925414589165,0.9080492497886611,0.015463884176202158,0.03487431365501708
0.9749999999999999,0.0004,-1.434,0.00604805666958177,0.908049249788661,0.016033063979591707,0.03487431365501706
0.976,0.0036,-0.434,0.006047245898735736,0.9092694850980386,0.01602728573594733,0.03505818336730182
0.9769999999999999,-0.0029,0.566,0.005990731099335641,0.9092694850980385,0.015624513137445237,0.03505818336730181
0.978,-0.0022,0.566,0.00608827982817109,0.9092694850980385,0.016319728468839723,0.03505818336730181
0.9789999999999999,0.0018,-1.434,0.00608506807568092,0.9092694850980386,0.016296838784899532,0.03505818336730182
0.98,-0.0033,-0.434,0.006090727025998388,0.9092694850980386,0.016337169285022605,0.03505818336730182
0.9809999999999999,0.0061,0.566,0.006089191626598323,0.9092694850980387,0.01632622672108064,0.03505818336730184
0.982,-0.0026,-0.434,0.006083908770452004,0.9104880850506253,0.01628857658836935,0.035241806657785535
0.9829999999999999,-0.0037,-0.434,0.006095000732533372,0.9202016064593956,0.01636762735803362,0.03670547712607694
0.984,-0.0127,-1.434,0.006076502880680342,0.9298136587734933,0.01623579590969375,0.038153857844022754
0.9849999999999999,-0.0015,-1.434,0.006087331142321816,0.9006698115890512,0.016312967325409503,0.03376235175049107
0.986,-0.0,0.566,0.006110951540523144,0.9019000310436626,0.016481306402291854,0.033947725911874636
0.9869999999999999,-0.0036,-0.434,0.006134936347475074,0.9031285747252501,0.01665224256632579,0.03413284756138499
0.988,-0.0123,0.566,0.006090044565338328,0.9019000310436625,0.01633230548905508,0.03394772591187462
0.9889999999999999,-0.0,-0.434,0.006094310193370687,0.901900031043663,0.016362705987775308,0.033947725911874706
0.99,-0.0014,-0.434,0.006094310193370691,0.9141341381248502,0.01636270598777534,0.03579120784670428
0.9909999999999999,0.0152,-0.434,0.006097409856240396,0.9141341381248488,0.01638479682560479,0.035791207846704066
0.992,0.004,-0.434,0.0061081675856280914,0.8781834145028399,0.0164614655684024,0.030374015639588532
0.9929999999999999,0.0058,0.566,0.00621331749015949,0.8781834145028391,0.017210853352308916,0.030374015639588414
0.994,0.0077,-1.434,0.006205165459574185,0.8641591268571204,0.017152755038650096,0.028260782466773385
0.9949999999999999,0.0029,-1.434,0.0062051654595741855,0.8512070488675255,0.017152755038650103,0.02630911393601169
0.996,0.0044,-1.434,0.006229853183039885,0.8603013001642839,0.01732870078448892,0.027679470420969604
0.9969999999999999,0.0008,-0.434,0.0062594665628979895,0.8603013001642846,0.017539750953338294,0.027679470420969722
0.998,-0.0029,0.566,0.006253471037461128,0.8603013001642862,0.01749702173222765,0.027679470420969954
0.9989999999999999,-0.0039,0.566,0.006254454330840786,0.8219995219505646,0.01750402951839727,0.021908012337410916
1.0,-0.0032,0.566,0.006237415075734743,0.781823574158239,0.017382593272874836,0.015854147230761777
1.001,-0.0152,0.5659999999997779,0.006216334385611001,0.7804040905972144,0.017232354319016978,0.01564025403167736
1.002,-0.0137,-0.434,0.006208939135740512,0.7439527253786228,0.017179649469339954,0.010147623238566153
1.003,-0.0094,-1.433999999999778,0.006182820895151673,0.7439527253786229,0.0169935086400008,0.010147623238566168
1.004,0.0055,-0.434,0.006197193641848017,0.755809566696254,0.017095941075326568,0.011934257328667064
1.005,0.0073,0.5659999999997779,0.00624500586202485,0.766037197616523,0.01743669168163138,0.013475395779761173
1.006,0.0091,-0.434,0.006250029604918332,0.7660371976165236,0.017472495152596385,0.013475395779761257
1.007,0.0106,0.5659999999997779,0.0062574677510824645,0.764588406689164,0.017525505717799966,0.013257086434893789
1.008,0.012,-0.434,0.006359438491312205,0.7631368652835296,0.018252236068955482,0.013038362637465304
1.009,0.0109,1.565999999999778,0.006370164937903959,0.7973237772001189,0.018328681863903264,0.018189776966898042
1.01,0.0048,0.566,0.006369778867417949,0.7973237772001188,0.018325930396774194,0.018189776966898025
1.011,-0.0028,-0.434,0.006249039522788822,0.8301039309764516,0.017465438984012826,0.02312921561220216
1.012,0.008,-0.434,0.006200654647112488,0.8301039309764516,0.017120607146844075,0.02312921561220216
1.013,0.0004,-0.434,0.00621635900125802,0.8301039309764516,0.017232529751084667,0.02312921561220216
1.014,-0.0007,-0.434,0.006218051794794215,0.8301039309764516,0.017244594039705317,0.02312921561220216
1.015,-0.0018,-1.4339999999995559,0.006226739719858224,0.8446938197950559,0.017306511593881687,0.025327675727826623
1.016,-0.005,0.566,0.006244246096568019,0.8538574449066763,0.01743127694583566,0.02670848572390715
1.017,-0.0116,-0.43399999999977795,0.006241253493276364,0.8667699191315191,0.01740994910575022,0.028654186608285906
1.018,-0.0054,0.566,0.006279505203377733,0.8757025635076419,0.01768256337383964,0.03000019154582331
1.019,-0.0047,-0.434,0.006464028473293333,0.875702563507642,0.01899763336783991,0.030000191545823326
1.02,-0.0097,-0.434,0.006567034695159618,0.876967807973906,0.01973174344313635,0.030190843409602385
1.021,-0.0089,0.5659999999997779,0.006595512240912276,0.880752635924903,0.019934698690673533,0.030761155726455502
1.022,0.0001,-0.434,0.006515209722243998,0.8807526359249029,0.019362394542846533,0.030761155726455484
1.023,0.0012,-1.4339999999995559,0.006500559596015977,0.8820106360908393,0.019257985264712677,0.03095071599142018
1.024,0.01,0.566,0.00650057472859187,0.8820106360908393,0.019258093112338063,0.03095071599142018
1.025,0.0024,0.566,0.006486649339407609,0.8807526359249029,0.019158848927692006,0.030761155726455484
1.026,0.0071,0.566,0.006499826421348967,0.880752635924903,0.019252760037534622,0.030761155726455502
1.027,0.0115,0.566,0.006495530322732164,0.8820106360908394,0.019222142379475518,0.030950715991420196
1.028,-0.0008,-0.434,0.0065349722970937645,0.8945168073692464,0.01950323948452245,0.03283519359756116
1.029,-0.0026,0.566,0.006543658629751033,0.8932764198037286,0.019565145689852022,0.03264828726642927
1.03,-0.0012,-0.434,0.006556443873405361,0.8832668445413705,0.019656264226302626,0.031140006273871246
1.031,0.0003,0.566,0.006565106265119635,0.8845212689103479,0.01971799980808008,0.031329027724106534
1.032,0.0039,-1.434,0.006545220939963522,0.8832668445413705,0.019576280043165313,0.031140006273871246
1.033,0.0003,-1.434,0.006539862528829513,0.8845212689103479,0.019538091441255775,0.031329027724106534
1.034,-0.0051,0.566,0.006533712878262437,0.8945168073692464,0.01949426379318707,0.03283519359756116
1.035,-0.0076,0.566,0.006408136851908281,0.8982276928107799,0.01859930206668139,0.03339436397495703
1.036,-0.0069,0.566,0.006410210222554957,0.8895212763670025,0.018614078671957957,0.03208244792544921
1.037,-0.0014,-0.434,0.006425624614465906,0.8882739130588486,0.018723934758331895,0.031894490462800636
1.038,-0.0036,-0.434,0.006446625289315578,0.8882739130588486,0.018873603455191602,0.031894490462800636
1.039,0.0015,1.566,0.006340839446586693,0.8969924367816455,0.018119683434012598,0.03320823088330703
1.04,-0.0064,0.566,0.006345196853663798,0.8982276928107799,0.01815073802838092,0.03339436397495703
1.041,0.0037,0.566,0.00639959731445736,0.8982276928107799,0.018538442049028964,0.03339436397495703
1.042,0.0128,0.566,0.006372252872809765,0.8982276928107799,0.018343562266495885,0.03339436397495703
1.043,0.0041,-0.434,0.006378466587602813,0.8982276928107799,0.018387846490807273,0.03339436397495703
1.044,0.0008000000000010658,0.566,0.006363550174407591,0.8982276928107799,0.018281539424928165,0.03339436397495703
1.045,0.0056,-1.434,0.006317541938850702,0.8882739130588487,0.01795364554961675,0.03189449046280065
1.046,0.006299999999997979,0.566,0.006318001219411533,0.8920107701631108,0.01795691877409761,0.03245757434943263
1.047,-0.0028,-0.434,0.006313566075764845,0.8832430736011411,0.01792531016272026,0.031136424377898285
1.048,-0.0016999999999983125,0.566,0.006325453612483976,0.8832430736011411,0.01801003087490499,0.031136424377898285
1.049,0.0059,0.566,0.006320238309898492,0.8819868312938058,0.017972862186408742,0.030947128993774806
1.05,0.0011999999999998223,-0.434,0.006320870907917706,0.8819868312938058,0.017977370618725782,0.030947128993774806
1.051,0.0004,-0.434,0.006363619456398234,0.8944933353940603,0.01828203318740626,0.03283165675078163
1.052,-0.0017000000000008215,-0.434,0.006194223486075412,0.8932529152349244,0.01707477321538215,0.03264474550831902
1.053,-0.0054,-1.434,0.006114731513980782,0.8932529152349244,0.016508245712843476,0.03264474550831902
1.054,-0.010399999999998556,-1.434,0.0060777654405066795,0.8832430736011462,0.016244793986434997,0.031136424377899055
1.055,-0.0039,-0.434,0.006107862922370772,0.8969690295889844,0.016459294278525743,0.03320470379820556
1.056,0.005200000000001376,-0.434,0.006064680394440418,0.8969690295889858,0.01615153880263231,0.033204703798205774
1.057,0.0114,-0.434,0.006005027559068342,0.8969690295889858,0.015726401886888643,0.033204703798205774
1.058,0.0037999999999994228,-2.434,0.005924131802116287,0.8957320378065682,0.01514986981774502,0.0330183091566282
1.059,0.0012,0.566,0.0058024937268106895,0.9092694850980715,0.014282973284665466,0.035058183367306775
1.06,0.0004999999999983124,-2.434,0.005793351115972236,0.8957320378065723,0.014217815252369748,0.03301830915662882
1.061,-0.0071,0.566,0.0057835329294245565,0.8944933353940723,0.014147842492130589,0.03283165675078344
1.062,-0.004599999999998645,0.566,0.005778589405491956,0.8944933353940723,0.01411261072980945,0.03283165675078344
