time_sec,bts_raw,diy_raw,bts_rms,diy_rms,bts_norm_rms,diy_norm_rms
0.0,0.0165,-0.929,0.015626373387675824,0.9808861936150193,0.038740987511105836,0.004654756200414971
0.001000000000000112,-0.0081,2.071,0.015622443861626499,0.9866550652448716,0.03872824596360768,0.004809154993055111
0.0020000000000000018,-0.0262,4.071,0.01549075789701939,0.9866767313917223,0.03830125223667458,0.004809734868484753
0.0030000000000001137,-0.016400000000000647,2.071,0.015559722360894613,0.9866983970628229,0.03852487055122983,0.004810314731181362
0.0040000000000000036,-0.0193,1.071,0.01596039911694313,0.9867200622582047,0.039824070977570375,0.004810894581145774
0.0050000000000001155,-0.00039999999999951153,2.071,0.01599984899324216,0.9911364675497605,0.03995198779663481,0.0049290957977055514
0.006000000000000005,0.0018,-0.929,0.01599906922782954,0.991158035735729,0.03994945939552038,0.004929673051298047
0.007000000000000117,-0.004699999999998712,1.071,0.015871171717355248,0.9955547538170316,0.039534749788267855,0.005047347356931638
0.008000000000000007,0.0011,-1.929,0.01569035245582698,0.9955762262851507,0.038948440604813096,0.005047922048719793
0.009000000000000119,-0.0006999999999974909,0.07099999999999826,0.0157203646105113,1.001260463262673,0.039045755469158616,0.005200055669074304
0.010000000000000009,0.0106,-0.929,0.015720329723221207,1.0197792863580113,0.03904564234659416,0.005695695737097411
0.01100000000000012,0.0030000000000014434,-1.929,0.01573013978960624,1.0379677598445565,0.039077451634848256,0.006182494287399292
0.01200000000000001,0.0095,0.071,0.015723016556316013,1.0786550002740867,0.03905435444343927,0.00727145261430513
0.013000000000000123,0.013099999999996314,0.07099999999999826,0.015728095266241637,1.0839036408118068,0.03907082223699361,0.007411927877757443
0.014000000000000012,-0.0035,-0.929,0.015770291192722243,1.0839233630942646,0.03920764316520039,0.007412455727360447
0.015000000000000124,-0.025700000000003286,-0.929,0.015771401928692138,1.0891466154794687,0.03921124474334001,0.007552251499163897
0.016000000000000014,-0.0405,-0.929,0.015896178307478713,1.108556981580781,0.03961583403400782,0.00807175293428639
0.017000000000000126,-0.027199999999998465,0.071,0.015882044802565293,1.1501584896286736,0.039570005931099404,0.009185180832623608
0.018000000000000016,-0.0203,1.071,0.015877551130263592,1.1550822672925563,0.039555435130866866,0.009316961426006552
0.019000000000000128,-0.004699999999993339,1.071,0.015844429099636716,1.1599851452335554,0.03944803644686012,0.009448182656625548
0.020000000000000018,0.0253,-1.929,0.015808137227377346,1.1648673873498705,0.03933035950353785,0.009578851587484595
0.02100000000000013,0.029700000000000334,-0.929,0.01582602731111074,1.1686107333733913,0.03938836836994407,0.009679038962685502
0.02200000000000002,0.0312,1.071,0.01579677123604114,1.1734570887357985,0.039293505105155946,0.009808747416031669
0.02300000000000013,0.02720000000000242,1.071,0.01562895991301152,1.1782835108975669,0.03874937435852872,0.009937922374734596
0.02400000000000002,0.0381,-0.929,0.015540000710929659,1.1830902438114757,0.03846092280368566,0.010066570367976584
0.025000000000000133,0.03479999999999274,-2.929,0.015378583438483485,1.1878775264945025,0.0379375248625398,0.010194697792837538
0.026000000000000023,0.0021,-0.9289999999999966,0.015381885926543012,1.1878955225301546,0.037948233229896156,0.010195179440957877
0.027000000000000135,-0.010900000000002665,0.071,0.015302403497802283,1.205717215539489,0.037690510255584085,0.010672161433277733
0.028000000000000025,-0.0229,-1.929,0.015189052369971404,1.2093341225205219,0.0373229675135084,0.01076896477833283
0.029000000000000137,-0.041099999999996376,-0.929,0.015187809364403266,1.2093517992664384,0.03731893704920098,0.01076943788094326
0.030000000000000027,-0.0248,1.071,0.015186950208938715,1.209369475753983,0.037316151224645426,0.010769910976638592
0.030999999999999917,-0.0161,-0.929,0.015129008707090547,1.2268792769814696,0.037128275030762006,0.011238545458796755
0.03200000000000003,-0.0186,0.071,0.0151384402500876,1.2314963472277838,0.03715885695121995,0.011362117296983745
0.03299999999999992,-0.0067,1.071,0.015133750167796653,1.231513705864399,0.03714364928863412,0.011362581885677554
0.03400000000000003,0.0045,2.071,0.015087218437739802,1.2350550691268982,0.036992769451918796,0.0114573633693217
0.03499999999999992,0.0143,1.071,0.01493458455588712,1.2385863069726828,0.0364978517872839,0.01155187385506261
0.03600000000000003,0.0233,-0.929,0.014794577376733757,1.25360413106056,0.03604387639664566,0.011953812753347575
0.03699999999999992,0.0084,-0.929,0.01476545371315905,1.2536211835752427,0.035949442478127376,0.011954269148956184
0.038000000000000034,0.0102,2.071,0.014768091273964223,1.2571002696494713,0.035957994808829996,0.012047383838243485
0.038999999999999924,0.0084,-0.929,0.014790855835172152,1.2739542061447435,0.03603180924198672,0.012498464675722657
0.040000000000000036,-0.013,2.071,0.014828932189949977,1.273970986267103,0.03615527239679687,0.012498913780989489
0.040999999999999925,-0.01,0.071,0.014798463407268682,1.2784179937716675,0.03605647690928218,0.01261793403895699
0.04200000000000004,-0.0075,-0.929,0.014626746930023861,1.2828495857846998,0.035499683641196635,0.012736541714805616
0.04299999999999993,-0.0006,0.07099999999999305,0.014434511609162065,1.2828662495538914,0.03487635771312329,0.012736987705981898
0.04400000000000004,0.0059,-0.929,0.01443321078711831,1.3160035537125385,0.03487213977802143,0.01362387860626965
0.04499999999999993,-0.0039,2.071,0.014510893205305807,1.3160197976780292,0.03512402619095859,0.013624313361767844
0.04600000000000004,-0.0166,0.071,0.014565328483812,1.3321284995381009,0.03530053340275864,0.014055448647449127
0.04699999999999993,-0.0086,1.071,0.014637769297338751,1.3321445468784996,0.0355354238335053,0.01405587814044908
0.04800000000000004,-0.0129,0.071,0.014634836329567706,1.3321605940255905,0.035525913641259156,0.014056307628275318
0.04899999999999993,-0.0093,-0.929,0.014609238447315154,1.3354350842773286,0.035442912121870035,0.014143946489706044
0.050000000000000044,-0.0005,1.071,0.014552247589913038,1.338701565085728,0.035258118406944934,0.014231370985406245
0.050999999999999934,0.0005,0.071,0.01448024573813532,1.3396780797145247,0.035024651316291955,0.014257506543511135
0.052000000000000046,0.0154,0.071,0.014662658885311219,1.3236774079672802,0.03561612869800549,0.013829262589109088
0.052999999999999936,0.0356,0.071,0.014533450866236043,1.2641988233684007,0.035197169746843476,0.012237370406504484
0.05400000000000005,0.0113,-0.929,0.01444251868930399,1.2517551384171506,0.03490232079128317,0.011904326085926236
0.05499999999999994,0.0015,0.071,0.014321603461029574,1.2517551384171501,0.0345102513394027,0.011904326085926224
0.05600000000000005,0.0044,-0.929,0.014322607216028104,1.249663943924326,0.03451350603012869,0.011848357098300125
0.05699999999999994,0.0018,0.071,0.014329397372335738,1.2507099782320121,0.034535523214396624,0.011876353289675082
0.05800000000000005,-0.0101,1.071,0.014336488582604093,1.2507099782320121,0.034558516570674075,0.011876353289675082
0.05899999999999994,-0.0079,-1.929,0.014336560016597128,1.2402413736874158,0.034558748196474184,0.011596170264982934
0.06000000000000005,0.0059,-1.929,0.014340524497086678,1.2437406990823043,0.034571603084272116,0.011689826641947522
0.06099999999999994,0.0004,-2.929,0.014318988396334937,1.2552223659979254,0.03450177195267788,0.011997123393030454
0.062000000000000055,0.0052,1.071,0.014379891877967265,1.2552223659979254,0.03469925241069767,0.011997123393030454
0.06299999999999994,0.0128,0.071,0.014403533341703632,1.2552223659979254,0.034775910213532345,0.011997123393030454
0.06400000000000006,0.0038,1.071,0.014344269312435985,1.2552223659979251,0.03458374570453881,0.011997123393030449
0.06499999999999995,0.0201,2.071,0.014414559225192525,1.2665999564381485,0.03481166180708826,0.012301634628474502
0.06600000000000006,0.0045,3.071,0.014556048686008256,1.2799213511017185,0.03527044351837933,0.012658170080172644
0.06699999999999995,-0.0053,1.071,0.01399259665708517,1.2931055178766258,0.03344344181401623,0.013011032747713756
0.06800000000000006,-0.0035,1.071,0.01373331374792019,1.2974704693422838,0.032602713069349115,0.013127856847723704
0.06899999999999995,-0.005,1.071,0.013606165812986676,1.293105517876626,0.032190433972096116,0.013011032747713763
0.07000000000000006,-0.0093,-0.929,0.013725230869010277,1.2920938059825058,0.03257650421254049,0.012983955165653607
0.07099999999999995,-0.0056,1.071,0.013982587591321012,1.281963189337075,0.03341098726727309,0.012712818090829386
0.07200000000000006,0.003,1.071,0.013682726214493285,1.282982889878078,0.03243868222901808,0.012740109482021145
0.07299999999999995,-0.0002,1.071,0.013326847269646492,1.282982889878078,0.03128473938134615,0.012740109482021145
0.07400000000000007,0.0023,1.071,0.013047884845457693,1.3147853713152287,0.030380199512317168,0.013591275022167202
0.07499999999999996,-0.0038,0.071,0.01249005762325483,1.327623360739578,0.028571436328603643,0.01393487255635209
0.07600000000000007,-0.006,2.071,0.012007034756482921,1.299159244200144,0.02700522739591899,0.013173055426548955
0.07699999999999996,0.0037,-0.929,0.012046412570095538,1.299159244200144,0.027132910550635544,0.013173055426548955
0.07800000000000007,-0.0028,0.071,0.012019047556245258,1.3134684103114436,0.027044179080380766,0.013556027715243895
0.07899999999999996,-0.0018,0.071,0.011834201515734517,1.3134684103114436,0.026444813005324898,0.013556027715243895
0.08000000000000007,-0.0073,2.071,0.01115070410331649,1.3101553355760454,0.024228562333901783,0.013467356173928089
0.08099999999999996,-0.0066,1.071,0.01127531153317209,1.341313714327487,0.024632603805112036,0.014301282870260194
0.08200000000000007,0.0054,0.071,0.011302492025872815,1.342288328619309,0.024720736962755584,0.01432736756751164
0.08299999999999996,0.0101,-0.929,0.011168014457849306,1.3464938527895058,0.024284691419628975,0.014439924735699822
0.08400000000000007,0.0025,-0.929,0.011151799092322197,1.3580697456508768,0.024232112852272458,0.0147497433616298
0.08499999999999996,0.0014,-1.929,0.011153468096964261,1.3580697456508768,0.02423752462500397,0.0147497433616298
0.08600000000000008,-0.0022,0.07099999999998612,0.011237002714875296,1.3580697456508768,0.02450838688383455,0.0147497433616298
0.08699999999999997,-0.0033,-0.9289999999999584,0.011381478714497899,1.3548657396600399,0.02497685249226364,0.014663990949661213
0.08800000000000008,-0.0098,2.071,0.011364359399772652,1.3548657396600399,0.024921342855994635,0.014663990949661213
0.08899999999999997,-0.0106,0.071,0.01132115363274429,1.3390465621478318,0.024781247504576692,0.014240604529376541
0.09000000000000008,-0.0052,1.071,0.011290478231694809,1.3390465621478318,0.024681782053885992,0.014240604529376541
0.09099999999999997,0.006,1.071,0.01121925940799043,1.3230382529221552,0.024450853943574054,0.013812156164558663
0.09200000000000008,0.0074,0.071,0.011219259407990432,1.3230382529221552,0.02445085394357406,0.013812156164558663
0.09299999999999997,-0.0002,-2.929,0.011260641963433031,1.3197492023667292,0.02458503750391909,0.013724127609362133
0.09400000000000008,-0.015,0.071,0.011347728099206112,1.3197492023667292,0.024867415612997712,0.013724127609362133
0.09499999999999997,-0.0132,2.071,0.011343852126323847,1.319749202366729,0.024854847712451684,0.013724127609362128
0.09600000000000009,-0.015,0.071,0.011411807625852134,1.3078341709464958,0.02507519444489015,0.013405232237166017
0.09699999999999998,-0.0103,0.071,0.011423751489790666,1.3121501275188052,0.025113922603903237,0.013520745031800506
0.09800000000000009,0.0002,-0.929,0.011474830690351821,1.3121501275188052,0.025279547682334667,0.013520745031800506
0.09899999999999998,0.0068,-0.929,0.011404632827501659,1.3121501275188052,0.025051930052995365,0.013520745031800506
0.10000000000000009,0.0079,1.071,0.01136684721534477,1.3121501275188052,0.024929409635519924,0.013520745031800506
0.10099999999999998,0.0245,0.071,0.011379315560945985,1.3078341709464956,0.02496983843423691,0.013405232237166012
0.10200000000000009,0.0177,1.071,0.011397510103211316,1.3078341709464956,0.025028834512026178,0.013405232237166012
0.10299999999999998,-0.0026,1.071,0.011321547119288938,1.3111531109077224,0.02478252339063409,0.01349406075611013
0.10400000000000009,-0.0051,1.0709999999999584,0.010766371368740006,1.3144636707762936,0.022982357643760148,0.013582664989219643
0.10499999999999998,0.0018,-1.929,0.01072682717842752,1.3144636707762936,0.02285413501008421,0.013582664989219643
0.1060000000000001,-0.0047,1.071,0.010754555445370533,1.3144636707762936,0.022944044333972426,0.013582664989219643
0.10699999999999998,-0.0065,1.071,0.01096173600707734,1.3154581782387866,0.02361583043095871,0.013609282109747331
0.1080000000000001,-0.0011,1.071,0.011030856469070087,1.3197492023667288,0.02383995457176352,0.01372412760936212
0.10899999999999999,0.0035,-0.929,0.011039567788130289,1.3295919455948462,0.023868201155240482,0.013987560004498835
0.1100000000000001,-0.007,-1.929,0.011031013740689665,1.3187579308739712,0.023840464527362697,0.013697597096728012
0.11099999999999999,-0.0135,-1.929,0.011030451663795647,1.3207397298681658,0.02383864198455401,0.01375063820972066
0.1120000000000001,-0.0125,0.071,0.011038955551689624,1.2877409092706358,0.023866215969345055,0.012867453700562562
0.11299999999999999,-0.0001,0.071,0.011061554174887037,1.2877409092706358,0.02393949234599924,0.012867453700562562
0.1140000000000001,0.0147,-1.929,0.01100500456406187,1.2877409092706358,0.023756129379756817,0.012867453700562562
0.11499999999999999,0.0328,2.071,0.011064376867814066,1.2867249793582718,0.023948644970399995,0.01284026322694129
0.1160000000000001,0.006,2.071,0.01092559255992811,1.273474757169382,0.023498634758295306,0.012485632644143848
0.11699999999999999,-0.0048,1.071,0.010943963228825414,1.2360480337716202,0.0235582019293459,0.011483939197684055
0.1180000000000001,-0.0081,0.07099999999998612,0.01093262849030242,1.2314653886075642,0.02352144886868233,0.011361288716649423
0.119,0.0187,-0.9289999999999723,0.010926884288765098,1.2268656262549986,0.023502823208537048,0.011238180109067897
0.1200000000000001,0.0368,1.071,0.010916466223698533,1.2268656262549986,0.023469042475385445,0.011238180109067897
0.121,0.0071,1.071,0.010876408533500205,1.227931081857076,0.023339154810582685,0.011266696094364075
0.12200000000000011,0.0031,1.071,0.01088267369274541,1.2233180303332323,0.023359469683955268,0.01114323181376152
0.123,-0.0012,3.071,0.010928708171035405,1.223318030333232,0.023508737174314714,0.011143231813761513
0.12400000000000011,-0.0048,2.071,0.010928735306019437,1.2186875173259424,0.02350882515990981,0.011019300191859868
0.125,0.005,1.071,0.01093125447399513,1.2140393430337253,0.023516993600076693,0.010894895881147615
0.1260000000000001,-0.0099,-0.929,0.010928731836960807,1.2140393430337253,0.02350881391143487,0.010894895881147615
0.127,-0.0073,-1.929,0.010997078639002046,1.1999867962093713,0.02373042944817501,0.010518791782735768
0.1280000000000001,0.009299999999995492,-1.929,0.01128415036191186,1.1999867962093713,0.02466126384064869,0.010518791782735768
0.129,-0.011,0.071,0.011280882263333208,1.2046891920861333,0.024650666981702887,0.01064464728663205
0.13000000000000012,-0.029899999999997335,3.071,0.011409058478991077,1.2093733038154308,0.025066280294717875,0.010770013431347869
0.131,-0.0179,1.071,0.011387610708334946,1.1963594984489991,0.024996735574791255,0.010421710337579382
0.13200000000000012,-0.006699999999997824,1.071,0.01138271231878269,1.1952659003855677,0.02498085247276798,0.010392441143972496
0.133,0.0031,2.071,0.011375962326605269,1.1952659003855677,0.024958965521298206,0.010392441143972496
0.13400000000000012,0.004900000000003308,2.071,0.011394325338962705,1.1952659003855677,0.02501850786590277,0.010392441143972496
0.135,0.0198,1.071,0.011408291071807285,1.1952659003855677,0.025063791965346856,0.010392441143972496
0.13600000000000012,0.02949999999999469,0.071,0.011494869981558515,1.1843073030178655,0.025344525386397306,0.010099143890858555
0.137,0.0056,-0.929,0.011492916921836648,1.1843073030178655,0.025338192560784106,0.010099143890858555
0.13800000000000012,0.002299999999999356,0.071,0.011512803725860507,1.1806318335678403,0.025402675822855894,0.010000773172652067
0.139,-0.0006,-0.929,0.011471096578303744,1.178414431609068,0.02526743976768369,0.009941426352823263
0.14000000000000012,-0.003100000000001532,0.071,0.011421902208043264,1.1941713008274415,0.0251079262799379,0.010363145146237937
0.14100000000000001,-0.01,0.071,0.011490062967221522,1.193075697018125,0.025328938569888066,0.01033382227060052
0.14200000000000013,-0.0122000000000004,0.071,0.011538811667809325,1.2517551384171497,0.025487006966996562,0.011904326085926212
0.14300000000000002,-0.014,0.07099999999997224,0.011565457589661637,1.266599956438148,0.02557340677059927,0.01230163462847449
0.14400000000000013,-0.0050000000000017765,-0.9289999999999445,0.01162601582621129,1.266599956438148,0.02576976776622991,0.01230163462847449
0.14500000000000002,-0.013,1.071,0.011536809578261429,1.2700266576717236,0.02548051516143277,0.012393347283418087
0.14600000000000013,-0.0173999999999992,1.071,0.011462348395244617,1.2576406373620803,0.025239073652134066,0.012061846306428219
0.14700000000000002,-0.0138,1.071,0.011423714736828645,1.3217000138283035,0.025113803431869405,0.0137763393682054
0.14800000000000013,-0.002599999999999667,0.071,0.011506745082065428,1.382794952392789,0.02538303057894596,0.015411491847932451
0.14900000000000002,-0.0011,-0.929,0.011778303656839005,1.3837403503792156,0.026263563354547107,0.015436794596378672
0.15000000000000013,0.005400000000000245,0.071,0.011848559727941126,1.3805959205067584,0.02649136972502155,0.015352636686998843
0.15100000000000002,0.0065,0.071,0.011925592079675687,1.3764945903517363,0.026741148287677773,0.015242868180298647
0.15200000000000014,-0.007899999999999602,-0.929,0.011677006929943359,1.4074139909460421,0.025935107189363944,0.01607039883572421
0.15300000000000002,-0.0061,-0.929,0.012009477929039548,1.4033910372588092,0.027013149419793037,0.01596272800648583
0.15400000000000014,0.00650000000000031,-0.929,0.012079489103795405,1.4033910372588092,0.027240161710170067,0.01596272800648583
0.15500000000000003,0.0079,0.071,0.012070814985129736,1.4033910372588092,0.027212035749533604,0.01596272800648583
0.15600000000000014,0.021699999999997957,1.071,0.012082774658637947,1.3931310569758557,0.027250815171314887,0.01568812862729316
0.15700000000000003,0.0125,1.071,0.012076819438352315,1.3890667383025035,0.027231505279694652,0.015579350700458548
0.15799999999999992,0.0111,-1.929,0.012059089387376772,1.3881249679166987,0.02717401532192012,0.015554145041563305
0.15900000000000003,0.0067,-0.929,0.012079743765420937,1.3881249679166983,0.027240987454332833,0.015554145041563293
0.15999999999999992,-0.0057,2.071,0.012074983075634444,1.3881249679166983,0.02722555084587747,0.015554145041563293
0.16100000000000003,-0.0043,0.071,0.012064963914130195,1.3745931774377296,0.027193063563544777,0.015191978530282198
0.16199999999999992,-0.0087,1.071,0.01199306736440483,1.3650749498893024,0.026959937916385207,0.014937231512867827
0.16300000000000003,0.0062,0.071,0.011953701608442672,1.3650749498893024,0.02683229385878217,0.014937231512867827
0.16399999999999992,-0.012,-0.929,0.011968015543978102,1.3682550494564134,0.02687870701070454,0.015022344090359853
0.16500000000000004,-0.0098,-0.929,0.01193210662064467,1.3545247717437991,0.02676227178505203,0.014654865242248316
0.16599999999999993,-0.0077,0.071,0.011493582707381687,1.338701565085726,0.025340351380458342,0.014231370985406193
0.16700000000000004,-0.0019,0.071,0.01147816376130988,1.3269567219433582,0.02529035521520091,0.013917030553293679
0.16799999999999993,-0.0001,0.071,0.011469579041596747,1.322689080418506,0.025262519132016777,0.013802810868555268
0.16900000000000004,-0.0016,1.071,0.011446743944490393,1.322689080418506,0.025188475985145255,0.013802810868555268
0.16999999999999993,-0.0002,1.071,0.011294944628694759,1.3193991594323013,0.024696264413541114,0.013714759017041896
0.17100000000000004,-0.0067,0.071,0.010680274161690788,1.3184076247526955,0.02270318615098823,0.013688221460442478
0.17199999999999993,-0.0104,1.0709999999999722,0.01065839999915584,1.3174153438082559,0.022632258848961744,0.013661663930718904
0.17300000000000004,-0.0003,0.071,0.010655625392702752,1.3131166930814322,0.022623262145678204,0.013546614311869919
0.17399999999999993,0.0033,0.071,0.010656338933621619,1.3360843088978143,0.022625575812872542,0.01416132241761481
0.17500000000000004,-0.003,0.07099999999997224,0.010681183942898334,1.3341253039627545,0.022706136130279213,0.01410889136763545
0.17599999999999993,0.0137,-0.929,0.010697056660403105,1.3298806669101564,0.022757603656253903,0.013995287377433031
0.17700000000000005,0.0256,-0.929,0.010722035983384302,1.3308636538451344,0.022838599487873694,0.014021596161139753
0.17799999999999994,0.0009,1.071,0.010726314103048919,1.3210303859044839,0.022852471355428526,0.013758417363766809
0.17900000000000005,0.0172,1.071,0.010695189395465302,1.310125573727671,0.02275154902152238,0.013466559624143209
0.17999999999999994,0.0023,1.071,0.011110402760935915,1.3101255737276711,0.024097884623222206,0.013466559624143216
0.18100000000000005,-0.0057,-0.929,0.010885517848056287,1.273776198387429,0.023368691900459444,0.012493700454125537
0.18199999999999994,-0.0036,0.071,0.010809619389499656,1.273776198387429,0.023122590003539258,0.012493700454125537
0.18300000000000005,0.012,-0.929,0.0108192594370023,1.2727491216550542,0.023153848003002204,0.01246621164563709
0.18399999999999994,0.0062,-0.929,0.01082289601098077,1.2558960346179509,0.02316563964899096,0.012015153543161244
0.18500000000000005,-0.0141,1.071,0.010916203792485198,1.2433692578300235,0.02346819153821701,0.011679885342406009
0.18599999999999994,-0.0007,0.071,0.010891624161012125,1.2423170426312937,0.023388491712342297,0.011651723724899945
0.18700000000000006,-0.0075,0.071,0.010698905517120256,1.2468598048154702,0.02276359860205224,0.01177330677293634
0.18799999999999994,-0.001,-1.929,0.010767519464808695,1.2433692578300228,0.022986080362583747,0.01167988534240599
0.18900000000000006,0.0009,-1.929,0.010875415135490014,1.2468598048154702,0.023335933702547638,0.01177330677293634
0.18999999999999995,0.0136,-0.929,0.010911960492219644,1.2468598048154702,0.023454432573088938,0.01177330677293634
0.19100000000000006,0.0122,-3.929,0.011006656238104751,1.2503406073595158,0.023761484957759017,0.011866467402033771
0.19199999999999995,0.0108,-1.929,0.010962449971527503,1.2873518748846764,0.023618145471459667,0.01285704153621888
0.19300000000000006,0.0119,-2.929,0.010901368439482645,1.2873518748846764,0.02342008768229107,0.01285704153621888
0.19399999999999995,-0.0044,-0.929,0.011337167150056547,1.291736268834084,0.02483317157605135,0.012974385997264656
0.19500000000000006,0.0021,1.071,0.011960909659726604,1.3048010590041421,0.026855666073815364,0.013324053654612988
0.19599999999999995,-0.0117,4.071,0.012180274415757232,1.336084308897814,0.027566959604714805,0.014161322417614804
0.19700000000000006,-0.0172,4.071,0.012070851564352093,1.366651659124434,0.027212154358213954,0.014979430753528535
0.19799999999999995,-0.0251,1.071,0.012038342005628108,1.3625083555469517,0.027106741623592456,0.014868538864966748
0.19900000000000007,-0.0145,0.071,0.012053771289503513,1.3780582338347962,0.027156771309334016,0.015284717727557554
0.19999999999999996,-0.0156,0.071,0.012181718434905382,1.4086431235941612,0.02757164185858803,0.016103295493691452
0.20100000000000007,0.0034,-2.929,0.012195218465014767,1.4117250834340254,0.027615415909887378,0.016185781447405175
0.20199999999999996,0.0332,0.071,0.012178430403245802,1.4117250834340254,0.027560980366326596,0.016185781447405175
0.20300000000000007,0.0133,1.071,0.01215710272354367,1.4086431235941612,0.02749182504313009,0.016103295493691452
0.20399999999999996,0.0024,1.0709999999999444,0.012238244556886133,1.4086431235941612,0.027754928661898073,0.016103295493691452
0.20500000000000007,0.0057,-0.9289999999999723,0.012506359040777156,1.4086431235941612,0.028624293920852882,0.016103295493691452
0.20599999999999996,0.0029,0.07099999999997224,0.012593610698843787,1.4218508968047587,0.028907208738465515,0.01645678996679229
0.20700000000000007,0.0003,-0.9289999999999445,0.012456994540318497,1.4209308554042586,0.028464228783372805,0.01643216586514283
0.20799999999999996,0.0072,1.0709999999999444,0.012398857943555096,1.4200102178981877,0.02827571999128342,0.01640752580925027
0.20900000000000007,0.0007,-0.929,0.012370732228002867,1.4098711846787875,0.02818452193428367,0.01613616347220105
0.20999999999999996,-0.005,0.071,0.012380992733375921,1.4200102178981877,0.028217791777752018,0.01640752580925027
0.21100000000000008,-0.0032,1.071,0.012389449975119274,1.4200102178981877,0.028245214511695933,0.01640752580925027
0.21199999999999997,-0.0079,0.071,0.012613164220677849,1.4527051436173093,0.028970611328008784,0.017282576838357787
0.21300000000000008,0.0059,-0.929,0.012700445869144294,1.4634411408541501,0.029253623389945266,0.017569916394082747
0.21399999999999997,0.0114,0.071,0.012689204522657666,1.5188452608984677,0.029217173154368583,0.01905275910423523
0.21500000000000008,-0.0067,0.071,0.012631974261585965,1.546648596276146,0.029031603169433068,0.01979689100543205
0.21599999999999997,0.0002,1.071,0.012653983769511925,1.5474938957125457,0.029102969330931816,0.019819514703925206
0.21700000000000008,-0.0019,0.071,0.01264380652538739,1.5474938957125457,0.029069969463317916,0.019819514703925206
0.21799999999999997,-0.0037,0.071,0.012695904129434265,1.5502998480343348,0.029238896730416047,0.01989461355834384
0.21900000000000008,0.0017,0.071,0.012711287235189193,1.5639837261684983,0.02928877668290529,0.02026085056240831
0.21999999999999997,0.0003,-0.929,0.012720235399645485,1.5631473439235604,0.02931779124115227,0.02023846552472853
0.22100000000000009,0.0018,-0.929,0.012722774138675962,1.5731297967007016,0.029326023140759553,0.020505637123486617
0.22199999999999998,-0.0018,0.071,0.012719766967432128,1.5731297967007019,0.029316272342633405,0.02050563712348662
0.2230000000000001,0.0018,-3.929,0.012696963647382238,1.5722982797048952,0.029242332233346883,0.02048338229993535
0.22399999999999998,-0.0087,-1.929,0.012711338535915228,1.5841421664289963,0.029288943026283414,0.020800373546699252
0.2250000000000001,-0.0076,0.071,0.012710825809583187,1.5958981566985204,0.02928728050341647,0.021115012321899423
0.22599999999999998,-0.0123,1.071,0.012895301040391929,1.5986191504237104,0.029885444222419344,0.021187837333948006
0.2270000000000001,-0.0079,1.071,0.012899522394434482,1.5986191504237104,0.029899132026588237,0.021187837333948006
0.22799999999999998,0.0044,-0.929,0.013012355439400632,1.5994369837558604,0.03026499487715892,0.021209725926235518
0.2290000000000001,0.0321,0.071,0.013099934744190713,1.5958981566985204,0.030548972094215417,0.021115012321899423
0.22999999999999998,0.0201,0.071,0.01298794853541866,1.605677011421053,0.030185855122779978,0.02137673479718373
0.2310000000000001,-0.0125,1.071,0.013004029351867773,1.6021519673719267,0.030237997412721204,0.021282390082981387
0.23199999999999998,-0.0081,-0.929,0.01303997515909005,1.612703984589442,0.030354552234939748,0.021564805574751315
0.2330000000000001,-0.0041,0.071,0.013103096004957475,1.6162060142082666,0.030559222529944346,0.021658534327899246
0.23399999999999999,-0.015,1.071,0.013096040230778549,1.6135146788347732,0.030536344075721474,0.021586503095637675
0.2350000000000001,-0.0183,-0.9289999999999445,0.013114971996997139,1.6143249659594257,0.030597730613301392,0.021608189720295917
0.236,-0.0212,1.0709999999999722,0.013042746472005384,1.6239928676481952,0.03036353825887743,0.021866942634884135
0.2370000000000001,-0.0133,0.07099999999997224,0.013090932402922258,1.627470605763593,0.030519781866837653,0.021960021247234843
0.238,-0.0154,-0.929,0.01307165666388648,1.627470605763593,0.03045727999220862,0.021960021247234843
0.2390000000000001,-0.0089,-0.929,0.013087621193876778,1.6186316168532067,0.03050904522155277,0.021723453456601205
0.24,-0.0147,-0.929,0.01309561341297089,1.609744094422817,0.03053496011254091,0.021485586708845292
0.2410000000000001,0.002,3.071,0.013056713990283722,1.6097440944228172,0.030408828147617417,0.0214855867088453
0.242,0.0041,0.071,0.01306146296236268,1.5609314537603416,0.03042422676122932,0.020179159166782597
0.2430000000000001,0.0342,1.071,0.01311944362539462,1.551713485728175,0.03061222993584193,0.01993244833213739
0.244,0.0385,2.071,0.013154521488560385,1.5265746685620398,0.030725970436362902,0.019259629925368327
0.2450000000000001,0.0265,3.071,0.01314893523448022,1.527431077201168,0.03070785692323034,0.019282550951935075
0.246,-0.0062,3.071,0.013151096496958002,1.5265746685620398,0.030714864849420667,0.019259629925368327
0.2470000000000001,-0.0106,0.071,0.013122012350188205,1.4714616083629446,0.030620559064738477,0.017784577176853368
0.248,-0.0066,2.071,0.013008204368164682,1.418194644443821,0.030251534966050767,0.01635893357713106
0.2490000000000001,-0.0176,3.071,0.01292716125916558,1.4291899061991185,0.029988751462455544,0.01665321212044191
0.25,-0.0078,-0.929,0.012857904389870679,1.4322276528293731,0.029764185018915576,0.016734514746354213
0.2510000000000001,0.0009,0.071,0.01278896461004393,1.435258970038796,0.029540646742759896,0.016815645294453473
0.252,0.0034,0.071,0.012859406679628926,1.404952499707287,0.02976905621612115,0.016004519180265873
0.2530000000000001,0.015400000000002488,-0.929,0.012538469431193749,1.408042537703121,0.028728412346215565,0.01608722133874346
0.254,0.0266,-0.929,0.012473008442721149,1.4191164597853674,0.028516154103508874,0.016383605156757727
0.2550000000000001,0.016799999999998778,-1.929,0.012475277407370039,1.4191164597853678,0.028523511255613882,0.01638360515675774
0.256,0.0113,-0.929,0.01250129901669001,1.431018777581442,0.02860788671641171,0.016702160259946985
0.2570000000000001,0.0032999999999976685,-0.929,0.012523279604548673,1.4349642783857004,0.028679159104155943,0.01680775813066157
0.258,-0.0072,-0.929,0.012538328857627203,1.4358753278567098,0.028727956534305262,0.01683214157119982
0.2590000000000001,-0.008299999999999778,-1.929,0.012518741840163626,1.4319323373313788,0.028664445334677956,0.01672661088590041
0.26,-0.0073,2.071,0.01253418061076985,1.4419162528534715,0.02871450578128732,0.016993821633745
0.2610000000000001,-0.02399999999999849,3.071,0.012617776781269161,1.4566186725246986,0.02898556762531401,0.017387319009276685
0.262,-0.0172,2.071,0.01269387640401794,1.4557206051447495,0.029232321800162116,0.017363283023026605
0.2630000000000001,0.0030999999999994227,4.071,0.012671340796640212,1.4557206051447495,0.029159249753253954,0.017363283023026605
0.264,0.0005,3.071,0.012738857251076442,1.4566186725246986,0.029378172875357725,0.017387319009276685
0.2650000000000001,0.012399999999998556,1.071,0.01285827603948422,1.4604950173143094,0.029765390098394417,0.017491065979875882
0.266,0.0059,0.071,0.013038740960190523,1.4604950173143092,0.030350550326388153,0.017491065979875875
0.2670000000000001,0.011699999999998802,-0.929,0.013052285049412355,1.4604950173143092,0.030394467240024314,0.017491065979875875
0.268,0.0063,2.071,0.013056210048706642,1.4604950173143092,0.030407194109450964,0.017491065979875875
0.26900000000000013,-0.004999999999998312,-0.929,0.013242576345804492,1.463467784800067,0.03101148963942605,0.017570629495941254
0.27,0.0026,2.071,0.013495418168319496,1.4673260358897489,0.03183133306345646,0.017673892204521344
0.27100000000000013,0.006200000000000222,0.071,0.013594117191479276,1.4682170045686513,0.03215136613508554,0.01769773820026007
0.272,0.0072,-0.929,0.013593873929768211,1.465253872527506,0.03215057735531742,0.01761843256842408
0.27300000000000013,0.0060999999999979794,-1.929,0.013598662266452097,1.4797244297035417,0.03216610360925468,0.018005724347504144
0.274,-0.003,-1.929,0.013598934856608024,1.4304275864660256,0.03216698748694773,0.016686337547933854
0.27500000000000013,-0.021899999999998244,-0.929,0.013570800109683737,1.4203629179105348,0.03207576014558783,0.016416965515932035
0.276,-0.014,-0.929,0.013555605100997325,1.4203629179105348,0.032026490100680996,0.016416965515932035
0.27700000000000014,-0.03069999999999654,1.071,0.01350026547170663,1.429513065074398,0.03184705051781861,0.016661861184483467
0.278,-0.0151,0.071,0.01352293183607116,1.4255524770299024,0.03192054654622916,0.016555859517008203
0.27900000000000014,-0.0014000000000011991,2.071,0.01355035243342038,1.4255524770299024,0.032009458246817814,0.016555859517008203
0.28,-0.0068,0.071,0.013167542989580063,1.4285979582491994,0.03076819284986949,0.0166373691524167
0.28100000000000014,0.011300000000000466,2.071,0.013052666850024786,1.4316369609162345,0.030395705234270196,0.016718705395052488
0.28200000000000003,0.0134,1.0709999999999444,0.013115591461014675,1.4307232125595966,0.030599739234723866,0.01669424972120602
0.28300000000000014,0.011199999999999601,0.0710000000000555,0.013131092399438632,1.427682264864687,0.030650001261420128,0.016612861421604026
0.28400000000000003,0.0094,1.0710000000000555,0.013230953041124446,1.442529766179465,0.03097380089864476,0.017010241780158353
0.2849999999999999,-0.0033,2.0709999999999447,0.013237910597398615,1.438605014540639,0.030996360879829675,0.016905199242669505
0.28600000000000003,-0.0112,1.0709999999999444,0.013110584095190118,1.4386050145406393,0.03058350277549357,0.01690519924266951
0.2869999999999999,0.0026,0.07099999999994448,0.012950485616554099,1.4376956948383948,0.03006438104317326,0.01688086209787608
0.28800000000000003,-0.0065,-0.929,0.012962360723302346,1.4407155071368343,0.030102886255959534,0.016961684727117152
0.2889999999999999,0.0047,-0.929,0.012886671921697707,1.4524408379901308,0.029857464174869196,0.01727550292991559
0.29000000000000004,0.0091,-0.929,0.012855625480653044,1.4640722670750927,0.029756795621396385,0.01758680793419136
0.2909999999999999,0.0127,0.071,0.01277330607675591,1.46110072947443,0.029489873712339337,0.01750727733492253
0.29200000000000004,0.0164,-0.929,0.012792392808124838,1.431636960916235,0.029551762726757122,0.016718705395052498
0.2929999999999999,0.0153,-0.929,0.012890126542732543,1.4346695262007778,0.029868665835693167,0.016799869346788378
0.29400000000000004,0.0023,1.071,0.012440110999817405,1.4346695262007778,0.028409483648582652,0.016799869346788378
0.29499999999999993,-0.0031,-0.929,0.011862432821206111,1.4197398256386786,0.026536353439231188,0.016400288997428805
0.29600000000000004,-0.0078,0.071,0.011622284260928534,1.3862676354685688,0.025757668109503907,0.015504435166578628
0.29699999999999993,-0.0002,1.071,0.011606799812167846,1.3551778493387423,0.025707459550789565,0.014672344291641227
0.29800000000000004,-0.0205,2.071,0.011557956896726609,1.3583811191584148,0.025549085660597427,0.014758077000633866
0.29899999999999993,-0.0057,-0.929,0.011555189402155708,1.3468079025732491,0.025540112017699172,0.014448330002890713
0.30000000000000004,-0.0082,-0.929,0.011481968269467013,1.3256518525511158,0.02530269139029754,0.01388210686775477
0.30099999999999993,0.0139,0.071,0.01147381736925906,1.325651852551115,0.025276261973403814,0.013882106867754746
0.30200000000000005,0.0169,-0.929,0.011501681226929667,1.3299099866624478,0.02536661095227186,0.013996072094903753
0.30299999999999994,0.0035,2.071,0.011602773819568056,1.3299099866624478,0.025694405209046173,0.013996072094903753
0.30400000000000005,-0.0033,1.071,0.011537056390001979,1.3299099866624475,0.025481315452225057,0.013996072094903746
0.30499999999999994,-0.0098,2.071,0.011256122033074713,1.3426033621220528,0.024570381561541826,0.01433579916307933
0.30600000000000005,-0.0079,1.071,0.01113083539815332,1.3328567077290672,0.024164137757658834,0.014074938501391108
0.30699999999999994,-0.0061,1.071,0.011090335339047625,1.3338375014382324,0.024032815705000092,0.014101188585331359
0.30800000000000005,-0.0014,0.071,0.011088045436856457,1.3305751458280348,0.024025390662598373,0.014013874496945206
0.30899999999999994,0.0063,-1.929,0.011069707031234556,1.331557620082554,0.023965928105705022,0.014040169559208825
0.31000000000000005,0.0154,2.071,0.011038907374596016,1.3207397298681616,0.023866059754392203,0.013750638209720547
0.31099999999999994,0.0143,-0.929,0.011028425361171282,1.3045067869304496,0.023832071667724473,0.013316177720496043
0.31200000000000006,-0.0024,0.071,0.01079025267589013,1.2714192869932277,0.023059793142482354,0.012430619786540328
0.31299999999999994,-0.0143,1.071,0.010665998579363166,1.258007864832903,0.0226568973599208,0.012071674827802468
0.31400000000000006,-0.0208,1.071,0.010713731520413316,1.1905262845364657,0.022811672141404088,0.010265589480140596
0.31499999999999995,-0.0226,0.071,0.01083176404735815,1.1872263488730128,0.0231943943907332,0.010177269594568744
0.31600000000000006,-0.0059,1.071,0.010771145769317194,1.1861243301415438,0.022997838709661194,0.01014777502916272
0.31699999999999995,-0.0037,0.071,0.010884825313053827,1.190881465556516,0.02336644634526596,0.010275095588818884
0.31800000000000006,0.0225,-0.929,0.010852136336570013,1.1872263488730128,0.023260451845851415,0.010177269594568744
0.31899999999999995,0.0261,1.071,0.010886289413784505,1.205391103002174,0.0233711937139735,0.01066343331706074
0.32000000000000006,0.0164,1.071,0.010891421530155161,1.205391103002174,0.02338783467873158,0.01066343331706074
0.32099999999999995,0.0016,0.071,0.011025846178109335,1.205391103002174,0.023823708627734985,0.01066343331706074
0.32200000000000006,0.0041,2.071,0.011008987284937198,1.272084378099989,0.023769043412280817,0.012448420367046967
0.32299999999999995,0.002,1.071,0.011013000188208832,1.2853489333107038,0.02378205531168019,0.012803434560610371
0.32400000000000007,-0.0002,-0.929,0.010997057313036422,1.2751647327776487,0.023730360298409737,0.012530863360001247
0.32499999999999996,0.0042,0.071,0.011015398022831349,1.260420791888372,0.02378983032661889,0.012136254705462651
0.32600000000000007,-0.0016,-1.929,0.010807300572806499,1.2604207918883723,0.02311507120542862,0.012136254705462656
0.32699999999999996,0.0112,0.071,0.010762621502951533,1.256967903757618,0.02297019864736827,0.01204384118116942
0.32800000000000007,0.0097,-0.929,0.010378523312634115,1.2559270815505976,0.02172475447052514,0.012015984487100268
0.32899999999999996,0.0022,-0.929,0.010540690013985039,1.2559270815505978,0.022250582446200994,0.012015984487100275
0.33000000000000007,-0.01,-0.929,0.010555351691452636,1.2388451708214319,0.022298123156584658,0.011558802119074972
0.33099999999999996,-0.0179,-0.929,0.010588893728149345,1.253842845161611,0.022406883716609306,0.011960201727024463
0.3320000000000001,-0.0103,0.071,0.010537513344362658,1.2402413736874107,0.022240282047025252,0.011596170264982797
0.33299999999999996,-0.0167,2.071,0.010470075638854841,1.2356742801214757,0.022021614269509916,0.011473936008840585
0.3340000000000001,-0.0156,0.071,0.010835616628626811,1.2391865025497242,0.02320688644361922,0.01156793756359854
0.33499999999999996,0.0011,-0.929,0.010881171093372496,1.2720843780999889,0.023354597482819463,0.012448420367046962
0.3360000000000001,-0.0058,-0.929,0.010887297963623853,1.319399159432299,0.023374463952043182,0.01371475901704183
0.33699999999999997,0.0145,-0.929,0.01090625171242782,1.3312106821848175,0.023435921768487827,0.014030884070474004
0.3380000000000001,0.0066,2.071,0.010956162288944856,1.3354510918844154,0.02359775756582563,0.014144374919278729
0.33899999999999997,-0.0003,2.071,0.011154750477194598,1.3364299816001943,0.024241682762247606,0.014170574044504886
0.3400000000000001,-0.0025,0.071,0.011174774055213724,1.3374081548370023,0.024306609516062498,0.01419675399379939
0.34099999999999997,0.0073,-0.929,0.01120736775437115,1.3383856131657772,0.02441229507730882,0.014222914809207024
0.3420000000000001,0.0164,-0.929,0.011167696108546293,1.3542125115482253,0.024283659167211143,0.014646507871816171
0.34299999999999997,0.0052,1.071,0.0110498176711655,1.366680190019114,0.023901436555618123,0.014980194357916735
0.3440000000000001,-0.0086,0.071,0.010944357445192336,1.3676367276054338,0.02355948018186303,0.015005795247990013
0.345,0.0117,0.07099999999994448,0.010943963911257034,1.3634964173927961,0.023558204142140722,0.014894983474214548
0.3460000000000001,-0.0017,-0.929,0.01093953071907766,1.364455186932722,0.023543829449617266,0.014920644100569737
0.347,0.0005,-0.928999999999889,0.010914325356178376,1.3676367276054338,0.023462100680152902,0.015005795247990013
0.3480000000000001,-0.0061,1.0709999999998334,0.010992079671154814,1.3634964173927961,0.02371422021951289,0.014894983474214548
0.349,-0.0119,-1.9289999999999445,0.01079853639723689,1.379341795198508,0.02308665323392248,0.015319071122389763
0.3500000000000001,-0.0065,-0.928999999999889,0.010786010197330567,1.3761873151696147,0.023046036841748357,0.015234644229382085
0.351,-0.008,1.0709999999999444,0.010756799725385239,1.3730255878482607,0.022951321445778685,0.015150023368944098
0.3520000000000001,-0.0156,0.071,0.010667560335494338,1.3761873151696147,0.022661961377737728,0.015234644229382085
0.353,-0.0091,-0.929,0.010537432537540522,1.386572676775885,0.022240020029685375,0.01551259932979406
0.3540000000000001,-0.008,2.071,0.010532041502978907,1.3752367249056192,0.022222539518786916,0.01520920251417787
0.355,-0.0004,1.071,0.010528354902297157,1.3752367249056192,0.02221058566045804,0.01520920251417787
0.3560000000000001,0.0061,1.071,0.010491665427920585,1.3596545784222236,0.02209161948627228,0.014792160021616867
0.357,-0.0023,0.071,0.01050319698333512,1.3554898871523184,0.022129010728675964,0.014680695710214128
0.3580000000000001,-0.0034,1.071,0.010490859504039095,1.3513123605295319,0.02208900626592789,0.014568887871841964
0.359,0.0013,-0.929,0.010491871834196085,1.351312360529532,0.02209228876173456,0.01456888787184197
0.3600000000000001,0.0056,0.071,0.010521360973408696,1.3416289766835023,0.02218790774052254,0.014309720590885104
0.361,0.0077,-0.929,0.010415120066274564,1.328926294314283,0.021843419996325174,0.013969744431431395
0.3620000000000001,0.0056,-0.929,0.010318792107897167,1.3256518525511145,0.0215310751380243,0.013882106867754734
0.363,0.0106,0.071,0.010319546979889186,1.3256518525511145,0.021533522821846878,0.013882106867754734
0.3640000000000001,0.016,-2.929,0.010220222438419621,1.335451091884414,0.02121146149766137,0.014144374919278693
0.365,0.0047,-0.929,0.010058711202033036,1.3451789484891379,0.020687758877021126,0.014404732474640731
0.3660000000000001,-0.0167,1.071,0.01003451777270477,1.3484059718816264,0.020609311317427437,0.014491100927189304
0.367,-0.008,0.071,0.010164269151623087,1.3474357825519614,0.021030032121078297,0.014465134660171425
0.3680000000000001,-0.0106,-2.929,0.010160072045380416,1.3790068791505314,0.021016422940766336,0.01531010738792637
0.369,0.0061,-0.929,0.009909009904357604,1.3893711650571199,0.020202350160823716,0.015587498415709637
0.3700000000000001,0.0174,2.071,0.009598555621868782,1.398724068190453,0.019195697466151587,0.015837820670064215
0.371,-0.0008,4.071,0.009485232488086068,1.427951153170118,0.018828245495199417,0.016620057981412837
0.3720000000000001,-0.0077,2.071,0.009569234496569929,1.4319051065947697,0.019100623275013724,0.01672588207910336
0.373,-0.0012,1.071,0.009630200737620408,1.4319051065947699,0.019298307231393697,0.016725882079103367
0.3740000000000001,-0.007,0.071,0.009663529420452035,1.4309915294604507,0.019406375988292028,0.01670143098787218
0.375,-0.0052,-0.929,0.009678315307049956,1.4319051065947697,0.019454319448654667,0.01672588207910336
0.3760000000000001,-0.01,0.071,0.009672751675460245,1.4319051065947697,0.019436279289288698,0.01672588207910336
0.377,-0.0115,-0.929,0.009690906204659115,1.4227703432561094,0.0194951456241063,0.01648139814514925
0.3780000000000001,-0.023799999999995984,0.071,0.009626798124594058,1.4267386544498668,0.019287274207321868,0.01658760651594501
0.379,-0.0057,0.071,0.009636239111773335,1.4236891959110056,0.019317886750683147,0.01650599043106458
0.3800000000000001,0.010899999999998534,-1.929,0.009639301411086557,1.4206331915755155,0.01932781630240598,0.0164241991536749
0.381,0.0043,-0.929,0.009716888986388558,1.4175705991090337,0.019579395185856066,0.01634223155073386
0.3820000000000001,0.0061000000000053295,0.071,0.00956053638604635,1.418492819989923,0.01907241952041604,0.016366913984265572
0.383,0.0301,-0.929,0.009509592666858876,1.4215534256265765,0.01890723374238272,0.01644882841144776
0.3840000000000001,0.013699999999998068,3.071,0.009379889054587946,1.4095711853445807,0.01848666782280665,0.016128134252976503
0.385,0.005,4.071,0.009275326660726372,1.4246074559184172,0.018147622683218626,0.01653056685528945
0.3860000000000001,0.01299999999999951,2.071,0.009389772248331636,1.4364642769018914,0.018518714227624435,0.01684790427616833
0.387,0.0108,1.071,0.009424261926407954,1.448224027618725,0.018630547529119156,0.017162643696444636
0.3880000000000001,0.021999999999993317,1.071,0.009320710831799903,1.448224027618725,0.01829478154261776,0.017162643696444636
0.389,-0.0081,1.071,0.00929989554396652,1.4631521253480975,0.018227287657785925,0.017562181147391196
0.3900000000000001,-0.012399999999999111,1.071,0.00930778253275068,1.4485160216601112,0.01825286133790647,0.017170458661023645
0.391,-0.0084,2.071,0.009307256817893187,1.461363468854144,0.018251156699549798,0.01751430932412418
0.3920000000000001,0.0023999999999992894,2.071,0.009368833222601599,1.4622580705901527,0.01845081912079591,0.01753825255545191
0.393,-0.0008,1.071,0.00930075752516996,1.491116903135121,0.01823008264484245,0.018310633913166598
0.39400000000000013,0.0020999999999994448,0.071,0.009288318625431436,1.5015782887573939,0.01818974932477948,0.01859062372973029
0.395,-0.0004,1.071,0.009430163668926933,1.5053388640833971,0.018649684018274226,0.01869127223211031
0.39600000000000013,-0.0024999999999965362,-0.929,0.009492780562277488,1.5194277122076296,0.018852720239639933,0.019068347902994578
0.397,0.0131,0.071,0.009534190013014905,1.5202881468751674,0.018986991008384167,0.01909137668268281
0.39800000000000013,-0.0006000000000003996,-2.929,0.009555898341939898,1.5211480948394707,0.01905738059242851,0.01911439243618557
0.399,-0.0024,0.071,0.00953633379384701,1.5211480948394718,0.01899394225007465,0.019114392436185602
0.40000000000000013,0.002299999999999689,0.071,0.009464134864337465,1.5088097969387577,0.01875983613190299,0.018784168707641068
0.401,0.0009,-0.929,0.009597816970644607,1.5059265393075079,0.019193302378413456,0.01870700084437439
0.40200000000000014,-0.0027999999999992007,-1.929,0.010196532969749737,1.5050578941974524,0.02113464803810554,0.018683752319388795
0.403,0.0008,1.071,0.010162562585512238,1.517426699376761,0.021024498554717573,0.01901479254850466
0.40400000000000014,0.0019000000000005772,1.071,0.010131111316968672,1.5145598457749234,0.020922517341972095,0.018938063724706744
0.405,0.0045,0.071,0.010100995316246726,1.5004252895526458,0.020824865755282883,0.01855976471664237
0.40600000000000014,-0.00929999999999869,0.071,0.010207973348130315,1.5251377300820748,0.021171743637601072,0.01922117152645775
0.40700000000000003,-0.0034,0.071,0.010268185323325013,1.5494560793745222,0.02136698187556436,0.019872030829744276
0.40800000000000014,0.0021000000000017762,0.0710000000000555,0.010368056143871596,1.5494560793745222,0.02169081451789859,0.019872030829744276
0.40900000000000003,0.0101,1.070999999999889,0.010490467019177836,1.5458028346003108,0.022087733627843994,0.019774254935505563
0.41000000000000014,-0.0035999999999987787,-0.9289999999999445,0.010555283106569054,1.5458028346003108,0.022297900769064932,0.019774254935505563
0.41100000000000003,0.0019,0.071,0.01059034992234999,1.5578481718555686,0.02241160544827393,0.020096637829160404
0.41200000000000014,-0.002699999999999689,0.07099999999988897,0.010609451924867976,1.5578481718555686,0.022473543979622927,0.020096637829160404
0.41300000000000003,-0.0013,-1.929,0.010882508974487367,1.5586873976068312,0.02335893558251852,0.020119098970794575
0.4139999999999999,-0.0103,-1.9289999999999445,0.011171273899963443,1.5706339250613865,0.02429526020985799,0.020438837306742404
0.41500000000000004,-0.0215,-0.929,0.011107978885518725,1.5458028346003108,0.02409002517061391,0.019774254935505563
0.4159999999999999,-0.0172,-0.9290000000001111,0.011109245368321977,1.542988704401515,0.024094131760210385,0.019698937207376924
0.41700000000000004,-0.0023,-2.929,0.010982629321376183,1.5393201107821453,0.023683577317781954,0.019600750514751127
0.4179999999999999,-0.0005,-1.929,0.01095361263301616,1.5421409355198528,0.023589490268011173,0.019676247416345837
0.41900000000000004,0.0086,-1.929,0.011017761301067316,1.5262720607605826,0.023797493291952868,0.019251530892804194
0.41999999999999993,0.0072,3.071,0.011144936756978507,1.5356427530536023,0.024209861626391178,0.019502329258425228
0.42100000000000004,-0.0127,1.071,0.011009602130517685,1.5339386269329045,0.023771037058351478,0.01945671981650582
0.42199999999999993,0.0116,2.071,0.011363553127089239,1.479099982214714,0.024918728504654746,0.017989011557806547
0.42300000000000004,0.0083,-0.929,0.011337146535253114,1.4963437091256395,0.024833104732240208,0.018450524794101482
0.42399999999999993,0.0054,1.071,0.011386344588650728,1.5236994364849288,0.02499263016261373,0.019182676859023615
0.42500000000000004,-0.0025,0.071,0.011429320523398963,1.527405549026452,0.025131980279395966,0.01928186771271476
0.42599999999999993,0.0062,1.071,0.011422493939878136,1.5245574602648162,0.025109844979339695,0.019205641113417077
0.42700000000000005,-0.0007,1.071,0.0114825953199204,1.5282614920560602,0.025304724610852706,0.019304776277650818
0.42799999999999994,0.0106,0.071,0.01155987778764209,1.5291169559605418,0.025555314178370602,0.019327672019222822
0.42900000000000005,-0.0032,0.071,0.011366030555563272,1.5291169559605418,0.024926761603857792,0.019327672019222822
0.42999999999999994,-0.0158,0.071,0.011364553281403487,1.5291169559605418,0.02492197152010763,0.019327672019222822
0.43100000000000005,-0.0045,1.071,0.011462128754337044,1.5205663025211895,0.025238361463177622,0.01909882127473953
0.43199999999999994,-0.0031,-0.929,0.0115540359844779,1.5205663025211895,0.025536372043477716,0.01909882127473953
0.43300000000000005,0.006,-0.929,0.011556200721910754,1.5242800329385908,0.025543391237262295,0.019198216014201328
0.43399999999999994,0.0071,2.071,0.011165570947569077,1.5214260932649935,0.02427676830068105,0.019121832820373438
0.43500000000000005,0.0147,2.071,0.011110953045738212,1.4940287414782092,0.024099668929995585,0.018388566714134053
0.43599999999999994,0.01,2.071,0.01111529273269982,1.4524139917593546,0.024113740430439755,0.017274784414080133
0.43700000000000006,-0.0038,-0.929,0.011046970614976878,1.4376685732649663,0.023892204932974098,0.016880136212735875
0.43799999999999994,-0.002,-2.929,0.01099680239649357,1.4337305144626777,0.023729533727673714,0.016774737520680944
0.43900000000000006,-0.0038,0.071,0.010781609198108557,1.4328181012245746,0.023031766535374837,0.016750317580111803
0.43999999999999995,-0.0023,-1.929,0.01075098618636092,1.4288666742367833,0.022932470957785746,0.016644561100289373
0.44100000000000006,-0.0129,1.071,0.010701964735985508,1.4249042895198878,0.022773518165376056,0.016538511346452147
0.44199999999999995,-0.0118,3.071,0.010699691321773876,1.409871184678784,0.02276614658549673,0.016136163472200957
0.44300000000000006,0.0019,2.071,0.010699256233184191,1.3946760485800775,0.022764735804180668,0.015729478973363718
0.44399999999999995,-0.0184,1.071,0.010699433169382865,1.3946760485800775,0.02276530952247423,0.015729478973363718
0.44500000000000006,-0.0159,2.071,0.01070050955044626,1.397788804516129,0.02276879970431123,0.015812789157598497
0.44599999999999995,-0.009,1.071,0.010729934022317882,1.4070857566878079,0.022864208998270442,0.01606161393350655
0.44700000000000006,0.0065,1.071,0.010777726149050683,1.4070857566878079,0.023019175690222642,0.01606161393350655
0.44799999999999995,0.0007,1.071,0.010703310537811461,1.4203080122878566,0.022777881948100293,0.016415496015066946
0.44900000000000007,0.0024,0.071,0.010715005969645268,1.3937380684972052,0.022815804562265812,0.015704374758604183
0.44999999999999996,0.0173,0.071,0.010764004558773254,1.397788804516129,0.02297468322673582,0.015812789157598497
0.45100000000000007,0.0354,-0.929,0.010827752053737295,1.397788804516129,0.023181385440890205,0.015812789157598497
0.45199999999999996,0.0133,-1.929,0.010878659296737845,1.4098711846787841,0.02334645294433712,0.016136163472200964
0.45300000000000007,0.0045,0.071,0.010919482781674041,1.4005927219375682,0.023478823710130655,0.01588783354969289
0.45399999999999996,0.002,0.071,0.01091983204146277,1.4005927219375682,0.023479956190264755,0.01588783354969289
0.45500000000000007,-0.0147,-2.929,0.010924708823924883,1.3996587069138917,0.023495769230972262,0.01586283545626728
0.45599999999999996,-0.0126,-2.929,0.01093185100368855,1.3996587069138917,0.02351892785660722,0.01586283545626728
0.4570000000000001,-0.0145,0.071,0.01092155514232175,1.4027604062660017,0.023485543370795742,0.015945849720724183
0.45799999999999996,-0.0163,0.071,0.010918441278320378,1.4058552624417808,0.02347544661979365,0.01602868083356477
0.4590000000000001,-0.0117,-0.929,0.010921043961997218,1.408943320535975,0.023483885860881473,0.016111330001710396
0.45999999999999996,-0.0102,-1.929,0.010875918079927953,1.4049247460382466,0.02333756450747538,0.016003776377640656
0.4610000000000001,0.01,-0.929,0.011023546615500987,1.404924746038247,0.023816252261284816,0.01600377637764067
0.46199999999999997,0.0249,1.071,0.011139629178409525,1.4080148449424543,0.024192651722807896,0.01608648016627748
0.4630000000000001,0.0274,-1.929,0.0111537481045953,1.4110981769976227,0.024238432553971977,0.016169002846131052
0.46399999999999997,0.0107,-0.929,0.011161795685441227,1.4110981769976227,0.024264526956275595,0.016169002846131052
0.4650000000000001,-0.0049,0.071,0.011163732562864988,1.397788804516131,0.02427080731054305,0.01581278915759855
0.46599999999999997,0.0009,0.071,0.011075230892051783,1.3977888045161313,0.023983839307741204,0.015812789157598556
0.4670000000000001,-0.001,-0.929,0.011537809916469716,1.3977888045161304,0.02548375877316485,0.015812789157598532
0.46799999999999997,-0.0159,-1.929,0.011671240049423225,1.3802613087683588,0.025916407992274744,0.015343681097114547
0.4690000000000001,-0.0178,-1.929,0.011679202975532627,1.3698280983157163,0.025942227900318023,0.015064445364269902
0.47,-0.0011,-1.928999999999889,0.011719569059497469,1.3698280983157163,0.026073115536561317,0.015064445364269902
0.4710000000000001,0.0282,0.07100000000016653,0.011708597580780404,1.3490331080717421,0.026037540351298835,0.014507885677620177
0.472,0.0003,3.071,0.011660928077618518,1.3480633700865423,0.025882971268125304,0.014481931490441295
0.4730000000000001,-0.0106,3.070999999999889,0.011603680834043072,1.3461217983376719,0.025697346217165185,0.01442996702440975
0.474,0.0122,1.0709999999999444,0.01157508241411436,1.3428892859845734,0.025604615409093177,0.014343451664641635
0.4750000000000001,0.0035,0.0710000000000555,0.011582401714421037,1.341915108159804,0.025628348350760995,0.014317378649048283
0.476,-0.0154,1.071,0.011588136105536488,1.341915108159804,0.02564694220046536,0.014317378649048283
0.4770000000000001,-0.0176,1.0709999999999444,0.011666638320020913,1.3409402226061085,0.025901486815263258,0.01429128669171056
0.478,-0.0111,0.071,0.011915837123141948,1.3399646277787711,0.02670951769394792,0.014265175751285507
0.4790000000000001,-0.0054,0.0710000000000555,0.011906598945980531,1.3432041785395068,0.026679562765129266,0.014351879487864724
0.48,0.0185,1.071,0.011934266589795529,1.3464359349013535,0.026769275517610297,0.014438374614189627
0.4810000000000001,0.0152,-0.929,0.011930320185651794,1.3464359349013535,0.026756479242636383,0.014438374614189627
0.482,0.0065,1.071,0.011955176125548226,1.345464325015369,0.02683707500274239,0.014412370327227003
0.4830000000000001,0.004,0.071,0.011955176125548224,1.35608499417874,0.026837075002742385,0.014696623228152936
0.484,-0.008,1.071,0.012001965986562717,1.35608499417874,0.026988791832982178,0.014696623228152936
0.4850000000000001,-0.0058,2.071,0.012057560550411163,1.3541549237910393,0.027169058044994168,0.014644966585971923
0.486,-0.004,0.071,0.011972065209104177,1.3522220985541828,0.02689183811097155,0.014593236212667938
0.4870000000000001,-0.0022,0.071,0.01193079644446912,1.3681980527528648,0.026758023519036694,0.01502081862354814
0.488,-0.0036,-0.929,0.012083845334846964,1.3681980527528648,0.027254286855075496,0.01502081862354814
0.4890000000000001,0.0007,0.071,0.012523447312685086,1.3396198671493902,0.02867970290031841,0.014255948535229802
0.49,0.0071,0.071,0.01269335457434514,1.3396198671493902,0.02923062975957542,0.014255948535229802
0.4910000000000001,0.0082,0.071,0.012988969163722403,1.3396198671493902,0.030189164525452686,0.014255948535229802
0.492,-0.0021,0.071,0.012926602194361073,1.3353926950560424,0.02998693868639254,0.01414281197935333
0.4930000000000001,-0.001,1.071,0.012889871842686978,1.299750143162951,0.02986783996695286,0.013188870319353571
0.494,0.0026,-0.929,0.012891465346668775,1.2866340658070512,0.02987300692765441,0.01283783000543044
0.4950000000000001,0.008,-1.929,0.012927989527280538,1.2856172612370156,0.029991437134314052,0.012810616122363243
0.496,0.0105,-0.929,0.012876732941622606,1.302410476819431,0.029825236882030186,0.013260071817832909
0.4970000000000001,-0.0032,-1.929,0.012847058552736003,1.312383265198124,0.029729017228379492,0.013526984757437573
0.498,-0.005,1.071,0.012937179376435775,1.3405666268271978,0.030021235358843563,0.014281287728152287
0.4990000000000001,-0.0105,1.071,0.012945380881337025,1.36816955351068,0.03004782886221876,0.015020055866311225
0.5,-0.0119,0.071,0.013037470782756773,1.371342476809241,0.030346431756896552,0.01510497637726566
0.5010000000000001,-0.0105,2.071,0.012988493143136076,1.3745080757307302,0.030187621021519985,0.01518970085768773
0.502,0.0099,1.071,0.012656260869319987,1.3849060299517384,0.02911035286141317,0.015467992988395483
0.5030000000000001,0.0012000000000005771,1.071,0.012778298164439693,1.3745080757307302,0.029506060631967673,0.01518970085768773
0.504,0.0038,-0.929,0.012776631969937134,1.3745080757307302,0.029500657971155902,0.01518970085768773
0.5050000000000001,0.006000000000000467,0.071,0.012776332386341138,1.3776664007649622,0.029499686566826184,0.01527423065889307
0.506,0.0081,-0.929,0.012691025090060747,1.3598795719654717,0.02922307637163926,0.014798181776590503
0.5070000000000001,0.002299999999998801,-0.929,0.012669415835806897,1.341856992641654,0.029153008038710803,0.014315823238144424
0.508,-0.0031,-0.929,0.012601621455489657,1.355715571864794,0.028933183737744894,0.014686735963726312
0.5090000000000001,-0.0016000000000037083,0.071,0.0124951591258296,1.3870982288359237,0.028587978027666706,0.015526665270023969
0.51,-0.0183,-0.929,0.012441517334690365,1.3974025039291462,0.02841404371062505,0.01580245016098819
0.5110000000000001,-0.0160999999999978,-0.929,0.012399277315413583,1.3870982288359237,0.02827707981086146,0.015526665270023969
0.512,-0.0062,-0.929,0.012408530502612786,1.3870982288359237,0.02830708340995409,0.015526665270023969
0.5130000000000001,-0.00439999999999667,-1.929,0.012160201669347054,1.4137929631422412,0.02750187342165014,0.016241126435257117
0.514,0.0106,0.071,0.011948911402440728,1.40360902002047,0.026816761543552906,0.015968562124035378
0.5150000000000001,0.016400000000004508,-0.929,0.011908922797284413,1.4045404081006145,0.026687097888041137,0.015993489909619924
0.516,0.0367,-0.929,0.011930070427455067,1.4045404081006148,0.026755669397915495,0.01599348990961993
0.5170000000000001,0.017799999999995094,-1.929,0.011940463564958,1.4196299640723462,0.026789369303065948,0.016397348648901806
0.518,-0.0043,-0.929,0.011940463564957999,1.416565202644891,0.026789369303065944,0.016315322995621447
0.5190000000000001,-0.012899999999998246,-1.929,0.011833502183433849,1.4184103521737264,0.026442545409789433,0.016364706805449783
0.52,-0.005,-1.929,0.011716456523600677,1.4091881146640857,0.02606302309195836,0.016117881701982265
0.5210000000000001,-0.007099999999998535,-0.929,0.01171804922265655,1.395860530072809,0.02606818744267546,0.015761180582294653
0.522,-0.0005,-1.929,0.011383120641239471,1.3999051245950367,0.024982176464494295,0.015869430609513034
0.5230000000000001,0.0014000000000011991,0.071,0.01138530908967803,1.3795635779498854,0.02498927254157259,0.015325006943333302
0.524,0.0068,-0.929,0.011339012054903305,1.34509198579464,0.024839153707850316,0.014402404994347058
0.5250000000000001,-0.004400000000002309,0.071,0.011276361346421801,1.3441194044222242,0.02463600784041235,0.014376374706401627
0.526,-0.0148,-0.929,0.011287856815083328,1.3757666073820174,0.02467328207097498,0.015223384354205942
0.5270000000000001,0.024299999999996713,-0.929,0.011245381349682133,1.4026770134917665,0.0245355547336009,0.015943617786217234
0.528,0.0095,-0.929,0.011161925842004965,1.4119417795437794,0.02426494899089714,0.016191581128844213
0.5290000000000001,-0.008700000000001509,-0.929,0.011142970071920413,1.4421013741981963,0.0242034846204197,0.01699877624427395
0.53,-0.0155,0.071,0.01113532230784268,1.445111980094282,0.02417868663001883,0.017079352472225622
0.5310000000000001,-0.008899999999998713,-0.929,0.010999676906241856,1.441194260521359,0.023738854368899134,0.016974498141816913
0.532,-0.0031,-1.929,0.010894808729329257,1.4381754534868187,0.023398817723154934,0.01689370241758297
0.5330000000000001,-0.01210000000000031,-0.929,0.010892474233209572,1.4381754534868185,0.02339124808426723,0.016893702417582965
0.534,-0.0135,-1.929,0.010925350218855127,1.4704665417373308,0.023497848963710054,0.017757945090814874
0.5350000000000001,-0.0029999999999991787,-1.929,0.010905581688187345,1.4704665417373308,0.023433749204779693,0.017757945090814874
0.536,0.0007,-2.929,0.010913982562614038,1.459782213865012,0.023460989166848946,0.017471988420342102
0.5370000000000001,0.019600000000002976,-0.929,0.010918147571398756,1.4636501803262094,0.02347449427066925,0.01757551115232508
0.538,0.033,-0.929,0.010916794473644851,1.4666165524487427,0.023470106830788557,0.01765490350209942
0.5390000000000001,0.021100000000001465,0.071,0.010913015081107817,1.4636501803262092,0.023457852093469008,0.017575511152325075
0.54,0.0277,-1.929,0.01091766813585272,1.4636501803262092,0.023472939693678172,0.017575511152325075
0.5410000000000001,-0.0024000000000009548,0.071,0.010941146397120462,1.4636501803262092,0.023549068310046155,0.017575511152325075
0.542,-0.0067,0.071,0.010936838807054825,1.4666165524487427,0.023535100884271402,0.01765490350209942
0.5429999999999999,-0.0027,-0.929,0.010945467410245803,1.4666165524487424,0.023563079260294505,0.017654903502099417
0.544,-0.0208,-0.929,0.010973106707125268,1.4754798868706096,0.023652700097409413,0.017892122879008505
0.5449999999999999,-0.011,-2.929,0.010970145146861551,1.4754798868706096,0.023643097193574412,0.017892122879008505
0.546,-0.0023,-1.929,0.010950717885859154,1.462756429985637,0.023580104006682662,0.017551590707849944
0.5469999999999999,0.0166,-2.929,0.011031651372016792,1.4597822138650118,0.023842532056560603,0.017471988420342095
0.548,0.0047,-2.929,0.011063107102996168,1.4499213255790622,0.023944527738821515,0.01720807038863701
0.5489999999999999,-0.0156,-0.929,0.011052411231098598,1.446016636113373,0.023909846212829218,0.017103564797627265
0.55,-0.013,-0.929,0.011004284485813231,1.4460166361133733,0.023753794515172066,0.01710356479762727
0.5509999999999999,-0.0199,-1.929,0.01094408176298915,1.4606777840513814,0.02355858627816009,0.017495957571394865
0.552,-0.022,-0.929,0.010912245341836786,1.4499213255790622,0.023455356202269937,0.01720807038863701
0.5529999999999999,-0.0039,0.071,0.010876760174690768,1.4606777840513816,0.02334029501244816,0.01749595757139487
0.554,-0.0017,-0.929,0.010880719179821923,1.4606777840513816,0.02335313214631389,0.01749595757139487
0.5549999999999999,0.0005,-1.929,0.010874334928081491,1.4576993267726936,0.023332431113728836,0.017416241773008934
0.556,0.0103,-1.929,0.010865940519230038,1.4576993267726936,0.02330521211638484,0.017416241773008934
0.5569999999999999,-0.0063,-1.929,0.01084033660088996,1.4576993267726934,0.023222191024890853,0.017416241773008927
0.558,0.0002,-2.929,0.010840534132784319,1.4675079518766685,0.023222831525038398,0.017678761026458198
0.5589999999999999,0.0021,-1.929,0.010837070206563501,1.464543385247963,0.0232115996920085,0.017599416999143608
0.56,0.0003,-0.929,0.010861423407474329,1.4675079518766685,0.02329056531336906,0.017678761026458198
0.5609999999999999,-0.011,-0.929,0.010706077624438301,1.4772514513003345,0.022786854268233774,0.01793953724815798
0.562,0.0028,-2.929,0.010602671846759254,1.4869311053026752,0.02245155947406701,0.01819860470311779
0.563,0.0155,-0.928999999999778,0.010584283830627268,1.5127288702910433,0.02239193605434625,0.0188890592707678
0.5640000000000001,0.0043,1.070999999999889,0.010584708654878407,1.5287383348891685,0.022393313553389724,0.01931753855811656
0.565,0.0087,0.07100000000022204,0.010553552190961588,1.5409170709856803,0.022292288249094076,0.019643491754830773
0.5660000000000001,0.0051,2.070999999999778,0.010464392887139646,1.5380940017136135,0.022003187861339948,0.019567934780241315
0.567,-0.001,0.07100000000022204,0.009803413929605495,1.5389439999597179,0.019859953619604905,0.019590684238257616
0.5680000000000001,0.0001,2.070999999999889,0.009954014646292425,1.5572049727873218,0.02034827871551628,0.020079423169875793
0.569,-0.0065,1.070999999999889,0.00994643866877394,1.6685447241352958,0.020323713494116786,0.023059334023156575
0.5700000000000001,-0.0022,0.07100000000011102,0.009885558305301667,1.6854020851717484,0.02012630799707975,0.02351050651547876
0.571,-0.0043,1.0709999999996669,0.009873342429085294,1.686953212899076,0.020086697834152022,0.02355202108950581
0.5720000000000001,-0.0022,-1.928999999999778,0.009864197245729628,1.6843749229203173,0.02005704443915148,0.02348301541814773
0.573,0.0029,0.07099999999988897,0.009896003072188263,1.685926995682809,0.020160175311285645,0.0235245552852126
0.5740000000000001,0.0025,-0.9290000000002221,0.00994296289130704,1.6985185638304576,0.02031244323324267,0.023861557569919836
0.575,0.0062,-2.929,0.009943647115446583,1.708475497931887,0.020314661840337762,0.024128046183690133
0.5760000000000001,0.012,-2.928999999999889,0.009944593794166458,1.708475497931887,0.020317731460369127,0.024128046183690133
0.577,0.0112,-1.929,0.00984660423177152,1.705929736385974,0.01999999882597341,0.02405991110732534
0.5780000000000001,0.0091,-2.929,0.009727684327302543,1.705929736385974,0.01961439924163474,0.02405991110732534
0.579,0.0036,-0.929,0.010373637750957065,1.7143186772107482,0.021708912963080747,0.024284433755423832
0.5800000000000001,-0.0063,0.071,0.010546933633919542,1.7117816056629183,0.022270827478033665,0.024216531259240778
0.581,0.0002,0.071,0.010431783450538414,1.7143186772107482,0.02189745127119466,0.024284433755423832
0.5820000000000001,-0.006,1.071,0.010421439230787222,1.7117816056629183,0.021863909982592227,0.024216531259240778
0.583,-0.0093,3.071,0.010463122546994868,1.7008267820064857,0.021999068764255378,0.023923335006201234
0.5840000000000001,-0.0046,1.071,0.010421210916814055,1.6982695548242177,0.02186316967108975,0.023854893062129262
0.585,-0.0072,1.071,0.010334623225482216,1.687227002435495,0.02158240777563169,0.023559348826465983
0.5860000000000001,-0.005,1.071,0.010330142170980246,1.6761117011261766,0.021567877888805136,0.023261857529708864
0.587,-0.0014,-0.929,0.010359745845015879,1.6536569742426397,0.021663868248484708,0.022660876446694036
0.5880000000000001,-0.0022,0.071,0.010211932959296404,1.6638823888178669,0.02118458273654422,0.022934550705016953
0.589,0.0033,0.071,0.009668233884780981,1.6612682932839475,0.019421630284853046,0.022864586729359298
0.5900000000000001,0.0101,0.071,0.009512805212318561,1.6612682932839478,0.018917650469502164,0.022864586729359305
0.591,0.0076,-0.929,0.009125508406624856,1.6499781268778018,0.017661834734045163,0.022562415321558393
0.5920000000000001,-0.0048,0.071,0.009191294609618202,1.6499781268778018,0.017875147489741755,0.022562415321558393
0.593,0.0079,-1.929,0.00917375116612747,1.6499781268778018,0.017818262609552,0.022562415321558393
0.5940000000000001,-0.0001,-0.929,0.00917317416466436,1.6473419674213028,0.01781639167360287,0.02249186082435237
0.595,-0.0045,0.071,0.008974907569827061,1.6473419674213028,0.017173509248672492,0.02249186082435237
0.5960000000000001,-0.0169,0.071,0.008907281052541604,1.621005482095732,0.01695422924611963,0.02178698787907642
0.597,-0.0089,-0.929,0.008940535398144517,1.6210054820957323,0.017062056963432357,0.021786987879076427
0.5980000000000001,-0.0013,0.071,0.008788126421878263,1.6059160972593576,0.016567868558554518,0.02138313372008237
0.599,0.0023,1.071,0.008776212386863956,1.5906835794365375,0.016529237120278248,0.020975448732165065
0.6000000000000001,0.0033,2.071,0.00867489563955929,1.5906835794365377,0.016200716038616798,0.02097544873216507
0.601,0.0065,1.071,0.008578669664083993,1.6013111706492167,0.01588870186141456,0.021259886895673416
0.6020000000000001,-0.0044,2.071,0.00843598295152642,1.5931480410190677,0.0154260380432881,0.02104140788627098
0.603,0.0032,1.071,0.008147129084386267,1.603759301129637,0.014489425021261033,0.021325408962145898
0.6040000000000001,-0.0004,0.071,0.008150294393479054,1.6169908388313274,0.014499688583748173,0.021679539471020786
0.605,-0.0041,0.071,0.008148424140710937,1.6274466468125364,0.014493624260931785,0.02195938000691032
0.6060000000000001,-0.003,-0.929,0.008159919425037942,1.6159201914469623,0.01453089789378695,0.021650884532222376
0.607,-0.0023,-1.929,0.0081351350680613,1.607831235075036,0.014450534242378302,0.021434390705061906
0.6080000000000001,-0.0015,0.071,0.00811034260612202,1.5961631362074287,0.01437014431050603,0.021122104266195443
0.609,0.0075,-0.929,0.0081220038740898,1.5808366442614632,0.014407956147820535,0.020711904143242376
0.6100000000000001,-0.0012,-1.929,0.00812592331456389,1.5808366442614632,0.014420664992688839,0.020711904143242376
0.611,0.0064,-1.929,0.008154733902655018,1.5898857686599797,0.014514083759228372,0.020954096026027803
0.6120000000000001,-0.0002,-2.929,0.008087378575389643,1.5871498025831852,0.014295683094406963,0.020880870292112094
0.613,-0.0045,-2.929,0.008146214011402564,1.56258118916889,0.014486457883306028,0.02022331288896589
0.6140000000000001,-0.0067,-1.929,0.008000441519517152,1.5625811891688914,0.014013788379155111,0.020223312888965925
0.615,-0.0089,0.071,0.008009767452628474,1.572567235827066,0.01404402785796527,0.02049058067479976
0.6160000000000001,0.002,1.071,0.008031118042259977,1.5860590115444626,0.0141132574669534,0.020851676226061128
0.617,0.0248,3.071,0.00801807709541719,1.5860590115444655,0.014070972000072008,0.020851676226061204
0.6180000000000001,0.002,6.071,0.008057740879582744,1.5994369837558544,0.014199582418620788,0.021209725926235354
0.619,-0.0068,3.071,0.00807003665554196,1.5896197427541343,0.0142394516576701,0.02094697607583495
0.6200000000000001,0.0012,2.071,0.00805464153703051,1.588796856004286,0.014189532753636602,0.020924952233252164
0.621,-0.0057,0.071,0.00810908994845641,1.588796856004286,0.014366082549126935,0.020924952233252164
0.6220000000000001,-0.0079,2.071,0.008098402689104328,1.5887968560042882,0.014331428949443314,0.020924952233252223
0.623,-0.0097,2.071,0.008099967348446906,1.5769879284743236,0.014336502380967025,0.020608896638676943
0.6240000000000001,0.0069,2.071,0.008147656875298793,1.5805690952963898,0.014491136391257474,0.020704743429704273
0.625,0.0047,0.071,0.008184675056406299,1.5805690952963884,0.014611168401977357,0.02070474342970424
0.6260000000000001,-0.0051,0.071,0.00816383163659792,1.5531007309131537,0.01454358329879218,0.019969576733564837
0.627,0.0189,-0.929,0.008081590944713526,1.527984737249557,0.014276916614623936,0.019297369177835953
0.6280000000000001,0.03729999999999638,-1.929,0.008006622788568195,1.5185667900095494,0.014033831237307502,0.01904530607497871
0.629,0.021,0.071,0.008012348303403204,1.4899558084308524,0.014052396305538619,0.01827955823112988
0.6300000000000001,0.00039999999999822366,-0.929,0.00800458927055206,1.4908332529097459,0.014027237524461292,0.0183030422635096
0.631,-0.0076,0.071,0.008021960894245088,1.493745644187505,0.014083565276364816,0.018380989863288864
0.6320000000000001,-0.009799999999999533,0.071,0.008032145843219348,1.4937456441875052,0.01411659012707019,0.01838098986328887
0.633,-0.0077,0.071,0.008028536687332706,1.4937456441875052,0.014104887384657832,0.01838098986328887
0.6340000000000001,-0.0018999999999996004,0.071,0.007984207347427913,1.4619688212038642,0.013961148831237159,0.017530511049160848
0.635,-0.0001,0.071,0.008008230335691731,1.4580963945226348,0.014039043733108,0.01742686894329818
0.6360000000000001,0.007899999999996292,1.071,0.007986148443819577,1.457199237858464,0.013967442865571689,0.01740285733155764
0.637,-0.0088,2.071,0.008004898587729592,1.457199237858464,0.01402824049007599,0.01740285733155764
0.6380000000000001,-0.0022000000000021763,0.071,0.008044944946503782,1.4542136559899297,0.014158091412565023,0.017322950849769314
0.639,-0.012,0.071,0.008041822228771497,1.4542136559899297,0.014147965953206871,0.017322950849769314
0.6400000000000001,-0.006500000000001043,0.071,0.008210081788357585,1.4571992378584626,0.014693550113630813,0.017402857331557605
0.641,-0.0112,0.071,0.008162737545901286,1.4610740423632176,0.014540035693202226,0.01750656307778272
0.6420000000000001,-0.0035999999999997557,0.071,0.008129381868887767,1.461968821203862,0.014431879407261861,0.017530511049160785
0.643,-0.0025,0.071,0.008149016517720037,1.4619688212038622,0.014495545052320752,0.017530511049160792
0.6440000000000001,-0.008599999999998312,-0.929,0.008113666695315176,1.4637567379798577,0.014380922719864067,0.01757836307452504
0.645,-0.001,0.071,0.008221075569742107,1.463756737979857,0.014729197615628999,0.017578363074525018
0.6460000000000001,0.008099999999998645,-1.929,0.008338140485909471,1.463756737979857,0.015108782372414201,0.017578363074525018
0.647,0.002,-1.929,0.00816982046845693,1.4667228945949948,0.014563002176446183,0.017657749656432815
0.6480000000000001,0.0008999999999979793,-1.929,0.008504288671896799,1.4637567379798562,0.015647520372090697,0.017578363074524997
0.649,-0.0082,-0.929,0.008662849454306686,1.466722894594994,0.016161656101199153,0.01765774965643279
0.6500000000000001,-0.0019999999999967804,2.071,0.008702056956895824,1.4628630527417146,0.016288787019852664,0.017554444372459354
0.651,0.0125,1.071,0.008734048822759554,1.448224027618721,0.016392521127564553,0.01716264369644453
0.6520000000000001,0.002700000000000422,2.071,0.009162925363652768,1.4482240276187193,0.017783159781703136,0.017162643696444484
0.653,0.0046,2.071,0.009274991642374778,1.4364642769018852,0.018146536381159293,0.01684790427616817
0.6540000000000001,9.769962616700284e-16,2.071,0.009274968213047664,1.4355536011973342,0.018146460411212657,0.016823530839161566
0.655,0.0044,0.071,0.009359430120134477,1.4355536011973344,0.01842032941918535,0.016823530839161573
0.6560000000000001,-0.007999999999998224,1.071,0.009711819054854985,1.4394866725200846,0.019562955856370388,0.01692879604569828
0.657,0.0,0.071,0.009754922115476853,1.4403948615805195,0.01970271818071578,0.016953102929854715
0.6580000000000001,0.004399999999999756,-1.929,0.009972567671313314,1.4273586914900485,0.020408437179048732,0.016604201263850444
0.659,0.0033,-1.929,0.010151774577614512,1.4273586914900485,0.02098951827635475,0.016604201263850444
0.6600000000000001,0.006899999999999267,-1.929,0.010125143302429664,1.4282745923234796,0.020903165964792265,0.016628714546851595
0.661,0.0036,0.071,0.010231206946445713,1.419116459785359,0.021247078930654945,0.016383605156757502
0.6620000000000001,0.010199999999998158,-0.929,0.010241563160812896,1.4098988409778406,0.021280659111980686,0.016136903668803902
0.663,0.0019,-0.929,0.010242418664167991,1.3944007437075634,0.021283433094516222,0.015722110679761175
0.6640000000000001,-0.005700000000001044,2.071,0.010257950761694529,1.366370707735212,0.021333796155072693,0.014971911335855594
0.665,-0.0104,2.071,0.010313571001876755,1.3558306123587613,0.02151414562298433,0.014689814921712025
0.6660000000000001,-0.002099999999997735,2.071,0.010275712345490885,1.3590323436021765,0.021391388358494433,0.014775506452059732
0.667,0.0081,2.071,0.010278079887550993,1.354865739660028,0.021399065149342516,0.014663990949660899
0.6680000000000001,0.004499999999998068,1.071,0.009975763810726162,1.3230382529221434,0.020418800709313796,0.013812156164558347
0.669,-0.0042,-0.929,0.009989261544822672,1.175833231364644,0.020462567315756755,0.009872342790755568
0.6699999999999999,-0.0096,0.071,0.009965781876924235,1.139013974528927,0.02038643413836752,0.008886907654372155
0.671,0.0013,1.071,0.009967893017176441,1.120150595798424,0.020393279542485248,0.00838204585678386
0.6719999999999999,0.0028,0.071,0.01007996999504934,1.120150595798424,0.020756690834099572,0.00838204585678386
0.673,0.0093,1.071,0.01005112425355309,1.1049045849803665,0.020663158082113584,0.007973999740675912
0.6739999999999999,0.0082,-0.929,0.010058153432415971,1.0854486008125934,0.020685950300622945,0.007453277377989756
0.675,-0.0019,0.071,0.010037759157219082,1.0830363388163755,0.02061982155561659,0.007388715300057495
0.6759999999999999,-0.003,-0.929,0.01003473047057029,1.1001600948462729,0.02061000099346527,0.007847017620878619
0.677,-0.0019,-0.929,0.010076866729866825,1.1041034805849723,0.020746628449927525,0.007952558883717419
0.6779999999999999,-0.0095,0.071,0.009923268778354526,1.1041034805849723,0.020248584774876777,0.007952558883717419
0.679,-0.0004,1.071,0.009202853406305802,1.0910326458416173,0.017912627062384334,0.0076027294486629825
0.6799999999999999,0.0083,-0.929,0.008998156910976768,1.096202523598842,0.017248895588104118,0.007741096695332508
0.681,-0.004,0.071,0.008999428347289748,1.0922306126440418,0.017253018239530616,0.0076347919800877
0.6819999999999999,-0.0055,1.071,0.008970519173229075,1.1115678963074627,0.017159279806497504,0.008152337427818268
0.683,-0.004,0.071,0.009005651915704526,1.1115678963074627,0.017273198254008075,0.008152337427818268
0.6839999999999999,-0.0077,0.071,0.00904635273801248,1.153042238366976,0.017405171284378972,0.00926236183994008
0.685,-0.0041,-0.929,0.009044327312122902,1.1579352926267668,0.01739860381037521,0.00939332014834219
0.6859999999999999,-0.0074,1.071,0.009053363324346456,1.1616825743112127,0.01742790321633286,0.00949361285805807
0.687,-0.0081,0.071,0.009081856155977754,1.1616825743112127,0.017520291652757532,0.00949361285805807
0.688,0.0002,0.07099999999988897,0.009049597492549775,1.1431933023569143,0.01741569244991849,0.008998763700422725
0.6890000000000001,0.0169,-0.928999999999778,0.009047310955914576,1.1481283312443853,0.01740827832038278,0.009130845422943084
0.69,0.0049,1.071,0.0090036828342186,1.1481283312443853,0.017266813477583194,0.009130845422943084
0.6910000000000001,-0.0016,1.070999999999889,0.009093732263862897,1.153042238366976,0.017558800111745293,0.00926236183994008
0.692,-0.0074,0.07100000000022204,0.009033905544682228,1.1530422383669758,0.017364811072219703,0.009262361839940074
0.6930000000000001,-0.002,2.070999999999667,0.009042363192976471,1.1568053704085302,0.01739223512441101,0.009363078770570802
0.694,-0.0132,-0.928999999999889,0.00905771006368601,1.1568053704085302,0.017441997584218917,0.009363078770570802
0.6950000000000001,-0.0146,0.07099999999988897,0.009018236008442999,1.1568053704085302,0.017314002364563846,0.009363078770570802
0.696,0.0031,-0.928999999999889,0.009019333338187786,1.1605563004670247,0.017317560472816303,0.009463469125820221
0.6970000000000001,0.0253,0.07099999999988897,0.008987837066674689,1.1481283312443853,0.017215433337263178,0.009130845422943084
0.698,0.0166,-0.928999999999889,0.009024458800880479,1.1481283312443853,0.01733417986292321,0.009130845422943084
0.6990000000000001,0.0086,0.071,0.00902436403692054,1.1317305959947515,0.017333872589353438,0.00869197441193379
0.7,-0.0081,0.07100000000011102,0.009048361355045269,1.1654178070572017,0.01741168425541101,0.009593583088497289
0.7010000000000001,-0.0284,1.070999999999778,0.00906695146663637,1.1839172153256619,0.017471962972706884,0.01008870353569649
0.702,-0.015,-0.929,0.009056221415736969,1.1791319834065057,0.017437170620785505,0.009960630997733
0.7030000000000001,-0.0031,-0.928999999999889,0.009242384807220165,1.1974195346788914,0.018040808226243914,0.010450081278129216
0.704,0.0126,0.071,0.009236187126168098,1.2154319601561683,0.0180207121519306,0.01093216805777268
0.7050000000000001,0.0263,1.071,0.009388567178296534,1.2013957026775721,0.0185148067698552,0.0105564999294221
0.706,0.0097,1.071,0.009448063488323022,1.2060926054264849,0.018707724452713605,0.010682208414566335
0.7070000000000001,0.0209,0.071,0.009420068843735412,1.2190025066901038,0.018616951395294044,0.011027730606097089
0.708,0.0191,0.071,0.009464435096390124,1.2190025066901038,0.01876080963886322,0.011027730606097089
0.7090000000000001,-0.0012,1.071,0.010140057196492053,1.2082592133618035,0.020951524491289637,0.010740195776879388
0.71,-0.0147,1.071,0.010647881861782966,1.1974195346788914,0.02259815362984718,0.010450081278129216
0.7110000000000001,-0.0078,1.071,0.010625804394788567,1.1996018072009773,0.02252656711004375,0.010508487889376769
0.712,-0.0013,2.071,0.0106287804674511,1.1996018072009773,0.02253621707055085,0.010508487889376769
0.7130000000000001,-0.0072,-0.929,0.010607768204050334,1.211501860249311,0.022468084489470085,0.010826982378577836
0.714,-0.0126,-0.929,0.010613865424635122,1.2125808155715478,0.022487854819202638,0.010855859672051304
0.7150000000000001,-0.0014,-0.929,0.010598560476936412,1.1985111676305864,0.02243822829538982,0.010479297877242935
0.716,-0.0029,0.071,0.010548950019353251,1.1805988065514097,0.022277365638222885,0.009999889233506152
0.7170000000000001,0.0007,-0.929,0.01060762517426722,1.1661433559703045,0.022467620713240502,0.009613001769198165
0.718,-0.0055,0.071,0.01057721141605136,1.1477259471533547,0.02236900364338512,0.009120075965444459
0.7190000000000001,-0.0001,-0.929,0.010568963403410517,1.1465859640098717,0.022342259337962654,0.009089565315827455
0.72,0.0024,0.071,0.010568991144161025,1.1590304717358113,0.022342349287764688,0.00942263165724909
0.7210000000000001,0.0161,0.071,0.010525500472095264,1.1590304717358113,0.02220133012746473,0.00942263165724909
0.722,0.0023,-0.929,0.01054098052298922,1.1590304717358113,0.022251524426029845,0.00942263165724909
0.7230000000000001,-0.0104,0.071,0.010562271560796498,1.1772710441171805,0.022320560937329488,0.0099108245888052
0.724,-0.0024,-1.929,0.01053378805472935,1.1724586870608478,0.022228202739187266,0.00978202607032091
0.7250000000000001,-0.0039,-1.929,0.010506042639059122,1.1724586870608478,0.022138237810292335,0.00978202607032091
0.726,-0.0105,-0.929,0.010532084038844125,1.176159697665303,0.0222226774419716,0.009881080375138379
0.7270000000000001,-0.0069,-0.929,0.010660148222613504,1.1724586870608478,0.02263792748989798,0.00978202607032091
0.728,0.0032,-0.929,0.010771256537035867,1.1735735382876804,0.022998197875660098,0.009811864086217398
0.7290000000000001,0.0082,1.071,0.010799753616841375,1.1915915099872458,0.02309060008685374,0.010294099305639038
0.73,0.0016,0.071,0.010802663250951248,1.1868372206083593,0.02310003461935151,0.010166854917644099
0.7310000000000001,0.0026,2.071,0.01078110585197256,1.1988639830143641,0.02303013442793508,0.010488740671739915
0.732,0.0127,0.071,0.010869936795351098,1.2024837260091117,0.02331817010199763,0.010585619920216264
0.7330000000000001,0.0116,3.071,0.01086893461808324,1.2024837260091117,0.02331492052708714,0.010585619920216264
0.734,0.0004,1.071,0.010986713676283413,1.2200748289434444,0.02369682090018771,0.011056430371295571
0.7350000000000001,-0.004,-0.929,0.0109760372940865,1.23741588204047,0.02366220256984382,0.011520548457653098
0.736,-0.0106,1.071,0.010968341666648182,1.2338986196516728,0.023637249381774163,0.011426412012768686
0.7370000000000001,-0.0044,0.071,0.010957592942407359,1.2338986196516728,0.023602396481261504,0.011426412012768686
0.738,0.001,1.071,0.010948117234753961,1.2338986196516728,0.023571671356239072,0.011426412012768686
0.7390000000000001,-0.0081,0.071,0.010979172545058171,1.23741588204047,0.02367236866841977,0.011520548457653098
0.74,-0.0143,1.071,0.01085624888495761,1.2374158820404715,0.0232737868460426,0.01152054845765314
0.7410000000000001,-0.0042,0.071,0.010857129311596875,1.2363586001728541,0.023276641642703072,0.011492251235195339
0.742,-0.0053,-0.929,0.010856493450930817,1.236358600172855,0.023274579854900397,0.011492251235195363
0.7430000000000001,0.0059,0.071,0.010867812409625019,1.2706924776925586,0.02331128174923104,0.012411167372670995
0.744,-0.0018,-0.929,0.010893463790247979,1.2572733026305531,0.02339445673789332,0.012052014914315227
0.7450000000000001,0.0018,-0.929,0.01084875370209574,1.257273302630554,0.023249483602536102,0.012052014914315252
0.746,0.0029,-0.929,0.0107944331959816,1.257273302630554,0.02307334854194881,0.012052014914315252
0.7470000000000001,0.0084,-1.929,0.010913232779070369,1.2538117466190257,0.02345855798239691,0.01195936940179067
0.748,-0.0007,0.071,0.010619846457099064,1.253811746619026,0.02250724840720046,0.011959369401790676
0.7490000000000001,0.0106,-2.929,0.010495724608291864,1.2538117466190266,0.022104781439865415,0.011959369401790694
0.75,0.0062,-2.929,0.010727109752556153,1.2538117466190266,0.022855051260959387,0.011959369401790694
0.7510000000000001,-0.0116,0.071,0.01081298013094686,1.2572733026305556,0.02313348725838401,0.012052014914315293
0.752,-0.0186,-2.929,0.010471300124380693,1.2527683022232163,0.02202558468230082,0.011931442527136984
0.7530000000000001,-0.0030000000000030645,-2.929,0.010424641362205606,1.2641679795829868,0.021874292942025638,0.012236544899623083
0.754,-0.0168,-0.929,0.010422763348601458,1.2607253543318793,0.021868203454581337,0.012144406052307969
0.7550000000000001,-0.011399999999996692,1.071,0.010398559710426431,1.2641679795829877,0.021789722792648004,0.012236544899623107
0.756,0.0035,2.071,0.010175159866284813,1.2631330902554623,0.021065345427672886,0.012208846993873352
0.7570000000000001,0.009200000000006106,0.071,0.010130296765524816,1.2631330902554623,0.020919876146626572,0.012208846993873352
0.758,0.0367,1.071,0.009913623249595833,1.27989088620981,0.020217309002358408,0.01265735471404381
0.7590000000000001,0.03269999999999276,1.071,0.009729262367254358,1.296432087503064,0.019619516059985773,0.013100065467959702
0.76,0.0001,2.071,0.009779179210491432,1.296432087503064,0.019781372177257842,0.013100065467959702
0.7610000000000001,0.004399999999997336,0.071,0.009733713607046245,1.296432087503064,0.019633949272165076,0.013100065467959702
0.762,-0.0076,-1.929,0.009702405036248309,1.296432087503064,0.01953243075901263,0.013100065467959702
0.7630000000000001,-0.003999999999999267,1.071,0.009711655349639834,1.296432087503064,0.019562425039740504,0.013100065467959702
0.764,-0.0007,-0.929,0.0096861690314599,1.2974404165171387,0.01947978526853997,0.013127052510200604
0.7650000000000001,0.0020999999999970244,0.071,0.009607493939220344,1.2974404165171387,0.01922468009501292,0.013127052510200604
0.766,-0.0113,-0.929,0.009626048802961818,1.297440416517137,0.01928484452062461,0.013127052510200557
0.7670000000000001,0.0006999999999995115,0.071,0.009634763654910112,1.3017908329929462,0.019313102559544507,0.013243487593947414
0.768,-0.0015,-0.929,0.009669770251085197,1.2984479624986052,0.01942661197577302,0.01315401859526009
0.7690000000000001,0.004299999999998801,-1.929,0.009765829306091054,1.3147557142759958,0.019738084910834838,0.01359048127750713
0.77,-0.0011,0.071,0.009769679763000408,1.3147557142759958,0.019750570075453753,0.01359048127750713
0.7710000000000001,-0.00580000000000031,1.071,0.009780963282395435,1.3180572255289495,0.019787157057322168,0.013678843332350938
0.772,-0.0072,2.071,0.009696494274729916,1.3180572255289495,0.019513265025615897,0.013678843332350938
0.7730000000000001,0.0050999999999982466,0.071,0.009697487467765891,1.3147557142759947,0.019516485469018963,0.0135904812775071
0.774,-0.0028,-0.929,0.009668251338444058,1.3470929340117703,0.01942168687861889,0.014455958619506902
0.7750000000000001,0.007700000000002021,-0.929,0.009791094555441455,1.336400804892285,0.019820007863020433,0.01416979315549167
0.776,0.0168,0.071,0.01029485386476635,1.3223398157135577,0.02145345502352573,0.013793463104864916
0.7770000000000001,0.015599999999999288,1.071,0.010254155551721374,1.3223398157135577,0.021321490129477892,0.013793463104864916
0.778,0.0124,2.071,0.010232101751784054,1.3223398157135586,0.021249980350464093,0.01379346310486494
0.7790000000000001,-0.0025000000000004663,0.071,0.010258846602488575,1.3331447219897192,0.021336700932362587,0.014082646950627125
0.78,-0.0046,-1.929,0.01024933382866066,1.3331447219897175,0.02130585561971008,0.014082646950627078
0.7810000000000001,-0.014399999999997979,-0.929,0.010259142718485322,1.3364008048922784,0.021337661092949423,0.014169793155491491
0.782,-0.0053,1.071,0.010261123603611463,1.320360418375267,0.021344084142855775,0.013740486270087435
0.7830000000000001,-0.01649999999999767,2.071,0.010183460328751745,1.3344422645837801,0.02109225980244774,0.014117374540834794
0.784,-0.006,2.071,0.010123265213378436,1.302115664485398,0.020897076232709665,0.013252181424121502
0.7850000000000001,0.0005999999999986232,0.071,0.010126159460478106,1.302115664485398,0.020906460872594717,0.013252181424121502
0.786,-0.0056,1.071,0.010372801380457371,1.3150773433738328,0.021706201019117497,0.013599089398396316
0.7870000000000001,0.006800000000000333,0.071,0.01036117229187227,1.3140825476927083,0.0216684935239368,0.013572464563949588
0.788,0.0083,-0.929,0.01037766308963023,1.318378049196386,0.021721965184457195,0.013687429896601428
0.7890000000000001,0.003999999999998002,-0.929,0.010541657648155713,1.3140825476927083,0.02225372001459772,0.013572464563949588
0.79,-0.005,-0.929,0.010510227265129953,1.317385745975054,0.02215180652345882,0.013660871770656354
0.7910000000000001,0.0011999999999977573,1.071,0.010415214078608915,1.3130869983538562,0.021843724832737638,0.013545819558514378
0.792,-0.0089,-2.929,0.010406649146138437,1.313086998353856,0.02181595290998633,0.013545819558514373
0.7930000000000001,-0.007700000000000245,-0.929,0.01043491066315397,1.314082547692708,0.02190759130527963,0.013572464563949583
0.794,-0.0088,-0.929,0.010425604182760772,1.3301986389465212,0.02187741490220146,0.014003797620277404
0.7950000000000002,-0.009800000000001443,0.071,0.010424312522262641,1.3428892859845543,0.021873226673549497,0.014343451664641124
0.796,-0.0163,0.071,0.010457006641603204,1.339648973748129,0.02197923784875464,0.014256727547832523
0.7969999999999999,-0.0024,0.071,0.010523447776726607,1.339648973748129,0.022194674231763648,0.014256727547832523
0.798,0.0035,-0.929,0.010491543780680403,1.3256224386185662,0.022091225043260745,0.013881319629631987
0.7989999999999999,0.0238,0.071,0.010517672208924139,1.3256224386185662,0.022175946866030416,0.013881319629631987
0.8,0.0159,-0.929,0.010534849913860781,1.2927482605387495,0.022231645833440783,0.013001471068208792
0.8009999999999999,0.0091,0.071,0.010526686304588116,1.2624632834386043,0.02220517520721299,0.01219092020151939
0.802,0.0114,-1.929,0.010464075194023635,1.2961058315869323,0.022002157736618372,0.013091333514334358
0.8029999999999999,-0.0024,0.071,0.010297914470009339,1.2771836458105634,0.021463379082200272,0.012584897797709034
0.804,0.0104,-0.929,0.010348390577408901,1.2430290746731916,0.02162704862195661,0.01167078063839083
0.8049999999999999,0.0152,-0.929,0.010227685976213204,1.2430290746731916,0.021235662131556535,0.01167078063839083
0.806,-0.0014,1.071,0.010216029773216657,1.2430290746731916,0.021197866717487666,0.01167078063839083
0.8069999999999999,0.0008,2.071,0.010252037087682877,1.2257674345397955,0.02131462097787263,0.011208787970397774
0.808,-0.0009,2.071,0.010291672346911083,1.2293079618736562,0.021443138903881713,0.011303547081144618
0.8089999999999999,-0.0099,1.071,0.009716117887857853,1.2293079618736562,0.019576894887236997,0.011303547081144618
0.81,-0.0113,1.071,0.009243613724143928,1.2624632834386043,0.018044793007909406,0.01219092020151939
0.8109999999999999,-0.0008,1.071,0.009243913645865574,1.2500023214291534,0.018045765508616644,0.011857413475622091
0.812,-0.0044,2.071,0.009237448597356344,1.2648677111356954,0.01802480249128981,0.012255272601302446
0.813,0.0018,1.070999999999778,0.00920986286788839,1.2839714125405377,0.01793535534731488,0.012766566424621739
0.8140000000000001,0.0029,-0.929,0.009262439643122648,1.2940863081202951,0.018105836334217168,0.013037282738903049
0.815,-0.0061,-0.928999999999778,0.009281854476106343,1.2940863081202951,0.018168789223070775,0.013037282738903049
0.8160000000000001,-0.005,1.070999999999889,0.009317043793988886,1.2940863081202951,0.018282891117192373,0.013037282738903049
0.817,-0.0082,0.07100000000022204,0.00924868537598084,1.3266085808080896,0.018061237915504614,0.013907712860960974
0.8180000000000001,-0.0147,2.070999999999667,0.009374917461217337,1.3615482150958085,0.018470547356297967,0.014842841547374457
0.819,-0.0027,-0.929,0.009373654286412658,1.3739493285370863,0.018466451492936773,0.015174746478803087
0.8200000000000001,0.0053,-0.928999999999889,0.009366036302135292,1.37585163124399,0.01844175006398787,0.015225659943346499
0.821,0.0097,0.071,0.009621330167979813,1.37585163124399,0.01926954427550726,0.015225659943346499
0.8220000000000001,-0.0026,0.07099999999966693,0.009682589828705979,1.3717361162936692,0.019468179649612352,0.015115511793033398
0.823,-0.0072,-2.928999999999778,0.009775070020278033,1.3561137473825047,0.019768048065997152,0.01469739278244893
0.8240000000000001,0.0157,-0.928999999999889,0.009846164687242904,1.3593148117296117,0.019998573596208134,0.014783066463901498
0.825,0.0321,0.07099999999988897,0.009900546149445867,1.3593148117296117,0.020174906307833054,0.014783066463901498
0.8260000000000001,0.0053,-0.929,0.009880050259057097,1.3593148117296117,0.020108448074034,0.014783066463901498
0.827,0.0018,-0.9290000000001111,0.010074354614363113,1.3625083555469304,0.020738482877507437,0.014868538864966177
0.8280000000000001,-0.008,-1.928999999999667,0.010033674343726307,1.3583524139496683,0.02060657648624029,0.014757308730882466
0.829,0.0069,1.070999999999778,0.00998440092382899,1.346778950693313,0.020446806678854457,0.014447555131201132
0.8300000000000001,-0.0047,-0.928999999999889,0.0099881819679216,1.3625083555469304,0.020459066771367874,0.014868538864966177
0.831,0.0033,0.07099999999977795,0.010070261076481053,1.3644266095120097,0.020725209519167252,0.014919879250953061
0.8320000000000001,0.0012,-1.928999999999889,0.00997836727713588,1.3768017969560349,0.020427242488424785,0.015251090295789888
0.833,0.0034,-0.929,0.010148345213777664,1.3726891307390239,0.0209783985123763,0.015141018389326848
0.8340000000000001,-0.0024,1.071,0.010625041400350848,1.3602765286117853,0.022524093089068446,0.014808805973288543
0.835,-0.0228,2.071,0.011283287404174032,1.347749612849212,0.024658465687164677,0.014473534052998721
0.8360000000000001,-0.0094,-0.929,0.011370334469967434,1.3615482150958083,0.024940717111244758,0.01484284154737445
0.837,-0.0073,1.071,0.011407104686670274,1.3710909257498765,0.02505994509364157,0.015098243833651367
0.8380000000000001,-0.0185,0.071,0.011468657869927512,1.3742571041189287,0.025259532218981924,0.015182983822479564
0.839,-0.0004,-0.929,0.0115523170868057,1.3752083715299157,0.02553079849184327,0.015208443660929475
0.8400000000000001,-0.0026,0.071,0.011609268684815537,1.3761589813791797,0.025715464907596616,0.015233885900316234
0.841,-0.0004,0.071,0.011706048622197367,1.406785163356445,0.026029275314638195,0.016053568816468765
0.8420000000000001,0.0094,1.071,0.011721086879832839,1.4027604062659846,0.026078037091897516,0.015945849720723725
0.843,0.0039,2.071,0.011779561856224259,1.37585163124399,0.026267643085035753,0.015225659943346499
0.8440000000000001,-0.0008,2.071,0.011754833858303192,1.3726891307390239,0.026187462178715076,0.015141018389326848
0.845,-0.0084,0.071,0.011796110185015184,1.3726891307390239,0.02632130129079848,0.015141018389326848
0.8460000000000001,-0.0121,-0.929,0.011774286787497869,1.3768017969560349,0.02625053859510754,0.015251090295789888
0.847,0.0017,0.071,0.01166073260319218,1.3799548723233876,0.025882337439348854,0.015335479594262645
0.8480000000000001,-0.0074,0.071,0.011666668798245202,1.3799548723233876,0.02590158564136533,0.015335479594262645
0.849,-0.0121,0.071,0.011666948098990106,1.3799548723233876,0.02590249127824438,0.015335479594262645
0.8500000000000001,-0.0045,-0.929,0.011422902352751058,1.3934345957899992,0.02511116926424171,0.01569625257759579
0.851,0.0021,-2.929,0.011313873446068197,1.4036923574245637,0.024757641389446135,0.015970792576609022
0.8520000000000001,-0.0016,-1.929,0.011297753864005156,1.4036923574245637,0.02470537340141691,0.015970792576609022
0.853,0.0107,0.071,0.011400787042615941,1.3903120912934432,0.025039460037483575,0.015612681481683923
0.8540000000000001,0.006,-0.929,0.011642898083593986,1.4055544059556595,0.0258245087404893,0.01602062867342054
0.855,0.0104,1.071,0.011603150269684406,1.4024588858692708,0.025695625854227792,0.015937779791594414
0.8560000000000001,0.0093,0.071,0.01160184852867236,1.3993565181918386,0.02569140493935738,0.015854747639996062
0.857,0.0129,-0.929,0.011629563686992023,1.3984216774998044,0.02578127175833662,0.015829727448280574
0.8580000000000001,0.0139,1.071,0.01167531643328563,1.396550118789916,0.025929625728447394,0.01577963681986954
0.859,0.0131,3.071,0.011683809021096874,1.4361426821796894,0.0259571630725497,0.016839297075312887
0.8600000000000001,-0.0007,1.071,0.011986452736747056,1.4619421499392629,0.026938489886412575,0.017529797216141695
0.861,-0.0026,-1.929,0.011995377329815685,1.4726108067718857,0.026967428014079444,0.017815334464972993
0.8620000000000001,0.0028,-2.929,0.01199799787920847,1.4717224980670525,0.026975925185020753,0.017791559661108704
0.863,0.0107,-1.929,0.012001701095023071,1.4571724792940972,0.02698793291816856,0.01740214116203679
0.8640000000000001,-0.006,-0.929,0.012125242486607887,1.4678758029426129,0.027388517744202902,0.01768860623780929
0.865,-0.0083,0.071,0.012123152621089038,1.5202624987567008,0.027381741323729048,0.019090690233273144
0.8660000000000001,0.0014,3.071,0.012114321043510583,1.5480403802663578,0.02735310480019236,0.019834140884003208
0.867,-0.0153,3.071,0.012133989968580033,1.5969822272937606,0.027416881586467417,0.021144026521171186
0.8680000000000001,0.0002,2.071,0.01210606127674006,1.610269452978836,0.02732632238182707,0.021499647470109722
0.869,0.002,2.071,0.012026116524646663,1.6102694529788402,0.02706710031706908,0.021499647470109837
0.8700000000000001,-0.022,0.071,0.012024107224621819,1.6102694529788402,0.027060585131425,0.021499647470109837
0.871,-0.0123,0.071,0.012037576904367703,1.6102694529788406,0.027104260771212814,0.021499647470109847
0.8720000000000001,-0.0152,0.071,0.012032165617137458,1.6102694529788406,0.02708671459073077,0.021499647470109847
0.873,-0.0128,-0.929,0.012048197288745349,1.6102694529788408,0.027138697527782907,0.021499647470109854
0.8740000000000001,-0.0107,-0.929,0.012034602239787506,1.5860590115444655,0.027094615376433925,0.020851676226061204
0.875,-0.0042,-0.929,0.011935300106088155,1.5860590115444662,0.026772626709781394,0.020851676226061225
0.8760000000000001,0.0259,-0.929,0.011540704957927276,1.5896197427541339,0.025493145988767348,0.020946976075834935
0.877,0.0127,0.071,0.011538508615237048,1.5868833180186968,0.02548602431445892,0.02087373806632268
0.8779999999999999,-0.0073,1.071,0.011537752799925034,1.5975361906269776,0.025483573571907028,0.021158852864224656
0.8790000000000002,-0.003700000000004397,2.071,0.011537059702142407,1.5885306477418926,0.025481326191890363,0.02091782740244614
0.8800000000000001,-0.0136,2.071,0.011625195937445338,1.587707196529216,0.025767109264536965,0.02089578845251052
0.881,-0.0049,2.071,0.011672750810233928,1.5849674698122274,0.025921306656995702,0.020822462068356293
0.8819999999999999,0.0193,0.071,0.011732307624319864,1.5885306477418948,0.02611442052517967,0.020917827402446198
0.8830000000000002,0.03560000000000129,-0.929,0.011985786133844668,1.5767197264320336,0.026936328416444808,0.020601718446099575
0.8840000000000001,0.0385,-0.929,0.011984966738984528,1.5739608744095948,0.026933671516248914,0.02052788018990869
0.885,0.0141,-1.929,0.011982478308047622,1.5731297967007036,0.026925602741394012,0.02050563712348667
0.8859999999999999,0.0108,-1.929,0.011765414859780672,1.5623105139218225,0.02622177123563723,0.020216068503230464
0.8870000000000002,0.013699999999986766,-0.929,0.011765470269478395,1.5868833180187036,0.02622195090241804,0.020873738066322863
0.8880000000000001,-0.0161,1.071,0.01174381015619358,1.5833164328565976,0.026151717658314384,0.020778273511406205
0.889,-0.0121,1.071,0.011596446310258461,1.5833164328565974,0.025673888164649158,0.0207782735114062
0.8899999999999999,-0.0158,3.071,0.011630820291105164,1.5923514650043284,0.025785346316131375,0.021020088227451498
0.8910000000000002,-0.006000000000003863,0.071,0.011635560590966779,1.6040472908230614,0.025800716809947704,0.021333116753861604
0.8920000000000001,-0.0147,1.071,0.011640306371123987,1.6040472908230612,0.02581610507370518,0.021333116753861597
0.893,-0.0013,0.071,0.01161120985863386,1.6121552331707596,0.025721759192988254,0.021550118724022016
0.8939999999999999,-0.0132,-0.929,0.01161809414911847,1.598883678988327,0.0257440816087452,0.021194917209115323
0.8950000000000002,-0.006699999999997469,1.071,0.01165071559713511,1.5890630196700628,0.025849857146086157,0.020932075870468837
0.8960000000000001,-0.001,-0.929,0.011622242127820986,1.5926170346116626,0.025757531492267036,0.021027195965214657
0.897,0.0045,0.071,0.011598779441958699,1.589885768659986,0.02568145337938622,0.020954096026027973
0.8979999999999999,-0.0035,-0.929,0.011598769628229309,1.5934379485376453,0.02568142155822062,0.021049167006895894
0.8990000000000002,0.0009000000000004441,-1.929,0.011577882088248373,1.5961631362074322,0.025613693394710303,0.021122104266195537
0.9000000000000001,0.0019,-1.929,0.01152041345763534,1.5997013770825643,0.02542735049294083,0.02121680218187864
0.901,-0.0067,0.071,0.011514714517087708,1.5969822272937675,0.02540887159223745,0.02114402652117137
0.9019999999999999,-0.019,0.071,0.011514060758962504,1.5698010860134768,0.025406751771653482,0.0204165470996254
0.9030000000000002,-0.023699999999991162,2.071,0.011523534634391411,1.55784817185556,0.02543747095566036,0.02009663782916017
0.9040000000000001,-0.0038,0.071,0.011476806384319454,1.55784817185556,0.025285953899831237,0.02009663782916017
0.905,0.0151,0.071,0.01148822944830669,1.555055839835348,0.025322993357145142,0.02002190351017479
0.9059999999999999,0.0082,-0.929,0.011441965490476507,1.5514157813280456,0.02517298177591457,0.019924480534811866
0.9070000000000003,0.010399999999997423,-1.929,0.011410021080782437,1.5550558398353473,0.025069401545548754,0.020021903510174768
0.9080000000000001,0.0046,-3.929,0.01134574786786557,1.552258484743545,0.024860994683001035,0.01994703475308109
0.909,0.0286,-2.929,0.0112611006337132,1.5486118509833302,0.024586524749222315,0.01984943579683731
0.9099999999999999,0.0123,2.071,0.01121856008951309,1.5302483369520339,0.024448586392860936,0.019357952439781747
0.9110000000000003,-0.002599999999996447,-0.929,0.011218367366370162,1.5293935058838997,0.024447961485162453,0.019335073635519884
0.9120000000000001,0.0054,0.071,0.011379309169043587,1.5199842875148926,0.024969817708396954,0.019083244153243938
0.913,0.0174,2.071,0.011376032331080676,1.4943117851361458,0.024959192511865846,0.018396142129545226
0.9139999999999999,0.0018,4.071,0.01132738523088531,1.4817500423827876,0.024801453555562628,0.018059938095373613
0.9150000000000003,-0.003999999999994405,3.071,0.011462388635422658,1.4914004994129122,0.02523920413151845,0.018318224118963795
0.9160000000000001,0.0086,4.071,0.01173629246601936,1.4951866733292514,0.026127341434508036,0.01841955774517647
0.917,0.0006,2.071,0.011735537928447013,1.4664079358391904,0.02612489483504628,0.01764932006140144
0.9179999999999999,0.005,2.071,0.011641118666663874,1.4340254596537774,0.025818738954248046,0.016782631470195288
0.9190000000000003,-0.001600000000002709,-0.929,0.011720823000188684,1.4190889831263607,0.026077181458170295,0.016382869768063264
0.9200000000000002,-0.0077,-0.929,0.011768365038397519,1.4070857566878003,0.026231337234310544,0.016061613933506348
0.921,0.009,0.071,0.011563058403216045,1.4101711201912235,0.02556562737235385,0.01614419098329185
0.9219999999999999,0.0068,0.071,0.011506776234039333,1.4141747864651242,0.025383131589691327,0.0162513456018182
0.9230000000000003,-0.0043999999999992006,-0.929,0.011455837365211014,1.4141747864651242,0.02521796153902075,0.0162513456018182
0.9240000000000002,-0.0026,-0.929,0.01138740970195454,1.4141747864651242,0.024996083808570286,0.0162513456018182
0.925,0.0101,1.071,0.01133717428003915,1.4110981769976139,0.024833194695127504,0.016169002846130816
0.9259999999999999,-0.0047,0.071,0.011374564327365904,1.4080148449424454,0.024954432487673497,0.016086480166277246
0.9269999999999998,0.0012,2.071,0.011091750703715701,1.4080148449424454,0.024037405046289383,0.016086480166277246
0.9280000000000002,-0.0079,-0.929,0.011019596759299538,1.4080148449424454,0.023803444792961686,0.016086480166277246
0.929,-0.0158,-0.929,0.010996642551735065,1.4343203441940928,0.023729015428632746,0.016790523796444558
0.9299999999999999,-0.0115,0.071,0.010990516723454925,1.4193869707956466,0.02370915233801642,0.01639084514683947
0.9309999999999998,-0.0122,1.071,0.010919092246382713,1.4042948037929297,0.023477557393556673,0.01598691652560189
0.9320000000000002,-0.0245,0.071,0.010918204489853431,1.4024310828524107,0.023474678829617242,0.015937035668218063
0.933,-0.003,0.071,0.01097901236713032,1.4055266641719308,0.023671849289072174,0.01601988618889528
0.9339999999999999,-0.0001,-0.929,0.010675802526657818,1.4055266641719308,0.02268868680693202,0.01601988618889528
0.9349999999999998,-0.0025,-0.929,0.01020904296829264,1.4024310828524107,0.02117521189711435,0.015937035668218063
0.9360000000000002,0.0095,-2.929,0.010318486875789004,1.4024310828524107,0.021530085418308663,0.015937035668218063
0.937,-0.0017,0.071,0.010269506522091002,1.3921640279086709,0.021371265882495487,0.015662246941930528
0.938,0.0002,0.07099999999977795,0.01018179774691301,1.4024310828524107,0.02108686885575292,0.015937035668218063
0.9389999999999998,-0.0089,-1.929,0.010456074925111563,1.3983937942147324,0.021976216743974052,0.015828981176595886
0.9400000000000002,-0.0042,-1.928999999999778,0.010880550520271936,1.3983937942147324,0.023352585265178555,0.015828981176595886
0.9410000000000001,0.0034,0.07099999999977795,0.010885062571371751,1.3799266158915722,0.023367215658941252,0.015334723335632438
0.942,0.0045,-1.928999999999778,0.010893783479416826,1.3840177757884022,0.023395493334846335,0.01544421964428656
0.9429999999999998,0.0056,0.07100000000011102,0.010793650823539466,1.3840177757884022,0.023070811687501844,0.01544421964428656
0.9440000000000002,0.0088,1.071,0.010811495238599304,1.3840177757884022,0.02312867247254507,0.01544421964428656
0.9450000000000001,0.0023,1.070999999999889,0.010730048136588744,1.3808739776498742,0.02286457901551531,0.015360078642711618
0.946,-0.0096,0.07100000000011102,0.010710253003371835,1.3799266158915722,0.022800392997418064,0.015334723335632438
0.9469999999999998,-0.0016,1.070999999999778,0.01070974268516467,1.4076867507870305,0.022798738282932357,0.01607769901378874
0.9480000000000002,0.0027,-0.928999999999778,0.01070146632120243,1.4227429371625666,0.02277190204792254,0.016480664645077574
0.9490000000000001,-0.0038,1.070999999999889,0.010699375202046698,1.4227429371625666,0.02276512156251218,0.016480664645077574
0.95,-0.0027,0.071,0.010700301736337388,1.413548966468051,0.022768125863928002,0.016234596078140442
0.9509999999999998,-0.0016,0.071,0.010702221260660434,1.415398048045896,0.02277434995050459,0.016284085125814002
0.9520000000000002,0.005,0.071,0.010682204442050633,1.4184653312505804,0.022709445114176413,0.016366178272251508
0.9530000000000001,0.0025,0.071,0.010542553945386116,1.4184653312505804,0.022256626271889388,0.016366178272251508
0.954,0.0079,0.071,0.010273685976095034,1.416620253332054,0.021384817825157346,0.016316796379010325
0.9549999999999998,0.0011,0.07100000000011102,0.010282036709929516,1.4196848959181976,0.021411895205599902,0.01639881885160714
0.9560000000000002,0.0036,1.070999999999889,0.010214161036667791,1.4196848959181974,0.021191807311035073,0.016398818851607135
0.9570000000000001,0.0044,0.071,0.01018885612040481,1.4297543373761639,0.021109755738287,0.01666831862616017
0.958,-0.0007,0.07099999999977795,0.010139570613279206,1.416620253332054,0.02094994673788109,0.016316796379010325
0.9589999999999999,-0.0086,-1.928999999999889,0.010145105623230259,1.376466262886392,0.020967894091151906,0.015242110020518304
0.9600000000000002,0.0004,-0.929,0.009745640688925073,1.3490331080717302,0.01967262301509639,0.014507885677619856
0.9610000000000001,0.0193,-0.929,0.009678985146668302,1.3490331080717302,0.019456491413722757,0.014507885677619856
0.962,0.0004,-0.929,0.009802665441101702,1.3500021494717316,0.019857526634339203,0.014533821221306475
0.9629999999999999,-0.0017,0.071,0.009821879577577396,1.3656944315925559,0.019919828761737788,0.014953811397667141
0.9640000000000002,0.0186,-1.929,0.009668764538377148,1.3500021494717316,0.01942335093714438,0.014533821221306475
0.9650000000000001,0.0266,1.071,0.009681948042441659,1.2907234836775645,0.019466098647967917,0.012947279690277116
0.966,-0.0002,-0.929,0.009683248277343688,1.2538117466190128,0.01947031467925388,0.011959369401790326
0.9669999999999999,-0.0038,0.071,0.009651914963758534,1.1897500593394699,0.019368715937240592,0.010244814493120114
0.9680000000000002,-0.0136,0.071,0.009655133372462103,1.1717037709223492,0.019379151676016785,0.009761821401573285
0.9690000000000001,-0.0107,-0.929,0.009675164463648135,1.1571372051043578,0.01944410279138872,0.009371960035344795
0.97,0.0027,-0.929,0.009674336858999022,1.1901054720200448,0.019441419270828222,0.010254326801989287
0.9709999999999999,0.0048,1.071,0.009649817262802365,1.1912038076822422,0.01936191411024302,0.01028372279327454
0.9720000000000002,-0.0107,0.071,0.009689851472329617,1.1959407384519463,0.01949172563861557,0.010410502593309882
0.9730000000000001,0.003,-0.929,0.009673546257742272,1.2136266834548446,0.01943885573432572,0.010883851409223353
0.974,0.0012,0.071,0.009804078024523138,1.2147037514135761,0.0198621069573943,0.010912678189066915
0.9749999999999999,-0.0101,0.071,0.009805577292077892,1.2147037514135761,0.019866968355059453,0.010912678189066915
0.9760000000000002,-0.0057,-0.929,0.009768583407831486,1.2253905452309017,0.019747015127278247,0.011198700858396346
0.9770000000000001,0.0008,0.071,0.009757718490820001,1.2299958238927464,0.01971178546995376,0.011321957105160572
0.978,0.0019,-2.929,0.00978244879665761,1.2125486587716705,0.01979197385972864,0.010854999023488673
0.9789999999999999,0.0008,0.071,0.009764225044619539,1.2089590515568698,0.019732883068810585,0.01075892633274798
0.9800000000000002,0.0055,0.071,0.009657677018571332,1.2053587543937265,0.019387399486900953,0.010662567534909854
0.9810000000000001,-0.0047,-1.929,0.009651826764304372,1.2089590515568698,0.019368429949179842,0.01075892633274798
0.982,-0.0224,-0.929,0.009584137831882623,1.2042733285633196,0.019148947564605917,0.010633517063956743
0.9829999999999999,-0.0246,-0.929,0.009659643099988291,1.2042733285633196,0.01939377453555694,0.010633517063956743
0.9840000000000002,-0.0224,0.071,0.009691714620935581,1.239496282580972,0.019497766926079,0.011576228554606417
0.9850000000000001,-0.0205,-1.929,0.009820510988380425,1.239496282580972,0.019915391090619242,0.011576228554606417
0.986,-0.0038,-0.929,0.009835854276789811,1.2510169047937518,0.019965141934764858,0.011884567910072696
0.9869999999999999,0.0027,-1.929,0.009831174642998835,1.2314020604709286,0.019949968151597813,0.011359593794580767
0.9880000000000002,0.0288,0.071,0.009897288132495687,1.2314020604709286,0.02016434213871967,0.011359593794580767
0.9890000000000001,0.0325,1.071,0.009910648149882293,1.2359849404359093,0.020207662196653087,0.011482250559856341
0.99,0.0162,2.071,0.00987458154394311,1.2243228787524425,0.02009071568277253,0.011170125700931684
0.9909999999999999,0.0075,1.071,0.009869571949685628,1.2089590515568738,0.020074471997814862,0.010758926332748086
0.9920000000000002,-0.0005,1.071,0.009867159847262285,1.2136266834548444,0.02006665071931673,0.010883851409223348
0.9930000000000001,0.0064,0.071,0.009857771407812702,1.1981257044643656,0.020036208562761747,0.01046898129346531
0.994,-0.0001,0.071,0.009910785567552259,1.215779865190591,0.02020810777552112,0.01094147943107319
0.9949999999999999,0.0018,-0.929,0.010085645362178833,1.2285879777432143,0.020775093297638995,0.011284277336974015
0.9960000000000002,0.0,-2.929,0.010154834113314701,1.2275230923084683,0.020999438867020628,0.0112557766117067
0.9970000000000001,0.0015,2.071,0.010146680144585344,1.2321204002056185,0.020972999500399957,0.011378819527940412
0.998,-0.0028,-0.929,0.010235384556562083,1.2321204002056205,0.021260624894483243,0.011378819527940466
0.9989999999999999,-0.0016,1.071,0.010237747613849078,1.2321204002056223,0.02126828714338684,0.011378819527940514
1.0000000000000002,-0.0027,2.071,0.010245580738795553,1.2890236570138338,0.021293686169201076,0.012901785319554873
1.0010000000000001,-0.0016,-0.928999999999778,0.010529776877972937,1.3802330586099474,0.022215196438039545,0.0153429250063865
1.002,-0.0081,0.071,0.010656277480910652,1.393710091509404,0.02262537655153012,0.015703625979048084
1.003,0.0021,-1.928999999999778,0.010687542612158138,1.4070580450964105,0.022726754211284877,0.01606087225705257
1.0040000000000002,0.005700000000001643,-0.929,0.010710000238986436,1.4101434692321995,0.02279957340508505,0.016143450929610198
1.0050000000000001,0.0094,0.0709999999995559,0.010761852570350706,1.4101434692321995,0.022967705371809505,0.016143450929610198
1.006,0.0039,-1.929,0.010769349311968327,1.4101434692321995,0.022992013669605044,0.016143450929610198
1.007,-0.0026,0.07100000000044408,0.01093082585577757,1.4092157843685993,0.023515603799039865,0.016118622257370516
1.0080000000000002,0.005699999999999512,2.071,0.010922486550123364,1.412296494529848,0.023488563474644262,0.016201074764531465
1.0090000000000001,0.0046,1.071000000000222,0.010922942732822708,1.4254704176364652,0.023490042653929136,0.01655366326926958
1.01,-0.0045,2.071,0.010934064252961739,1.4153704992011782,0.02352610435076596,0.01628334780513225
1.011,-0.0157,1.071000000000222,0.010934017893284024,1.4122964945298495,0.02352595402881156,0.016201074764531507
1.0120000000000002,-0.008099999999997113,2.071,0.0111152298074929,1.4092157843686008,0.02411353639450699,0.016118622257370558
1.0130000000000001,-0.0016,0.07099999999977795,0.01180467923027845,1.410143469232202,0.026349086549342447,0.016143450929610264
1.014,-0.0053,-0.929,0.011826853280074615,1.4251737019475377,0.026420986240337715,0.016545721933932746
1.015,-0.0043,0.07099999999977795,0.011759865524430233,1.4159955141453582,0.026203777432042785,0.016300075782274964
1.0160000000000002,-0.0034999999999972913,-0.929,0.011482998912623298,1.4119970104881483,0.0253060332662807,0.016193059336659207
1.0170000000000001,0.0026,0.07099999999977795,0.011555725330005588,1.4391386593107869,0.02554184977183774,0.016919481777192057
1.018,0.008,-0.929,0.011578725506861306,1.468739890302541,0.025616428192287065,0.01771173277860769
1.019,0.0011,-2.9289999999991116,0.011566276853338055,1.4814119577151055,0.025576063245429964,0.018050889555581158
1.0200000000000002,0.0036000000000039967,1.071,0.011547913751743634,1.5073041868039387,0.025516520611473137,0.018743872372080424
1.0210000000000001,0.0126,1.071000000000222,0.011707501331310141,1.5167920665352828,0.02603398574585282,0.018997807156771043
1.022,-0.0037,2.071,0.011810128649272658,1.5130599573883594,0.026366756372644417,0.018897920526722917
1.023,0.0166,1.0709999999995559,0.01183661942229468,1.5130599573883594,0.026452653103824237,0.018897920526722917
1.0240000000000002,0.0032000000000009772,-0.929,0.011845462416644631,1.513924011156664,0.026481326646414744,0.018921046168470956
1.0250000000000001,0.0054,-1.929,0.01184579252561859,1.5279336989743049,0.02648239702974303,0.019296003183134913
1.026,-0.0011,1.071,0.011869893573466623,1.6096956484760865,0.026560545040993342,0.021484290095544905
1.027,-0.007,0.071,0.011859408363268716,1.6105078570523859,0.02652654658874037,0.021506028146172286
1.0280000000000002,-0.005200000000000622,0.071,0.011862121739961977,1.6105078570523859,0.02653534475360392,0.021506028146172286
1.0290000000000001,-0.0066,0.071,0.011872302503169634,1.5835588947002874,0.026568356031897937,0.020784762790129845
1.03,-0.011,-0.929,0.011874382210015787,1.5871252349568088,0.02657509951272231,0.02088021276112615
1.031,-0.0044,0.071,0.011916953763555213,1.5871252349568088,0.026713138417334248,0.02088021276112615
1.0320000000000003,-0.02729999999999161,0.071,0.01197341425451952,1.578888763274232,0.02689621241108332,0.020659770815976284
1.0330000000000001,-0.0084,-2.929,0.011798209721376686,1.5797168112349291,0.026328109069125534,0.020681932793843526
1.034,0.0159,-0.929,0.011541414840859309,1.5797168112349291,0.02549544779488419,0.020681932793843526
1.035,0.0061,-1.929,0.011343566988285024,1.582465628456411,0.024853923148059037,0.0207555024773825
1.0360000000000003,0.009000000000001155,-1.929,0.011167832599171637,1.5742047772138388,0.024284101740123003,0.02053440803467853
1.0370000000000001,0.0116,0.071,0.011373137557795194,1.5750352877023075,0.02494980616581536,0.02055663591994313
1.038,-0.0051,1.071,0.011371102937873204,1.566735259341673,0.024943208880022792,0.02033449293601376
1.039,-0.0029,-0.929,0.011001969511568673,1.5695068124771265,0.023746288176258977,0.0204086711263617
1.0400000000000003,0.0028999999999976015,0.071,0.01057037638065682,1.565900346752564,0.022346840938000826,0.02031214723238406
1.0410000000000001,-0.0025,1.071,0.010456109640509246,1.552233364882736,0.02197632930917478,0.019946362442024603
1.042,-0.0011,0.071,0.010433126336582063,1.5485866719699197,0.021901805599450788,0.019848761902613296
1.043,-0.0116,2.071,0.010436356927152841,1.5586623813562643,0.021912280838115188,0.020118429432775402
1.0440000000000003,-0.02059999999999618,2.071,0.010562202026934617,1.5586623813562646,0.02232033547273331,0.02011842943277541
1.0450000000000002,-0.012,-0.929,0.010677555976897773,1.561448263825245,0.02269437239578869,0.020192991135175243
1.046,-0.0087,1.071,0.01081945893387414,1.5706090990919932,0.023154494874618875,0.020438172861432055
1.047,-0.0135,1.071,0.01093790666899537,1.570609099091993,0.023538563442724036,0.02043817286143205
1.0480000000000003,-0.003399999999996003,-0.929,0.010939472765505468,1.559772331718201,0.023543641534285113,0.02014813628131866
1.0490000000000002,0.0056,-3.929,0.011029472836264846,1.5868587462666208,0.0238354681215182,0.020873080424916007
1.05,0.0245,-4.929,0.011055417234553713,1.6126798062564964,0.023919593224382824,0.021564158462862824
1.051,0.0165,-1.929,0.011067458442336196,1.5994126048655712,0.023958637022278507,0.02120907344660552
1.0520000000000003,0.009599999999999023,-1.929,0.011165380681148418,1.6002300326851433,0.024276151358941588,0.02123095118570432
1.0530000000000002,0.0074,-0.929,0.011215318409510625,1.6002300326851433,0.024438075196546987,0.02123095118570432
1.054,0.0132,0.071,0.011275841792012232,1.5912397355394985,0.024634323177401007,0.020990333762778722
1.055,0.0042,0.071,0.011452981270573887,1.5920613596417796,0.025208700609071082,0.021012323811706108
1.0559999999999998,0.0191,-0.929,0.011454574463719029,1.5920613596417796,0.025213866561880086,0.021012323811706108
