time_sec,bts_raw,diy_raw,bts_rms,diy_rms,bts_norm_rms,diy_norm_rms
0.0,-0.0059999999999992455,-1.28,0.018516829574704807,0.8784180816699901,0.07875235634396296,0.010567444376799861
0.0010000000000000009,0.0008000000000032641,-0.28,0.018477891700565376,0.8819297607218262,0.07855153518135963,0.010885389698974044
0.0020000000000000018,0.0302000000000031,-0.28,0.018470330859780188,0.8821887691758128,0.07851254032428799,0.010908840169570314
0.0030000000000000027,0.05809999999999476,-1.28,0.01846368914683033,0.8856854978501157,0.07847828584723329,0.011225431893499551
0.0040000000000000036,0.010899999999997913,-1.28,0.0184043198661677,0.8939635717891926,0.07817209018994341,0.011974923759553033
0.0050000000000000044,-0.007900000000000644,-0.28,0.01840150106338842,0.8942190946849485,0.07815755228144698,0.01199805864979066
0.006000000000000005,-0.013699999999998269,-1.28,0.01839894108169209,0.8944745445859523,0.07814434923654885,0.012021186931127062
0.007000000000000006,0.0018999999999973465,1.72,0.01842621675443405,0.8947299215547252,0.07828502287197164,0.012044308609222874
0.008000000000000007,-0.021999999999996623,-0.28,0.01838450917045855,0.8981778271408155,0.07806991699656242,0.012356479919930354
0.009000000000000008,0.008399999999999555,2.7199999999999966,0.018266641057377204,0.9063418095572334,0.07746201499816112,0.01309564200772287
0.010000000000000009,0.004399999999998802,0.72,0.018259848122136,0.9065938436612937,0.07742698059572449,0.01311846102484587
0.01100000000000001,-0.006399999999996703,-1.28,0.018269206033003926,0.906845807719061,0.07747524379913683,0.013141273700019374
0.01200000000000001,0.023300000000000445,-0.28,0.018300144996496168,0.910247820991464,0.0776348107697425,0.013449289948078685
0.013000000000000012,0.0273000000000004,1.7199999999999982,0.01823822977290045,0.9104987738776951,0.07731548447214305,0.013472011072385753
0.013999999999999901,0.0309,0.72,0.017871496045378583,0.9107496576150136,0.07542406396821218,0.01349472593599161
0.014999999999999902,0.0277,-0.28,0.01789532275760464,0.9110004722605485,0.07554694967155381,0.013517434544068679
0.015999999999999903,-0.005,-1.28,0.017986261428493903,0.9190505573922612,0.07601596371038372,0.01424628443978845
0.016999999999999904,-0.0267,-0.28,0.0178382565166849,0.9270307403895027,0.07525263188712963,0.014968805438038659
0.017999999999999905,-0.0387,0.72,0.017823413052600042,0.9272771512553232,0.07517607707307102,0.014991115330532831
0.018999999999999906,-0.0278,0.72,0.017829203117284934,0.930604476607683,0.0752059391943929,0.015292369378957688
0.019999999999999907,0.015,0.72,0.017750966708051374,0.9714196717085363,0.07480243676886414,0.018987752745258817
0.020999999999999908,0.0208,0.72,0.017931653949691536,0.9789730564047225,0.07573432693327924,0.01967163168045902
0.02199999999999991,0.0158,-0.28,0.017908404465615063,1.0036909169268655,0.07561441827043221,0.021909571996519616
0.02299999999999991,0.0206,0.72,0.01773861346702768,1.003918511799922,0.07473872522119684,0.021930178300276597
0.02399999999999991,-0.0011,-0.28,0.017463209379086044,1.00414605508743,0.07331833516784912,0.021950779933508836
0.02499999999999991,-0.0051,-1.28,0.01741871383299706,1.0199097664101047,0.07308885044394603,0.023378016933578133
0.025999999999999912,-0.0231,-1.28,0.01753727536844571,1.0271066148179544,0.0737003287517647,0.024029615286359315
0.026999999999999913,-0.0199,-1.28,0.017840589325150348,1.0342533851947895,0.07526466329147607,0.024676679604147617
0.027999999999999914,-0.0286,-0.28,0.017986397526324367,1.034474256035383,0.07601666563171726,0.024696677118024823
0.028999999999999915,-0.0206,-0.28,0.018282979336188093,1.0497826527767666,0.07754627928372512,0.026082690208077765
0.029999999999999916,0.0114,-0.28,0.01811340942379351,1.050000256992399,0.07667172648128687,0.02610239196368368
0.030999999999999917,0.0071,0.72,0.017699529950314215,1.0569922451315277,0.07453715291047129,0.02673544239019434
0.03199999999999992,-0.0049,1.72,0.017502078584077083,1.0599124411526923,0.07351880217094786,0.0269998351923428
0.03299999999999992,0.006,-1.28,0.017502571476000543,1.060127966107553,0.07352134424935597,0.02701934869292138
0.03399999999999992,0.0223,-0.28,0.01760936482410029,1.0750711307603809,0.07407212840996265,0.028372293888001537
0.03499999999999992,0.0252,2.72,0.01760936482410029,1.077942351351164,0.07407212840996265,0.02863225248395932
0.03599999999999992,0.0063,0.7200000000000207,0.01765435819511732,1.0781542721009614,0.07430418065412801,0.02865143966196596
0.03699999999999992,0.0183,3.72,0.017411347090120967,1.0849648386162738,0.07305085664223823,0.029268064283104835
0.03799999999999992,-0.0064,-1.28,0.017315736771681797,1.0851753879657957,0.0725577486919409,0.029287127295350303
0.038999999999999924,-0.0031,-1.28,0.017268599336065345,1.0997782750708351,0.07231463848544274,0.030609263964661675
0.039999999999999925,-0.0237,-1.28,0.01722338927234001,1.1345235744654414,0.07208146865377238,0.033755082602125355
0.040999999999999925,-0.0139,0.72,0.017094750584160486,1.1484991827114674,0.07141801766968743,0.03502042581851061
0.041999999999999926,-0.0382,1.72,0.017084727244915433,1.1511872781311392,0.07136632253519828,0.035263804370942856
0.04299999999999993,-0.002,0.7200000000000069,0.017044656340689534,1.1538691112830142,0.07115965779678969,0.03550661594139218
0.04399999999999993,0.0219,1.72,0.01702877495531803,1.1602353177511606,0.07107774992830573,0.03608300846948609
0.04499999999999993,0.0089,-1.28,0.016900089868005227,1.1604322100709779,0.0704140596417911,0.03610083498242587
0.04599999999999993,-0.0031,0.72,0.01682037175905871,1.1606290689894392,0.07000291538512589,0.036118658471226854
0.04699999999999993,0.0006,0.72,0.016822655191990967,1.160825894523537,0.07001469213633066,0.036136478937427524
0.04799999999999993,-0.0092,-1.28,0.016736722943730152,1.1634855108846187,0.06957149860349779,0.03637727901291897
0.04899999999999993,0.0057,0.72,0.016729600124632277,1.1636818532792887,0.06953476283289238,0.03639505573596465
0.04999999999999993,0.0031,0.72,0.01655501947145404,1.1699946676099013,0.068634367253674,0.03696661417184251
0.050999999999999934,0.0101,-0.2799999999999931,0.01663954626226928,1.1845516735063142,0.06907031217305666,0.03828459678395127
0.051999999999999935,-0.0055,0.7199999999999861,0.016644150752841244,1.1845516735063142,0.06909405972400273,0.03828459678395127
0.052999999999999936,0.0043,-1.28,0.016378229115394903,1.186965678625799,0.0677225751842425,0.038503159364447745
0.05399999999999994,-0.0011,-0.28,0.015313671791096396,1.180937075912429,0.06223214602629729,0.03795733327850164
0.05499999999999994,0.0004,-0.28,0.015327618602240984,1.1881864089239444,0.06230407637407735,0.03861368355592497
0.05599999999999994,-0.0101,-0.28,0.015307218525466005,1.1941784151970696,0.06219886346182439,0.03915619622204758
0.05699999999999994,-0.0065,0.72,0.015266165420721631,1.1881864089239444,0.06198713304753109,0.03861368355592497
0.05799999999999994,0.0072,-1.28,0.015268989288338308,1.1748775392753026,0.062001697077806305,0.037408706453590033
0.05899999999999994,0.0018,-0.28,0.015109591958763708,1.1953608334873624,0.061179609130056115,0.03926325166723562
0.05999999999999994,-0.0095,-0.28,0.015129306234350022,1.1626319095692408,0.061281285038939835,0.03629999446008256
0.06099999999999994,-0.0109,0.72,0.015204255243143922,1.1601672733358863,0.061667832774649864,0.036076847768802114
0.061999999999999944,0.0014,-0.28,0.015261768368030806,1.1564764641693377,0.06196445535253835,0.03574268411312059
0.06299999999999994,0.0029,-0.28,0.015083786555464088,1.1699946676099007,0.06104651837442008,0.036966614171842445
0.06399999999999995,0.0134,-0.28,0.014839631206445141,1.15894894935308,0.05978729295111537,0.03596654144367728
0.06499999999999995,0.0225,-1.28,0.014525249952993228,1.177279959108973,0.05816587909085082,0.037626220109234235
0.06599999999999995,0.0036,-1.28,0.014258799234264031,1.177279959108973,0.0567916658269195,0.037626220109234235
0.06699999999999995,-0.0044,-0.28,0.014271371971278046,1.1712015015139878,0.05685650941995232,0.03707588019210848
0.06799999999999995,-0.0066,0.72,0.014290422174344078,1.1772799591089729,0.05695476039055876,0.037626220109234214
0.06899999999999995,0.0046,2.72,0.01383045665362932,1.1809057507107146,0.05458249912389012,0.037954497113463714
0.06999999999999995,-0.0255,-1.28,0.013730281189031168,1.1845204438943409,0.05406584654052376,0.038281769273551355
0.07099999999999995,0.005,-2.2799999999999723,0.013664567967946115,1.214305724297483,0.053726932160928824,0.04097851075648219
0.07199999999999995,0.009,-0.28,0.013506888899543826,1.2143057242974833,0.052913706104432495,0.04097851075648221
0.07299999999999995,-0.0019,-0.28,0.013498882299268457,1.227187068918029,0.05287241225335983,0.04214477999833528
0.07399999999999995,-0.0117,1.72,0.013349508080111903,1.2559609118828547,0.052102018259928926,0.04474994654020867
0.07499999999999996,0.0209,-1.28,0.013362955830820585,1.2582379215421091,0.052171374715344214,0.04495610563362777
0.07599999999999996,0.0339,-1.28,0.013662244225262393,1.258237921542109,0.05371494751313667,0.04495610563362775
0.07699999999999996,-0.026,-0.28,0.013980409971870363,1.2525524029898312,0.055355879807118036,0.04444134218254126
0.07799999999999996,-0.0344,1.72,0.014049622426816314,1.2525524029898312,0.055712841402378886,0.04444134218254126
0.07899999999999996,0.0042,-0.28,0.013757800801639328,1.2525524029898312,0.05420777829002233,0.04444134218254126
0.07999999999999996,-0.0027,-1.28,0.01375930207879124,1.27178528540694,0.05421552109133596,0.046182675859731584
0.08099999999999996,0.0035,0.72,0.014202606093608183,1.2907316150616377,0.056501851036403934,0.04789806522110607
0.08199999999999996,-0.0023,-0.28,0.014278282338742907,1.2885120283065383,0.05689214947629799,0.04769710516310343
0.08299999999999996,0.0242,1.72,0.014473690978049068,1.2784906695246687,0.05789996490011081,0.04678977732946819
0.08399999999999996,0.0003,0.72,0.014514290870251719,1.275142385037696,0.05810935788146647,0.04648662565352424
0.08499999999999996,-0.0128,-0.28,0.015172056632298514,1.2874151669829015,0.061501769202688204,0.047597795994532975
0.08599999999999997,-0.0009,-1.2799999999999863,0.015374374818962434,1.2695325742763035,0.06254522045316376,0.045978716740568595
0.08699999999999997,0.0026,-0.27999999999997227,0.015366968603122444,1.2796240901833678,0.06250702307058062,0.04689239655838108
0.08799999999999997,0.0124,1.72,0.01530167139578744,1.2225131459667968,0.0621702542720373,0.041721605808265186
0.08899999999999997,0.0036,2.72,0.015290311520334792,1.2364519954420554,0.0621116659837486,0.04298362090751848
0.08999999999999997,-0.0153,1.72,0.015476042579915967,1.2306658328163802,0.06306956951959858,0.04245974520218866
0.09099999999999997,0.0013,0.72,0.015298118332960202,1.2376239158761508,0.062151929434753846,0.04308972588308171
0.09199999999999997,0.0035,0.72,0.015385826112533764,1.2376239158761504,0.0626042802282319,0.043089725883081666
0.09299999999999997,0.0052,-1.28,0.015102428780270617,1.2306658328163798,0.06114266520682685,0.04245974520218862
0.09399999999999997,-0.0114,-0.28,0.015247869275760098,1.2341347908569975,0.061892771113718846,0.04277382258954447
0.09499999999999997,-0.0136,-0.28,0.015278038580314771,1.2271569243241316,0.062048368586603696,0.04214205072482336
0.09599999999999997,-0.0193,-0.28,0.015252176260390623,1.2271569243241316,0.06191498428482623,0.04214205072482336
0.09699999999999998,0.0009,0.72,0.0156843037186077,1.2306357734352897,0.064143671404242,0.04245702364379335
0.09799999999999998,0.0143,-0.28,0.01600719815007098,1.2341048159701369,0.06580899177824096,0.042771108681206225
0.09899999999999998,0.0022,-1.28,0.016013831116780005,1.2306357734352897,0.06584320114676595,0.04245702364379335
0.09999999999999998,0.0178,-2.28,0.01603190657122531,1.23063577343529,0.06593642487447361,0.04245702364379337
0.10099999999999998,0.004,-0.28,0.01602952625225663,1.2341048159701369,0.06592414843583332,0.042771108681206225
0.10199999999999998,0.0058,0.7199999999999861,0.016019253998686204,1.23987492989079,0.06587116953161315,0.043293531346376785
0.10299999999999998,0.0011,-0.27999999999997227,0.016018579121718102,1.23987492989079,0.06586768886965244,0.043293531346376785
0.10399999999999998,-0.0127,1.7199999999999585,0.016068004776532124,1.2364220767317606,0.06612260051240522,0.04298091208537291
0.10499999999999998,-0.0,-1.28,0.01606815481299393,1.2421814266848001,0.06612337432189941,0.04350236018735012
0.10599999999999998,0.0079,-0.28,0.016076500887879777,1.2421814266848001,0.06616641900522621,0.04350236018735012
0.10699999999999998,0.0035,-0.28,0.01604851433285027,1.244483648679114,0.0660220790112614,0.04371080199051431
0.10799999999999998,-0.0001,-2.28,0.01604406239537012,1.244483648679114,0.0659991182492691,0.04371080199051431
0.10899999999999999,-0.0114,-0.28,0.016030040434599407,1.2410436180439706,0.0659268003190742,0.04339934367315815
0.10999999999999999,-0.0157,-0.28,0.016044336899506004,1.2410436180439706,0.06600053399784106,0.04339934367315815
0.11099999999999999,-0.0147,0.72,0.016024904007964167,1.2433479468421795,0.06590030932049473,0.043607976225087615
0.11199999999999999,0.0016,1.72,0.016015985679773193,1.2467816195543926,0.06585431325431565,0.04391885889990224
0.11299999999999999,0.0038,0.72,0.016019664415478932,1.2467816195543926,0.0658732862464901,0.04391885889990224
0.11399999999999999,0.0056,-2.28,0.016017945484944292,1.2467816195543926,0.0658644209030159,0.04391885889990224
0.11499999999999999,0.0002,-0.28,0.0159652425017765,1.252493334046006,0.06559260651698853,0.04443599411567702
0.11599999999999999,-0.0078,-0.28,0.015806363162690927,1.2490753627734672,0.06477319009290325,0.04412653303982463
0.11699999999999999,-0.0277,-1.28,0.01580227813814476,1.2433479468421793,0.06475212167566796,0.043607976225087594
0.118,-0.0143,-1.28,0.01580045631398704,1.2456480128614411,0.06474272566077248,0.04381622282755935
0.119,0.0223,-1.2799999999999445,0.015810080192302046,1.2559314579126726,0.06479236058498669,0.044747279795355095
0.12,0.0067,2.72,0.01585847904758267,1.2271569243241318,0.06504197653349279,0.04214205072482338
0.121,0.002,0.72,0.015652144883889416,1.2213267261243639,0.06397781297671282,0.04161418806493839
0.122,0.0151,1.72,0.015656041028626007,1.203666705127562,0.06399790725080881,0.0400152603205321
0.123,-0.0048,2.72,0.015648622043483155,1.2095820278111133,0.06395964401084894,0.04055083010029391
0.124,0.0061,0.72,0.015650930016203015,1.222513145966796,0.0639715473254264,0.0417216058082651
0.125,0.028900000000000963,-1.28,0.015608638937212444,1.2119461774487503,0.06375343208831241,0.04076487879526604
0.126,0.037599999999998523,-0.28,0.015471661510393137,1.2060424503563845,0.0630469742574158,0.04023035887339865
0.127,0.02429999999999701,-1.28,0.015097433818784447,1.2001096812752683,0.06111690381139937,0.03969320950723027
0.128,-0.0026000000000020096,-0.28,0.01491089984901305,1.2001096812752683,0.06015485928528143,0.03969320950723027
0.129,-0.02070000000000181,-2.28,0.014520549470415171,1.1893436812215517,0.058141636463409425,0.038718462297966785
0.13,-0.0369999999999977,-2.28,0.014567407091321573,1.195329886279364,0.05838330353217529,0.03926044972552278
0.131,-0.016300000000000876,-0.28,0.014579865242177751,1.1893436812215517,0.05844755614981606,0.038718462297966785
0.132,-0.024199999999995937,0.72,0.014577643474042971,1.186934512529077,0.058436097433342125,0.03850033760468072
0.133,0.012400000000004118,0.72,0.014586594722039888,1.1893436812215517,0.05848226328263977,0.038718462297966785
0.134,0.049499999999998434,1.72,0.014390396150693145,1.1784793324588418,0.05747037380305803,0.037734810655381035
0.135,0.035399999999995616,1.72,0.014450829010210536,1.2189807697074884,0.05778205484307241,0.041401786573298634
0.136,-0.004099999999998257,1.72,0.014558208368064433,1.2189807697074884,0.05833586133509102,0.041401786573298634
0.137,0.011599999999998434,-0.28,0.014705845084803092,1.226005172094981,0.05909729420100021,0.04203777176647987
0.138,-0.0025000000000023983,-2.28,0.014715814903446712,1.2283377129408013,0.059148713304256514,0.04224895862033573
0.139,-0.0240999999999969,-0.28,0.014673079939780028,1.2213267261243632,0.0589283087424506,0.041614188064938336
0.14,0.003799999999997191,1.72,0.01499878608145924,1.1893125774407132,0.060608130445218705,0.0387156461802426
0.1409999999999999,-0.0215,0.7199999999999445,0.014978718454288815,1.1760164526062906,0.060504632133918386,0.037511822985768606
0.1419999999999999,-0.0244,-1.28,0.015067616800906078,1.1760164526062906,0.06096312324869436,0.037511822985768606
0.1429999999999999,-0.0211,-1.28,0.015069715269058695,1.1735799256001653,0.0609739460484339,0.03729122128711862
0.1439999999999999,-0.0239,-1.28,0.015065048657603058,1.1674822040616653,0.06094987811050325,0.03673913722406245
0.1449999999999999,0.0004,-1.28,0.015022460149135775,1.1735799256001653,0.06073022888791559,0.03729122128711862
0.1459999999999999,0.0367,-1.28,0.014960940037604495,1.1760164526062906,0.06041294037141982,0.037511822985768606
0.1469999999999999,0.032,-1.28,0.014850557413210532,1.1784479419260225,0.059843644603432423,0.03773196857530392
0.1479999999999999,0.0103,0.72,0.01486278890368022,1.1820701509520024,0.0599067282255043,0.038059921215265496
0.1489999999999999,-0.0095,0.72,0.014909179577931895,1.2024309259636088,0.06014598702797037,0.03990337361374042
0.1499999999999999,0.0014,-1.28,0.014907619408573346,1.2024309259636086,0.06013794049149742,0.0399033736137404
0.1509999999999999,-0.0083,-1.28,0.0148056724928848,1.1820701509520024,0.05961215169113591,0.038059921215265496
0.1519999999999999,-0.0053,0.72,0.01489639704912399,1.1820701509520024,0.06008006143873501,0.038059921215265496
0.1529999999999999,-0.0133,0.72,0.01501094189379371,1.1929017967966533,0.060670823759102634,0.03904061195519904
0.15399999999999991,-0.0013,-1.28,0.015062454832630764,1.1952989382701211,0.06093650051971182,0.03925764771126574
0.15499999999999992,0.0052,-0.28,0.015020739874882366,1.1844892134589855,0.060721356614243716,0.03827894168860292
0.15599999999999992,0.0035,0.72,0.015040950241169186,1.1808744246780325,0.06082559109915229,0.03795166087319046
0.15699999999999992,0.0053,0.72,0.015046594239046921,1.1832959316619278,0.06085469988437973,0.03817090266800628
0.15799999999999992,-0.0026,0.72,0.015057425167126888,1.2154685627257702,0.06091056013913589,0.0410837934526685
0.15899999999999992,-0.007,-0.28,0.0151962570493032,1.1977221681431927,0.061626582279564565,0.03947704549543768
0.15999999999999992,0.0053,0.72,0.015173946234427412,1.2399047652842727,0.06151151478086292,0.04329623262506798
0.16099999999999992,-0.0095,-1.28,0.015144909657586327,1.2806987397072211,0.061361759324302365,0.046989694683876704
0.16199999999999992,-0.0037,-0.28,0.015107855659676928,1.2973105629727533,0.061170654208686094,0.048493719232275787
0.16299999999999992,0.0017,-0.28,0.015337771573041292,1.2906742934271602,0.06235644008023898,0.047892875354585675
0.16399999999999992,0.0033,-1.28,0.015377691975457842,1.2906742934271602,0.06256232860913447,0.047892875354585675
0.16499999999999992,-0.0011,0.72,0.015394463218138005,1.2773272825484834,0.06264882589558808,0.046684444968083084
0.16599999999999993,0.0001,-0.28,0.015409930707867399,1.2773272825484834,0.06272859910711188,0.046684444968083084
0.16699999999999993,0.0037,0.72,0.015417062132364915,1.2829030094725395,0.0627653792598619,0.04718926795078062
0.16799999999999993,-0.0086,1.72,0.015283456892445578,1.3169625741287072,0.06207631340294267,0.05027300057493824
0.16899999999999993,-0.0132,0.72,0.015275295656800832,1.3137123474009442,0.062034222023619065,0.04997872698989708
0.16999999999999993,0.0006,-0.28,0.015219796967443843,1.3082679338509733,0.06174798884921096,0.04948579304159393
0.17099999999999993,0.0061,0.72,0.015223578850702425,1.2806698546794588,0.061767493822443426,0.046987079450729725
0.17199999999999993,0.0076,-1.2799999999999168,0.015257042859047042,1.2806698546794588,0.06194008365200293,0.046987079450729725
0.17299999999999993,0.0033,1.7199999999999722,0.015185984332605144,1.2705866446865053,0.06157360098677464,0.0460741516454158
0.17399999999999993,0.0022,0.7199999999999722,0.015625085467125866,1.242151645974727,0.06383825467637096,0.04349966385966214
0.17499999999999993,0.0033,-0.28,0.016431090226426033,1.2524637985294096,0.0679952051109756,0.04443331998765985
0.17599999999999993,-0.0022,-0.28,0.01630815442206835,1.2593014459269474,0.06736116661497855,0.04505239649568724
0.17699999999999994,0.0108,-0.28,0.015884811213505236,1.2615724262771022,0.06517778405486642,0.04525800969906462
0.17799999999999994,-0.0059,0.72,0.01580085107755927,1.2615724262771022,0.06474476164453587,0.04525800969906462
0.17899999999999994,-0.0124,-1.28,0.015819996822195318,1.2672174760922847,0.06484350536852425,0.045769109134885536
0.17999999999999994,-0.0066,-0.28,0.015851739582916417,1.2479141964781428,0.06500721790427862,0.044021401737557225
0.18099999999999994,0.0024,-0.28,0.015486615907928556,1.2479141964781428,0.0631241012081153,0.044021401737557225
0.18199999999999994,-0.0056,0.72,0.015401471639698194,1.2536207507626438,0.0626849716636054,0.044538069751264654
0.18299999999999994,-0.0041,0.72,0.015210126849648788,1.2570263627644036,0.06169811544597481,0.044846411826128724
0.18399999999999994,-0.0132,-3.28,0.015168784573230534,1.254747154472052,0.06148489363563014,0.04464005366978328
0.18499999999999994,-0.0218,-0.28,0.014506291560395335,1.254747154472052,0.058068101630556854,0.04464005366978328
0.18599999999999994,-0.0208,1.72,0.014082387091999897,1.2444539230629306,0.055881824386167754,0.04370811065099417
0.18699999999999994,-0.006,0.72,0.014125818830872734,1.2626917365912043,0.0561058225495779,0.045359351385812444
0.18799999999999994,0.0053,-1.28,0.014086697245497624,1.2750843625869224,0.05590405390063259,0.04648137233551532
0.18899999999999995,0.0313,-0.28,0.014101880200495595,1.2559020032517212,0.05598235963102579,0.044744612987959696
0.18999999999999995,0.0132,-0.28,0.01391044569574527,1.2581791195218115,0.05499504071195247,0.04495078173386015
0.19099999999999995,0.0164,0.72,0.013913880863297397,1.247914196478142,0.055012757507150005,0.04402140173755714
0.19199999999999995,-0.0043,-0.28,0.013841745189541337,1.2581791195218117,0.054640719480189566,0.04495078173386017
0.19299999999999995,0.0036,-0.28,0.013624985475527214,1.2649858741850297,0.053522786394833904,0.04556706123218903
0.19399999999999995,0.0014,-1.28,0.013478690404307318,1.2616017485504896,0.05276827303387547,0.045260664520169115
0.19499999999999995,-0.0008,0.72,0.01326506581739952,1.2616017485504896,0.05166650929223248,0.045260664520169115
0.19599999999999995,-0.0066,0.72,0.01338397311514409,1.2559314579126708,0.05227977086089385,0.044747279795354936
0.19699999999999995,0.0061,-1.28,0.01287168709720771,1.2502354506266575,0.04963766787039594,0.04423156670058589
0.19799999999999995,-0.0185,-2.28,0.0125077057949617,1.2468112896752377,0.047760442934561484,0.043921545214907626
0.19899999999999995,-0.0004,-1.28,0.012465271983917661,1.2445133735852882,0.04754159156026612,0.04371349326575065
0.19999999999999996,-0.0037,-0.28,0.012440725980487828,1.2445133735852882,0.04741499612959639,0.04371349326575065
0.20099999999999996,0.0169,-0.28,0.012511964713903586,1.2445133735852882,0.04778240820801941,0.04371349326575065
0.20199999999999996,0.0194,1.72,0.012487749113374481,1.2410734253422009,0.04765751682247588,0.04340204240812199
0.20299999999999996,0.0125,0.72,0.012511875184401527,1.241073425342201,0.04778194646173541,0.04340204240812201
0.20399999999999996,0.006,0.72,0.012454465496038375,1.241073425342201,0.04748585735526545,0.04340204240812201
0.20499999999999996,0.0078,0.72,0.012487023385241342,1.241073425342201,0.04765377389683724,0.04340204240812201
0.20599999999999996,-0.0089,0.7200000000000555,0.012514686280511745,1.2410734253422009,0.04779644462326889,0.04340204240812199
0.20699999999999996,0.0067,2.7199999999999447,0.012542899713683567,1.2410734253422009,0.0479419547358731,0.04340204240812199
0.20799999999999996,0.0205,0.719999999999889,0.012551285247411776,1.2387648655259922,0.04798520292724375,0.043193026782352005
0.20899999999999996,0.0079,-3.28,0.012594162774355875,1.2422112066809095,0.04820634275577256,0.04350505645039625
0.20999999999999996,0.0126,-3.28,0.012577574157198705,1.2422112066809095,0.04812078735612348,0.04350505645039625
0.21099999999999997,-0.0102,-2.28,0.012568025299233933,1.280698739707221,0.048071539347586775,0.04698969468387668
0.21199999999999997,-0.0265,-1.28,0.012571028802016973,1.2751133741423382,0.04808702984197311,0.0464839990244004
0.21299999999999997,-0.0117,0.72,0.012576299301994285,1.2873864326513025,0.04811421232063526,0.047595194405326544
0.21399999999999997,-0.0091,-1.28,0.012610950079267942,1.2929187801040143,0.048292922882806365,0.04809608983661954
0.21499999999999997,-0.0069,-0.28,0.012609968481052988,1.2873864326513025,0.04828786031328779,0.047595194405326544
0.21599999999999997,-0.0091,-1.28,0.012613815546678942,1.2851610684835004,0.04830770146303441,0.04739371126383137
0.21699999999999997,-0.0189,-3.28,0.012685906004378954,1.2873864326513027,0.04867950628925791,0.047595194405326564
0.21799999999999997,-0.0134,0.72,0.012719154046485825,1.2851610684835006,0.048850982278067105,0.04739371126383139
0.21899999999999997,-0.0181,-0.28,0.012737642592191335,1.2728665530556076,0.048946336514154316,0.046280573186291765
0.21999999999999997,-0.0075,0.72,0.012669667443131418,1.270615758936851,0.04859575629466245,0.04607678763223845
0.22099999999999997,0.0103,0.72,0.01268370174815542,1.270615758936851,0.04866813789005099,0.04607678763223845
0.22199999999999998,0.0034,0.72,0.012822757532294747,1.280698739707221,0.04938531479954489,0.04698969468387668
0.22299999999999998,0.0371,0.72,0.01331033020462441,1.2773562431622802,0.05189995929606371,0.04668706704474445
0.22399999999999998,0.0512,1.72,0.013404439459922268,1.2773562431622807,0.052385325548802,0.046687067044744485
0.22499999999999998,0.0208,1.72,0.013404984324243781,1.2751133741423395,0.052388135673620724,0.04648399902440053
0.22599999999999998,-0.0071,0.72,0.013408470276625006,1.2806987397072223,0.05240611439037015,0.0469896946838768
0.22699999999999998,-0.018,-1.28,0.013452573588980464,1.2929187801040156,0.05263357617809297,0.04809608983661966
0.22799999999999998,-0.0082,-1.28,0.013725690004547965,1.3115598582938055,0.054042167615414964,0.049783841912831785
0.22899999999999998,-0.023,-0.28,0.013715249144013083,1.3148154059903918,0.05398831912477354,0.050078597255209495
0.22999999999999998,-0.015,-2.28,0.013700141047493774,1.3093755789912507,0.05391039947520903,0.04958607857047677
0.23099999999999998,0.0017,-1.28,0.01376193040777559,1.3213304344170167,0.05422907663575143,0.05066846403446263
0.23199999999999998,-0.0004,-1.28,0.013988604885435857,1.3502180127681769,0.05539814487951935,0.05328392811022705
0.23299999999999998,0.0053,-0.28,0.014301905125406366,1.3597108284604602,0.05701398343838589,0.05414340196847875
0.23399999999999999,0.022,1.72,0.014387445855832688,1.3753686676472034,0.05745515772727079,0.055561053368648076
0.235,0.0064,0.7200000000000555,0.01433767685570589,1.337465340497699,0.05719847528920855,0.052129308786032565
0.236,-0.0118,2.7199999999999727,0.014171802865368864,1.3396038190680168,0.05634298411714673,0.05232292535746918
0.237,-0.0049,1.7199999999999445,0.014027911889934644,1.3659846693563724,0.055600869823198486,0.05471143177287601
0.238,-0.007,-0.27999999999997227,0.014022580626285733,1.3691108088312818,0.05557337395734085,0.05499447057221954
0.239,0.0067,0.72,0.014032609517413162,1.3659846693563709,0.05562509772553171,0.054711431772875865
0.24,0.0049,0.72,0.013837863015783882,1.3711999350523758,0.054620697261087196,0.05518361881145883
0.241,0.0162,1.72,0.01378150622578671,1.3732858831709565,0.0543300384529741,0.055372479307196326
0.242,-0.0005,1.72,0.013827510113067454,1.3711999350523758,0.05456730241080884,0.05518361881145883
0.243,0.007,0.72,0.013940054031921308,1.3732858831709565,0.05514774500372585,0.055372479307196326
0.244,0.0004,-1.28,0.013994031335235956,1.3732858831709565,0.05542613166569474,0.055372479307196326
0.245,-0.0178,-0.28,0.01406615868281565,1.3701692694607561,0.05579812675059799,0.05509030296489533
0.246,-0.0012,-0.28,0.014081850384523965,1.3795248029678975,0.05587905633008671,0.05593734737616755
0.247,0.01,0.72,0.01412809867886377,1.3795248029678975,0.05611758081153332,0.05593734737616755
0.248,0.0001,-0.28,0.0141264732479442,1.385735633910956,0.05610919769010686,0.05649967229709896
0.249,-0.0054,0.72,0.014445351198912269,1.4051826899238422,0.057753803161188076,0.05826039712362424
0.25,-0.013399999999998835,-1.28,0.014528272496543466,1.4112806089323935,0.05818146778754249,0.0588124990655008
0.251,-0.0029000000000007214,0.72,0.014907267700290033,1.4223792276346614,0.06013612656436572,0.05981736136837442
0.252,-0.009399999999999601,0.72,0.015001310776367719,1.4273884587517098,0.060621151499345174,0.0602708941593401
0.253,-0.005800000000000366,0.72,0.014901384820890038,1.4213596473414458,0.060105785753351446,0.059725049178101966
0.254,-0.009100000000000079,-1.28,0.015005267463255673,1.436345599778694,0.06064155801815129,0.06108186835360627
0.255,-0.009799999999999922,-0.28,0.015096297557155572,1.4511768041546949,0.061111043568990775,0.06242467673214909
0.256,-0.009099999999999768,0.72,0.015091065754977144,1.465857957589906,0.06108406067330879,0.06375389958820889
0.257,-0.007000000000000411,-0.28,0.01509528959710823,1.463903923350387,0.06110584503894674,0.06357698249622737
0.258,-0.010699999999999111,-1.28,0.01508941857606102,1.448202279300673,0.06107556538710577,0.062155365029949936
0.259,-0.0026999999999999225,-0.28,0.014951860996702556,1.4629132840618695,0.06036611543324467,0.06348729060722019
0.26,-0.001999999999998679,-3.28,0.014937179653032586,1.42733662524706,0.06029039675138173,0.06026620118481366
0.261,0.009899999999999479,-0.28,0.014969797065068525,1.3908502460217091,0.0604586202805532,0.05696274622024097
0.262,0.005200000000000477,1.72,0.01493724216625885,1.3784735260017302,0.06029071916186392,0.0558421653880734
0.263,0.009499999999999268,-1.28,0.014730898407788575,1.375368667647199,0.05922650612024895,0.055561053368647674
0.264,0.0028999999999993115,-0.28,0.01468719230113877,1.3784735260017302,0.05900109291153473,0.0558421653880734
0.265,-0.0033000000000011323,-0.28,0.014784074604174172,1.3753686676471992,0.059500761092226614,0.055561053368647695
0.266,-0.0134999999999996,0.72,0.014774476022716303,1.3929067671196242,0.05945125663595328,0.05714894241111803
0.267,-0.009900000000000122,-0.28,0.014747608415718509,1.3990581928478265,0.05931268758993022,0.05770588881940704
0.268,-0.010999999999998634,-0.28,0.014631383436910965,1.3639146773499444,0.05871326001758507,0.05452401593399471
0.269,0.0013000000000005217,-0.28,0.014615200173755552,1.3618143750385399,0.058629795221588545,0.054333855818219444
0.2699999999999999,0.006,-0.28,0.014513839505338714,1.3639146773499444,0.058107029977630134,0.05452401593399471
0.2709999999999999,0.0198,1.72,0.014513839505338716,1.3618143750385399,0.05810702997763014,0.054333855818219444
0.2719999999999999,0.0365,0.72,0.014560079774148292,1.3712269130565526,0.058345513067594904,0.05518606138383034
0.2729999999999999,0.0162,1.72,0.015051701755250875,1.3691378280003839,0.060881041778095356,0.05499691687163877
0.2739999999999999,-0.0025,-0.28,0.014668568253079406,1.3691378280003839,0.05890503982527046,0.05499691687163877
0.2749999999999999,0.0045,-1.28,0.01385332327858539,1.35760402253515,0.054700433199901796,0.05395265301938814
0.2759999999999999,-0.0111,1.72,0.014499754206184328,1.3480963715456793,0.05803438538122328,0.0530918359821972
0.2769999999999999,-0.0293,-2.28,0.015373940084032676,1.35760402253515,0.06254297831807169,0.05395265301938814
0.2779999999999999,0.0025,-1.28,0.01538583889511608,1.3544513250986943,0.06260434615409712,0.05366720967808177
0.2789999999999999,-0.0106,-0.28,0.015375246860163446,1.3512912721244068,0.06254971798498067,0.05338110037077705
0.2799999999999999,-0.0146,1.72,0.015203342637351114,1.3534079049379724,0.0616631260319126,0.05357273904045607
0.2809999999999999,0.0252,2.72,0.015139451872296083,1.3374929989482467,0.06133361092607955,0.052131812965611736
0.2819999999999999,0.0303,1.719999999999778,0.015177017253848773,1.3342927835724672,0.06152735349071048,0.051842067378483826
0.2829999999999999,0.0162,-2.279999999999889,0.015301791238647385,1.357658518335719,0.06217087235874583,0.053957587036595665
0.2839999999999999,-0.0056,-0.2799999999999445,0.015292748352854412,1.3691918647390249,0.06212423388968788,0.055001809325653746
0.2849999999999999,-0.0016,0.7199999999997779,0.015136354582532693,1.36290564507619,0.06131763672756589,0.05443265875509898
0.2859999999999999,-0.0052,-3.279999999999889,0.015122962206425986,1.398074524932261,0.06124856586534728,0.05761682811433966
0.2869999999999999,0.0046,-1.279999999999889,0.015077211047656426,1.3753955638828388,0.06101260534881643,0.05556348853774472
0.2879999999999999,0.0075,0.719999999999889,0.015089950858461598,1.3639146773499453,0.0610783106209656,0.05452401593399479
0.2889999999999999,0.0209,-1.28,0.015087712315708561,1.3691378280003847,0.06106676538979575,0.05499691687163885
0.2899999999999999,0.0043,0.72,0.015073326003334749,1.3670455504600485,0.060992568324847146,0.05480748331383914
0.2909999999999999,0.0199,-0.28,0.015186037938992224,1.3701692694607586,0.061573877460444924,0.05509030296489555
0.2919999999999999,0.0182,0.72,0.015351514209890203,1.3586442201388265,0.06242731740393034,0.054046831888625295
0.2929999999999999,0.0128,-0.28,0.015555360645295467,1.3586442201388265,0.0634786505610525,0.054046831888625295
0.29399999999999993,0.0143,0.72,0.01554066299399448,1.361787210565091,0.06340284777296926,0.05433139636303151
0.29499999999999993,0.0067,1.72,0.0157054480475564,1.3586442201388258,0.06425272277943367,0.05404683188862523
0.29599999999999993,0.0132,0.72,0.01655492993501143,1.3638875547081009,0.06863390547159427,0.05452156026621532
0.29699999999999993,-0.0057,1.72,0.016889939558876688,1.3638875547081006,0.0703617096631385,0.054521560266215296
0.29799999999999993,-0.0354,-3.28,0.01699554139616324,1.3732858831709553,0.0709063486349785,0.05537247930719623
0.29899999999999993,-0.0155,1.72,0.017032438096311026,1.3784735260017265,0.07109664249111898,0.05584216538807305
0.29999999999999993,-0.0336,1.72,0.017024702078391754,1.3877730783224687,0.07105674416213201,0.05668414129619261
0.30099999999999993,-0.0238,-1.28,0.017003101073773084,1.3877730783224675,0.07094533749300087,0.05668414129619251
0.30199999999999994,0.0088,-1.28,0.01700072257877671,1.3877730783224673,0.07093307046145447,0.05668414129619249
0.30299999999999994,-0.0216,-2.28,0.01704718593975192,1.3857089383732872,0.07117270414397367,0.056497255299076225
0.30399999999999994,-0.0176,-2.28,0.01705169428645027,1.3836417191088988,0.07119595583517127,0.056310090502601724
0.30499999999999994,-0.0067,-2.28,0.017027601071628307,1.380548484087617,0.0710716956510104,0.056030030852820316
0.30599999999999994,0.0096,-0.28,0.0169998464827798,1.3826203281977347,0.07092855201712386,0.05621761438006255
0.30699999999999994,-0.0052,1.72,0.0169790628645699,1.380548484087617,0.0708213609990146,0.056030030852820316
0.30799999999999994,-0.0026,-2.28,0.01699581147614382,1.380548484087617,0.07090774156607435,0.056030030852820316
0.30899999999999994,0.0043,-0.28,0.01696912264289214,1.377448302831945,0.07077009454140791,0.055749342295129484
0.30999999999999994,-0.016,-0.28,0.016994072352886507,1.377448302831945,0.07089877207911179,0.055749342295129484
0.31099999999999994,-0.0026,-1.28,0.017007737822091556,1.3449213869340446,0.07096925141250968,0.052804374773372756
0.31199999999999994,-0.0095,0.72,0.01698601612813869,1.3502180127681602,0.07085722229099914,0.053283928110225545
0.31299999999999994,-0.0029,-1.28,0.016985125148167406,1.3438430402828363,0.0708526270829236,0.052706741912176454
0.31399999999999995,0.0192,0.72,0.016976520383320714,1.3438430402828363,0.07080824821225765,0.052706741912176454
0.31499999999999995,0.0044,-2.28,0.016985759851317325,1.3459713860055165,0.07085590054936962,0.052899441061645076
0.31599999999999995,0.0019,1.72,0.016983036861114197,1.3576040225351425,0.07084185679196285,0.05395265301938745
0.31699999999999995,0.004,0.72,0.01696498662186189,1.3554939420648864,0.07074876311101518,0.05376160759495487
0.31799999999999995,-0.0115,-0.28,0.01693605563577509,1.3554939420648864,0.07059955223626614,0.05376160759495487
0.31899999999999995,-0.0057,0.72,0.016900689995077336,1.3576040225351427,0.07041715478293566,0.053952653019387474
0.31999999999999995,-0.0075,-0.28,0.016901890531341827,1.3576040225351427,0.0704233465202534,0.053952653019387474
0.32099999999999995,-0.0155,1.72,0.01694668026782087,1.3576040225351427,0.07065434852411755,0.053952653019387474
0.32199999999999995,-0.0383,-0.28,0.01684211327411918,1.3512638961049086,0.07011504673352892,0.053378621762336265
0.32299999999999995,-0.0154,0.72,0.01646499499429431,1.3491438996221354,0.06817006814732737,0.05318667854805789
0.32399999999999995,0.0172,-0.28,0.016398467064630013,1.342763827633378,0.06782695192755285,0.05260903064401626
0.32499999999999996,0.0476,0.72,0.016402470156312538,1.342763827633378,0.06784759777798664,0.05260903064401626
0.32599999999999996,0.0516,1.72,0.016457732116694695,1.342763827633378,0.06813261002832022,0.05260903064401626
0.32699999999999996,0.019,0.72,0.016443813367785273,1.3363532959938615,0.06806082441085264,0.052028624941402805
0.32799999999999996,0.0059,0.72,0.016229515512775246,1.3202328191651047,0.06695558830493652,0.05056908660567682
0.32899999999999996,0.0019,0.72,0.01622909674867682,1.32672124498239,0.06695342853902836,0.051156544800582605
0.32999999999999996,0.0056,0.72,0.0162044167198305,1.328877013465361,0.06682614187545102,0.05135172679037543
0.33099999999999996,-0.0108,0.72,0.016234088958894555,1.322399165089586,0.06697917574485412,0.05076522627070112
0.33199999999999996,-0.0195,2.72,0.016080784791988895,1.3115316529480572,0.0661885131390917,0.04978128821768806
0.33299999999999996,-0.0006,1.72,0.01581409263438775,1.2994866550398594,0.06481305465990315,0.04869074130722737
0.33399999999999996,-0.0028,-1.28,0.015737372372677954,1.2829030094725284,0.06441737172927825,0.047189267950779615
0.33499999999999996,-0.0006,-3.28,0.01572784012327115,1.2851322837524024,0.06436820937898545,0.04739110511148443
0.33599999999999997,0.0011,-1.28,0.015744919562060755,1.2884546079255876,0.06445629617956576,0.047691906356136377
0.33699999999999997,-0.0079,-0.28,0.015812517326261752,1.2672174760922774,0.06480493004559605,0.04576910913488487
0.33799999999999997,-0.0065,-1.28,0.015904697800076095,1.3016875284244278,0.06528034865356719,0.04889000706784844
0.33899999999999997,0.0012,-0.28,0.016440656599913506,1.3016875284244285,0.06804454345540532,0.048890007067848504
0.33999999999999997,-0.0191,-1.28,0.01663010722397515,1.3352680298717965,0.06902163055686732,0.05193036559545138
0.34099999999999997,-0.0277,-0.28,0.016887869538418847,1.3331225962261364,0.07035103358171023,0.051736119315650815
0.34199999999999997,-0.0251,1.72,0.01677027687060954,1.3384659134769628,0.06974455218576828,0.05221990006546183
0.34299999999999997,0.0018,-1.28,0.017236920318599584,1.3648958610816095,0.07215125470401633,0.05461285172253673
0.344,0.0227,0.719999999999889,0.01789051839563269,1.4462243901769463,0.07552217128860154,0.06197628813101199
0.345,0.0553,-1.2799999999999445,0.018382439357136977,1.4550910080718917,0.07805924198343454,0.06277906641501545
0.346,0.0335,-0.279999999999889,0.018486442735722777,1.4462243901769463,0.07859563694242706,0.06197628813101199
0.347,0.0214,1.7199999999998334,0.018455342286242786,1.4550910080718917,0.07843523711166862,0.06277906641501545
0.348,-0.0112,-1.2799999999998335,0.01845022070072281,1.4609553113136955,0.0784088226557892,0.06331001692501936
0.349,0.0017,1.7199999999998334,0.01816453622746504,1.4303286796095802,0.07693541175893565,0.06053709999823363
0.35,-0.0103,-1.279999999999889,0.018132893096573177,1.4243123135838933,0.07677221306166321,0.05999238181467562
0.351,0.0006,0.7199999999999445,0.01782067520385289,1.4303028163681724,0.07516195668307575,0.060534758355816856
0.352,-0.0157,-0.28,0.017735054146662325,1.4422348253601878,0.07472036811080891,0.06161507531734787
0.353,-0.007,-0.28,0.017737603885413677,1.4372773380634392,0.0747335183279612,0.061166227380941185
0.354,0.0009,0.72,0.017606560266596006,1.4253038277994345,0.07405766397113422,0.06008215291905252
0.355,-0.0013,0.72,0.01753609737005264,1.4132288762152838,0.0736942532529844,0.05898889402067648
0.356,-0.0035,-0.28,0.01753386805152793,1.3959461188121491,0.07368275559555343,0.05742412349652367
0.357,0.0103,-0.28,0.01752922716075044,1.3959461188121491,0.07365882031141045,0.05742412349652367
0.358,0.0049,0.72,0.01753509875696394,1.3959461188121485,0.07368910292965793,0.05742412349652361
0.359,0.0096,-0.28,0.01754059458406382,1.3805216882445863,0.07371744752761192,0.05602760477321009
0.36,-0.0071,-1.28,0.017535409224162114,1.3805216882445863,0.07369070415687091,0.05602760477321009
0.361,-0.0049,-1.28,0.017496857911259614,1.3825935725088117,0.07349187667468114,0.05621519193598122
0.362,0.0049,-1.28,0.017495396984665176,1.405156363846618,0.07348434198041091,0.05825801357632932
0.363,-0.0078,-1.28,0.017479838156738307,1.4051563638466176,0.07340409769429938,0.05825801357632928
0.364,-0.0063,0.72,0.017483229528642907,1.4051563638466176,0.07342158861448324,0.05825801357632928
0.365,0.0013,1.72,0.017383615597335166,1.4081955463644455,0.07290783212574745,0.05853317934475899
0.366,-0.011,-0.28,0.01739736994255103,1.3959726185816292,0.07297876983506374,0.05742652276981161
0.367,0.0002,-0.28,0.017416632656617137,1.386728054378599,0.07307811682611415,0.0565895254529994
0.368,-0.0012,0.72,0.01787245860364079,1.3898075358633892,0.07542902833962592,0.05686833986580833
0.369,0.0024,-0.28,0.018384706976833674,1.394933737391734,0.07807093717825186,0.0573324630878913
0.37,0.0137,-0.28,0.018375987340331273,1.397995143645243,0.07802596585974535,0.05760964098006485
0.371,-0.0062,-1.28,0.01836772033226009,1.4152528790282304,0.07798332896164041,0.05917214602547097
0.372,-0.0087,-0.28,0.018418785013835315,1.4091721493524885,0.0782466938460505,0.05862160039551168
0.373,-0.0066,-1.28,0.01819416013894374,1.4142281610411094,0.0770881963799632,0.05907936867146348
0.374,-0.0044,-0.28,0.018733059112526682,1.4142281610411094,0.07986755505817833,0.05907936867146348
0.375,-0.0141999999999994,-1.28,0.018984942699526396,1.4162507357493983,0.08116663868562164,0.059262491376515944
0.376,-0.008799999999997624,-1.28,0.01841719234898082,1.4638786533035089,0.07823847971482772,0.06357469456128871
0.377,0.012599999999998357,0.72,0.01768893612351871,1.455065584971585,0.07448251549996775,0.06277676462271087
0.378,-0.0021999999999991232,1.72,0.017586659773071372,1.455065584971585,0.07395502764764911,0.06277676462271087
0.379,0.005700000000001321,0.72,0.017583903973190193,1.4530970378951664,0.07394081467510576,0.06259853354715181
0.38,0.017599999999996736,-1.28,0.01760964881784597,1.4530970378951664,0.0740735931009721,0.06259853354715181
0.381,-0.01179999999999778,-2.28,0.017746607768154066,1.4530970378951664,0.07477995563970025,0.06259853354715181
0.382,0.00819999999999959,-0.28,0.01771574758940845,1.4511258203583564,0.07462079499955719,0.06242006068970523
0.383,0.004499999999999634,0.72,0.01765975834436036,1.4242863410928752,0.074332031795804,0.05999003028086444
0.384,0.001199999999999034,0.72,0.017663334586550138,1.4132027000277565,0.07435047618010013,0.05898652404430512
0.385,-0.007500000000000888,-1.28,0.017668744292936713,1.408143006372128,0.07437837661251728,0.05852842240526143
0.386,-0.015500000000000244,-2.28,0.017830823554183847,1.3825668163020934,0.07521429655927626,0.05621276944501903
0.387,-0.01770000000000273,-3.28,0.0178749894524326,1.377394590002698,0.07544208113225975,0.05574447916767741
0.388,-0.04229999999999892,0.72,0.017860010385214495,1.3887640428188976,0.07536482694825675,0.056773862629329694
0.389,-0.03259999999999968,-3.28,0.017849071781509233,1.3887640428188976,0.07530841135901627,0.056773862629329694
0.39,-0.029699999999996705,-0.28,0.017850557758560464,1.3887640428188976,0.07531607525042341,0.056773862629329694
0.391,4.862776847858181e-15,-1.28,0.017772925051920446,1.3836149831711433,0.07491568640670622,0.056307669846779304
0.392,0.043800000000000644,2.72,0.01760376032609618,1.3887640428188976,0.07404322334439684,0.056773862629329694
0.393,0.04959999999999944,4.72,0.017450278048024646,1.377394590002698,0.07325164213451968,0.05574447916767741
0.394,0.04459999999999735,1.72,0.01746223415745556,1.3742872940643414,0.07331330548541375,0.05546314645086925
0.395,0.020699999999998556,0.72,0.017357023233926176,1.3742872940643418,0.07277068264200724,0.05546314645086929
0.396,0.007699999999999556,1.72,0.016525500085732506,1.3805216882445837,0.06848212172176059,0.056027604773209845
0.3969999999999999,0.0037,-2.28,0.01618649071410583,1.3805216882445837,0.0667336889259764,0.056027604773209845
0.3979999999999999,-0.0144,-1.28,0.0161125415219109,1.3690837891289536,0.06635229772066852,0.05499202422452233
0.3989999999999999,-0.0112,-1.28,0.0160738382771126,1.3638604315268814,0.06615268665332867,0.05451910454960115
0.3999999999999999,-0.0026,-2.28,0.016104613312345438,1.3638604315268836,0.06631140816782344,0.05451910454960135
0.4009999999999999,0.0162,-2.28,0.016137835488296226,1.3638604315268845,0.06648275075254596,0.05451910454960143
0.4019999999999999,0.0093,-0.28,0.016336478864364422,1.3669914288782912,0.0675072492545089,0.054802583178179126
0.4029999999999999,-0.0019,-1.28,0.016411725794243964,1.3669914288782912,0.06789533351115401,0.054802583178179126
0.4039999999999999,0.0079,-1.28,0.016452293013591777,1.3669914288782912,0.06810455798303557,0.054802583178179126
0.4049999999999999,0.0061,-0.28,0.016452053166200416,1.364895861081613,0.06810332097580173,0.05461285172253705
0.4059999999999999,-0.0087,-0.28,0.016597910636181424,1.364895861081613,0.06885557741874673,0.05461285172253705
0.4069999999999999,-0.0069,1.7199999999999445,0.016647378876251735,1.364895861081613,0.06911070869394907,0.05461285172253705
0.4079999999999999,-0.0051,0.7199999999999445,0.016750150640661873,1.376368563160212,0.0696407516320339,0.05565158331068758
0.4089999999999999,-0.0005,-0.2799999999999445,0.016767680011723952,1.3856822423213413,0.06973115894764097,0.05649483825449116
0.4099999999999999,-0.011,0.720000000000111,0.01674221755994101,1.3856822423213413,0.06959983695632035,0.05649483825449116
0.4109999999999999,0.0013,2.719999999999889,0.01673039863561119,1.3825935725088156,0.0695388811343323,0.05621519193598158
0.4119999999999999,0.006,0.719999999999889,0.01673099698470302,1.3774214466791503,0.06954196710558574,0.05574691075510927
0.4129999999999999,-0.0045,-1.28,0.016775106667721053,1.3722298265234865,0.06976946174984976,0.05527686456961418
0.4139999999999999,0.0046,-1.28,0.016820467828409787,1.369110808831289,0.07000341086052614,0.0549944705722202
0.4149999999999999,0.0082,-1.279999999999889,0.01682817673806929,1.3722298265234865,0.07004316937930613,0.05527686456961418
0.4159999999999999,-0.0084,0.719999999999889,0.016852838517618977,1.365957587816582,0.07017036192256879,0.05470897982645193
0.4169999999999999,-0.0403,-1.28,0.016817103827886964,1.371172956517412,0.06998606110759477,0.05518117619103018
0.4179999999999999,-0.0446,-1.28,0.016823097718636475,1.371172956517412,0.07001697445701195,0.05518117619103018
0.41899999999999993,-0.0007,-1.28,0.016842129100907394,1.3805216882445908,0.07011512835981386,0.05602760477321049
0.41999999999999993,0.0051,-2.28,0.016842425331761182,1.3805216882445908,0.07011665616341822,0.05602760477321049
0.42099999999999993,0.0207,-1.28,0.01678665751006108,1.385682242321341,0.06982903494533202,0.05649483825449114
0.42199999999999993,0.0254,-1.28,0.016786290822044327,1.38052168824459,0.06982714376058029,0.05602760477321043
0.42299999999999993,0.0472,0.72,0.016768250990067773,1.3825935725088148,0.06973410375491054,0.056215191935981505
0.42399999999999993,0.0353,0.72,0.0167711073088836,1.3774214466791495,0.06974883515147591,0.05574691075510919
0.42499999999999993,-0.0119,3.72,0.016808172700215156,1.3774214466791495,0.06993999902839679,0.05574691075510919
0.42599999999999993,-0.0057,0.72,0.016828088583706883,1.3743142114631832,0.07004271472527226,0.05546558353606996
0.42699999999999994,0.0001,0.72,0.016852914995495395,1.38054848408763,0.07017075635540301,0.0560300308528215
0.42799999999999994,-0.005,-0.28,0.01681687435409906,1.3898341526763707,0.0699848776019748,0.05687074973614492
0.42899999999999994,-0.0097,0.72,0.016837947170043704,1.3805484840876288,0.07009356015054373,0.05603003085282138
0.42999999999999994,-0.0227,0.72,0.016955214995129277,1.3836417191089103,0.07069836617784049,0.056310090502602765
0.43099999999999994,-0.0027,-0.28,0.01725216352707367,1.3836417191089103,0.07222987119028391,0.056310090502602765
0.43199999999999994,-0.0135,-0.28,0.017271071660754072,1.3659846693563766,0.07232738944140261,0.05471143177287639
0.43299999999999994,-0.0036,-0.28,0.01733819972662135,1.3711999350523814,0.07267360084941395,0.05518361881145933
0.43399999999999994,0.0052,-0.28,0.017333017443463952,1.3711999350523816,0.07264687334690877,0.05518361881145935
0.43499999999999994,0.024,1.72,0.017746301284839786,1.3805484840876288,0.074778374959274,0.05603003085282138
0.43599999999999994,-0.0126,-0.28,0.01803480901387456,1.4031441611725526,0.07626634673085415,0.05807582994905536
0.43699999999999994,0.003,1.72,0.018067103301576112,1.397037206787494,0.07643290375393275,0.05752290994959092
0.43800000000000006,-0.0017999999999990229,-1.28,0.01798248658082184,1.3618415389701477,0.0759964950230219,0.05433631522434942
0.43899999999999995,0.0026,-0.28,0.017491403637041984,1.3618415389701477,0.07346374638473209,0.05433631522434942
0.44000000000000006,-0.0094000000000008,-0.28,0.017217515084036683,1.3289326872804992,0.07205117266688309,0.05135676746431787
0.44099999999999995,-0.013,-1.28,0.016959567090317738,1.3289326872804992,0.0707208120055808,0.05135676746431787
0.44200000000000006,-0.009599999999999356,-0.28,0.017016389599182558,1.3257118078151668,0.07101387274771094,0.05106515096287424
0.44299999999999995,-0.0067,0.72,0.01645078673915927,1.3017727825026073,0.06809678940836576,0.04889772592112442
0.44400000000000006,0.012200000000000733,0.72,0.015728206748280724,1.2236984155328459,0.06437010023877913,0.04182891940625578
0.44499999999999995,0.0155,1.72,0.015088079243797587,1.2166606951367398,0.06106865781271453,0.04119172840853579
0.44600000000000006,0.0036000000000024866,-0.28,0.0149567542165682,1.2201694706198096,0.06039135209867673,0.041509410843329556
0.44699999999999995,0.0148,-0.28,0.015011133768199132,1.207213248342909,0.06067181334679899,0.04033636222322978
0.44800000000000006,0.0010000000000020205,-0.28,0.015067235786146129,1.189343681221547,0.0609611581741043,0.03871846229796636
0.44899999999999995,0.0101,1.72,0.015001225392664205,1.189343681221547,0.06062071113491887,0.03871846229796636
0.45000000000000007,-0.014600000000002398,-1.28,0.014963167672548827,1.189343681221547,0.06042442934582491,0.03871846229796636
0.45099999999999996,-0.0254,-1.28,0.014960913329360608,1.171201501513981,0.06041280262428526,0.037075880192107856
0.45200000000000007,-0.02219999999999807,-0.28,0.014873217221437548,1.1564764641693308,0.05996051202706791,0.035742684113119975
0.45299999999999996,-0.0135,-0.28,0.01486205929448793,1.1589489493530731,0.05990296528339511,0.035966541443676656
0.45400000000000007,-9.999999999509282e-05,-0.28,0.01490600042816371,1.155254247888568,0.060129590638422985,0.03563202538166485
0.45499999999999996,0.022,0.72,0.01496654660670602,1.1490592814531262,0.060441856118621434,0.03507113682376974
0.45600000000000007,0.013300000000001753,-0.28,0.01497938705644701,1.1490592814531262,0.0605080804336958,0.03507113682376974
0.45699999999999996,0.0212,1.72,0.015072964419214059,1.1490592814531262,0.06099070346331835,0.03507113682376974
0.4580000000000001,0.009099999999998557,1.72,0.01506270455862577,1.1352918225000954,0.06093778847560972,0.03382463931994672
0.45899999999999996,0.0026,-0.28,0.015055798536784876,1.1352918225000959,0.06090217083171662,0.03382463931994676
0.4600000000000001,-0.0033000000000004,0.72,0.015055765420585222,1.135291822500096,0.060902000035702133,0.03382463931994678
0.46099999999999997,-0.0051,-0.28,0.01505431668339712,1.1327677022260978,0.06089452820800605,0.03359610697918426
0.46199999999999986,-0.0131,-0.28,0.015103158891849981,1.1046552616498155,0.06114643073998547,0.03105082341420259
0.46299999999999997,-0.0146,0.72,0.015172760185405977,1.1020609747475998,0.06150539776115773,0.030815938228864827
0.46399999999999986,-0.0081,-1.28,0.015166228606879774,1.098174895961303,0.06147171129978159,0.030464094978537772
0.46499999999999997,-0.0092,-1.28,0.015206646281016287,1.1264490766277877,0.06168016449578178,0.033024022394602885
0.46599999999999986,0.0009,-1.28,0.015292110088146111,1.1264490766277888,0.06212094205458895,0.03302402239460298
0.46699999999999997,0.0045,-0.28,0.015331275681800368,1.123905097064074,0.06232293767519047,0.03279369200562084
0.46799999999999986,0.0081,1.72,0.014804533219031357,1.123905097064074,0.05960627591325053,0.03279369200562084
0.469,0.0026,-0.28000000000005554,0.014124755087891296,1.12009480726615,0.05610033632037395,0.03244871064499663
0.46999999999999986,0.0,-1.2799999999999445,0.014198866024964481,1.1162715114713726,0.056482561721056236,0.0321025517291919
0.471,-0.0061,-0.2799999999999445,0.014203238279302572,1.0969214431350889,0.056505111519132754,0.0303506081089298
0.47199999999999986,-0.0039,0.7199999999999445,0.014056522089461508,1.0969214431350889,0.05574842624887094,0.0303506081089298
0.473,0.0073,-0.28,0.013849557441517923,1.0903951152855371,0.05468101098451953,0.02975971828667933
0.47399999999999987,0.012,-0.2799999999999445,0.013021751858712238,1.0877668189504428,0.050411623319612804,0.029521753907618586
0.475,0.0164,0.7200000000000555,0.012931541548508648,1.087766818950443,0.04994636578374882,0.029521753907618607
0.47599999999999987,0.0127,1.72,0.012915435016360744,1.0434977346576275,0.04986329672610413,0.02551365747851118
0.477,-0.0061,1.7199999999999445,0.012904368648954664,1.0475866609391375,0.04980622219860613,0.025883866419798535
0.47799999999999987,-0.0087,0.719999999999889,0.012968629384192793,1.0475866609391375,0.050137645416886,0.025883866419798535
0.479,-0.0207,-1.28,0.012994436179374834,1.1137042840420381,0.050270743351122624,0.03187011649235345
0.47999999999999987,-0.0364,-1.28,0.013086647707664661,1.1111311251443703,0.05074632212181472,0.031637144223917744
0.481,-0.0143,-0.28,0.013056448229365305,1.114972047724339,0.05059056902855713,0.03198489905831691
0.4819999999999999,-0.0173,-1.28,0.013128447628213484,1.114972047724339,0.05096190422091144,0.03198489905831691
0.483,0.0015,0.72,0.013059783772472378,1.114972047724339,0.05060777201304152,0.03198489905831691
0.4839999999999999,0.0381,1.72,0.01305924693801492,1.1213553460779555,0.05060500330205627,0.03256283907550425
0.485,0.033,2.72,0.013059289933356137,1.127702512699434,0.05060522504950912,0.03313750774726231
0.4859999999999999,0.0189,1.72,0.012851901632795586,1.1200617804664321,0.049535624806831095,0.03244572041829262
0.487,-0.0029,0.72,0.012791337298820293,1.1200617804664321,0.04922326569041752,0.03244572041829262
0.4879999999999999,-0.0069,0.72,0.012980721316975719,1.108518622772139,0.05020000927349751,0.031400609820813455
0.489,-0.0106,-1.28,0.0131235679891871,1.116238371549564,0.050936737598335835,0.03209955126048143
0.4899999999999999,-0.0009,-0.28,0.013130169328871911,1.1302379449379725,0.050970783851233374,0.033367064266532326
0.491,0.0139,0.72,0.013097423577684843,1.1327677022261033,0.05080189841593305,0.03359610697918477
0.4919999999999999,-0.005,-1.28,0.013040478770231487,1.1289873237838388,0.0505082069217324,0.03325383377482182
0.493,0.0116,1.72,0.013083378992943491,1.1289873237838388,0.050729463803146024,0.03325383377482182
0.4939999999999999,-0.004,-1.28,0.013068218347120469,1.1289873237838388,0.05065127313179364,0.03325383377482182
0.495,-0.0058,-1.28,0.013011201285907038,1.1289873237838388,0.05035720899053863,0.03325383377482182
0.4959999999999999,-0.0149,-0.28,0.012954936710657217,1.117536362824763,0.050067025777798466,0.03221707061463672
0.497,-0.0135,0.72,0.012950509776586966,1.117536362824763,0.05004419397029986,0.03221707061463672
0.4979999999999999,-0.003,-1.28,0.012889924302511027,1.117536362824763,0.04973172582431847,0.03221707061463672
0.499,0.0034,-1.28,0.012889544883381612,1.1200948072661503,0.04972976897915506,0.032448710644996645
0.4999999999999999,-0.0002,0.72,0.012857504928545496,1.1200948072661503,0.04956452367179937,0.032448710644996645
0.501,0.0008,-1.28,0.01284442693986329,1.1137042840420381,0.04949707425526807,0.03187011649235345
0.5019999999999999,0.0073,0.72,0.012936346768722011,1.113704284042038,0.049971148593060837,0.031870116492353426
0.503,0.0116,0.72,0.012822164134636176,1.1277353157330743,0.049382254365191086,0.033140477714319404
0.5039999999999999,0.0156,-0.28,0.01284965961587001,1.1340467747507519,0.04952406165769876,0.033711913440974295
0.505,0.0087,-0.28,0.012867663956562964,1.140323301653346,0.04961691861791488,0.03428018643481092
0.5059999999999999,0.0189,-0.28,0.012704819425983198,1.1378103432754485,0.04877705181271845,0.03405266468544911
0.507,0.0041,-0.28,0.012720231345265443,1.1378103432754485,0.04885653842097874,0.03405266468544911
0.5079999999999999,0.0023,0.72,0.012594067796603124,1.1302379449379725,0.0482058529102648,0.033367064266532326
0.509,0.0004,-0.28,0.012992667591835743,1.122614469482123,0.05026162190282541,0.03267683935585042
0.5099999999999999,-0.0108,-0.28,0.013574606669989381,1.1675138894264367,0.05326295889982358,0.03674200599804828
0.511,-0.0122,-1.28,0.013980483467697783,1.1650595808690007,0.05535625886010527,0.03651979436837191
0.5119999999999999,-0.0157,-0.28,0.01480900634885275,1.1650595808690007,0.05962934597424028,0.03651979436837191
0.513,0.0007,0.72,0.014755783415506209,1.1650595808690007,0.059354849957494744,0.03651979436837191
0.5139999999999999,0.012,2.72,0.015613786666512204,1.1650595808690016,0.06377998138011616,0.03651979436837199
0.515,-0.0181,-1.28,0.016285523769817057,1.1724070931471016,0.06724444956259652,0.03718503373790317
0.5159999999999999,-0.0138,-0.28,0.016355484702025816,1.1797088442275148,0.06760527141159288,0.0378461299159505
0.517,0.0061,-1.28,0.016513322352305303,1.186965678625795,0.06841931535036068,0.038503159364447384
0.5179999999999999,-0.0048,0.72,0.016507574618647346,1.186965678625795,0.06838967155030645,0.038503159364447384
0.519,-0.0145,0.72,0.01649690541575931,1.1736429662284888,0.06833464538939296,0.037296928947923184
0.5199999999999999,0.0062,0.72,0.016522230322665307,1.1797088442275094,0.06846525799627211,0.037846129915950016
0.521,0.0037,-1.28,0.01653278052560387,1.1760793626310233,0.06851967041776787,0.03751751882180213
0.5219999999999999,-0.0082,-0.28,0.016607659329492742,1.176079362631023,0.06890585607334487,0.03751751882180211
0.523,-0.0017,-0.28,0.016721835381275123,1.1760793626310235,0.06949471635314064,0.03751751882180215
0.5239999999999999,-0.0318,0.72,0.016706213179006543,1.1785107221555455,0.06941414521536443,0.037737652659756746
0.525,-0.01,-2.28,0.016894967946870548,1.1845516735063042,0.07038764345498681,0.03828459678395037
0.5259999999999999,0.002,-1.28,0.01681708484921222,1.184551673506304,0.06998596322552979,0.038284596783950346
0.527,0.0129,0.72,0.01678500826314034,1.173642966228481,0.06982052899344422,0.037296928947922484
0.5279999999999999,0.0096,3.72,0.016779425140110195,1.1663032397668311,0.0697917341687998,0.03663239450155855
0.529,0.0183,-0.28,0.01685010622631801,1.1699630494304594,0.07015627019497045,0.036963751480776255
0.5299999999999999,0.0209,-1.28,0.01672271068528173,1.1638463782053083,0.06949923071280004,0.03640995172441828
0.531,0.014,-0.28,0.016386749090805515,1.1905619732620352,0.06776651675540235,0.0388287657310528
0.5319999999999999,-0.0016,-0.28,0.016407309957155086,1.2036974379949388,0.06787255893607372,0.04001804285597318
0.533,-0.0034,-1.28,0.016352866408254337,1.2036974379949388,0.06759176762354985,0.04001804285597318
0.5339999999999999,-0.0052,-1.28,0.016641674743441855,1.2036974379949388,0.06908128976423498,0.04001804285597318
0.535,0.0062,-1.28,0.016250327208006937,1.1929638163861407,0.06706292412961992,0.03904622717175773
0.5359999999999999,0.0019,-0.28,0.01599213635850761,1.1626319095692312,0.06573131094538875,0.03629999446008169
0.537,0.0223,0.72,0.01588058234684824,1.1490270871875077,0.06515597377535522,0.035068221974205435
0.5379999999999999,0.0194,1.72,0.01604500197059867,1.1490270871875077,0.06600396408623173,0.035068221974205435
0.539,-0.0049,1.72,0.016151888595861474,1.1465332058259867,0.06655522932159515,0.03484242744650268
0.5399999999999999,-0.0016,0.72,0.016155174467697517,1.1402908607415077,0.06657217612767698,0.0342772492540453
0.541,-0.0045,0.72,0.016157696029012583,1.1427983645943858,0.06658518102036973,0.034504277153972404
0.5419999999999999,0.0143,-0.28,0.016098038870715446,1.1465332058259865,0.06627750064100585,0.034842427446502656
0.543,-0.0023,0.72,0.016100724886345615,1.1465332058259865,0.06629135370292931,0.034842427446502656
0.5439999999999999,-0.0001,0.72,0.01605892257952815,1.1465332058259865,0.06607575929670866,0.034842427446502656
0.545,0.0097,0.72,0.016063024173082887,1.1427983645943858,0.06609691316821277,0.034504277153972404
0.5459999999999999,-0.0012,-0.28,0.0160673757770611,1.1576973901199779,0.06611935646254787,0.03585322601885772
0.547,0.0079,-0.28,0.016019633319892857,1.1576973901199779,0.06587312587174224,0.03585322601885772
0.5479999999999999,-0.0001,0.72,0.01596275409854077,1.1552222262671432,0.06557977263630373,0.03562912616320265
0.549,-0.0044,1.72,0.015960933560231975,1.1490270871875077,0.06557038325314361,0.035068221974205435
0.5499999999999999,-0.0134,-0.28,0.01596788005702257,1.145300378568259,0.06560620964563008,0.03473080800353609
0.551,-0.0297,-1.28,0.01597602649627373,1.1427983645943858,0.0656482247129046,0.034504277153972404
0.5519999999999999,-0.0141,1.72,0.015998930601077266,1.1390512772380317,0.06576635209034087,0.034165018104627354
0.553,-0.0159,-1.28,0.015996728864592556,1.1502880800941064,0.0657549966866272,0.0351823915181842
0.5539999999999999,-0.0068,-1.28,0.015956178253869826,1.1502880800941064,0.06554585787333571,0.0351823915181842
0.555,-0.0082,-0.28,0.015936271704604987,1.1527738382855415,0.06544319031751407,0.035407450578923166
0.5559999999999999,0.0147,-0.28,0.01592312222931973,1.1589489493530702,0.06537537221052259,0.0359665414436764
0.557,0.0114,-1.28,0.01587692339953919,1.1650913321184702,0.0651371028413675,0.036522669107518904
0.5579999999999999,-0.0332,-1.28,0.015913936872967757,1.1650913321184702,0.06532799895293476,0.036522669107518904
0.559,-0.0394,-3.28,0.01592858790325256,1.1687549367252326,0.06540356129423247,0.036854369678619464
0.5599999999999999,-0.0336,-0.28,0.0159556967877359,1.189343681221544,0.06554337472316621,0.0387184622979661
0.561,-0.0491,-0.28,0.01592153874959739,1.1953298862793567,0.0653672054514011,0.03926044972552211
0.5619999999999999,0.0038,-0.28,0.01601174679936729,1.189343681221544,0.06583245132913193,0.0387184622979661
0.5630000000000001,0.05309999999999865,0.720000000000111,0.016101181155655654,1.189343681221544,0.06629370690107705,0.0387184622979661
0.564,0.047,1.72,0.01614425236228964,1.1869345125290696,0.06651584562801405,0.03850033760468005
0.5650000000000001,0.01770000000000113,1.72,0.01611232723775057,1.156444476390731,0.06635119255519258,0.035739787958766894
0.566,0.0228,1.719999999999778,0.01617598962370157,1.1527417477616657,0.06667952980121179,0.035404545122074235
0.5670000000000001,-0.0011000000000009771,-0.28,0.0166909455676236,1.166303239766832,0.06933540287167304,0.036632394501558634
0.568,-0.0055,-0.28000000000011105,0.01670042593435522,1.1626319095692312,0.06938429763829879,0.03629999446008169
0.5690000000000001,-0.0094999999999992,-1.279999999999778,0.016697380614045066,1.1626319095692312,0.06936859147100792,0.03629999446008169
0.57,-0.0059,0.719999999999889,0.01663440498690315,1.1601672733358765,0.06904379616726258,0.036076847768801226
0.5710000000000001,0.016900000000000664,-0.279999999999889,0.01667059264880255,1.1601672733358768,0.0692304331754493,0.03607684776880125
0.572,0.0199,0.72,0.016675885406878442,1.1675455739313072,0.0692577304497271,0.036744874694179176
0.5730000000000001,0.001000000000005973,0.7199999999997779,0.0166607446229718,1.1675455739313072,0.0691796422157375,0.036744874694179176
0.574,0.0279,-1.279999999999778,0.016660307842374388,1.1699946676098911,0.06917738953016302,0.03696661417184158
0.5750000000000001,0.002499999999997824,0.72,0.01641898901193759,1.1675455739313072,0.06793279338418798,0.036744874694179176
0.576,-0.0073,0.7199999999997779,0.01638981371570266,1.1601991584734763,0.06778232248564288,0.03607973463009951
0.5770000000000001,-0.004300000000002975,-1.28,0.016388603369112454,1.156508451063178,0.06777608015180288,0.03574558018736807
0.578,-0.0177,-1.28,0.016338675887238002,1.167577257576365,0.06751858034788495,0.03674774331246315
0.5790000000000001,-0.0009999999999965362,-0.28,0.016310493184958412,1.104688749057203,0.06737322872912875,0.031053855344049665
0.58,0.0146,2.72,0.016247648903616272,1.104688749057203,0.06704911083823137,0.031053855344049665
0.5810000000000001,0.016499999999993895,1.72,0.01622443537487562,1.0982085809729234,0.06692938761417627,0.030467144799353977
0.582,-0.011,-1.28,0.016363956379203837,1.0982085809729234,0.06764896388576336,0.030467144799353977
0.5830000000000001,-0.030899999999995983,0.72,0.016449240397423574,1.0982085809729234,0.0680888141875298,0.030467144799353977
0.584,-0.0128,0.72,0.016445718388793402,1.1378103432754396,0.06807064951153138,0.034052664685448306
0.5850000000000001,-0.015999999999996715,0.72,0.016652828853152838,1.1378103432754396,0.06913881682059003,0.034052664685448306
0.586,-0.0012,-0.28,0.01723364560521055,1.1453326775882877,0.07213436544736038,0.034733732337502085
0.5870000000000001,0.023099999999999267,0.72,0.017468232819109024,1.1785421110162078,0.07334424344065493,0.03774049458843776
0.588,0.0198,-0.28,0.017326305762622514,1.1894058863430657,0.07261225801211227,0.03872409431248426
0.5890000000000001,0.011099999999998202,-0.28,0.017559559815268175,1.1761108163814944,0.07381526025785655,0.03752036662556765
0.59,0.003,0.72,0.01768261295945674,1.1761108163814944,0.07444990393124909,0.03752036662556765
0.5909999999999999,0.0008,-1.28,0.017693847240442893,1.179740201210231,0.07450784446905485,0.03784896895842133
0.592,-0.0058,-1.28,0.01769033483585998,1.1773113807835895,0.07448972932570244,0.03762906500887105
0.5929999999999999,0.0,1.72,0.01764271063545647,1.1773113807835895,0.07424410864135692,0.03762906500887105
0.594,-0.0054,0.72,0.01776346633309301,1.1809370759124187,0.074866903288633,0.03795733327850072
0.5949999999999999,-0.0069,-2.28,0.017995503192384833,1.178510722155543,0.0760636278885162,0.037737652659756524
0.596,-0.0083,-0.28,0.017970380844506965,1.1760793626310195,0.07593405997502166,0.037517518821801786
0.5969999999999999,0.0007,-0.28,0.01797077556921933,1.18213273881472,0.0759360957583662,0.03806558788294276
0.598,0.0018,-0.28,0.017963431735562627,1.188155274847777,0.0758982201104142,0.03861086469527981
0.5989999999999999,-0.0058,0.72,0.018033611730980274,1.1857436915790875,0.0762601717727161,0.03839252138770662
0.6,-0.0051,-0.28,0.018034369533123987,1.172407093147092,0.07626408011930377,0.03718503373790231
0.6009999999999999,0.0086,0.72,0.018029301397236325,1.174846052506714,0.07623794132863565,0.03740585566038389
0.602,0.0068,1.72,0.01789064890635619,1.171201501513978,0.0755228443945634,0.03707588019210759
0.6029999999999999,-0.0022,0.72,0.018024999695738023,1.1638463782053086,0.07621575540515745,0.03640995172441829
0.604,-0.0134,0.72,0.017959130414947986,1.1905619732620354,0.07587603615133444,0.038828765731052824
0.6049999999999999,-0.0058,-1.28,0.01812924035813331,1.197753053540075,0.07675337414977107,0.03947984184080903
0.606,0.0145,-1.28,0.018139392821144212,1.200140505229937,0.07680573523702088,0.03969600028966031
0.6069999999999999,0.0116,-0.28,0.018141937021122812,1.2001405052299368,0.07681885688808401,0.0396960002896603
0.608,-0.0072,-1.28,0.018137151220720456,1.200140505229937,0.0767941742359868,0.03969600028966031
0.6089999999999999,-0.0093,-2.28,0.01784282999352195,1.1965729991737055,0.07527621948547326,0.039373000423879916
0.61,-0.0028,-1.28,0.017404857131381724,1.1858060855492023,0.07301738483392646,0.03839817050046352
0.6109999999999999,-0.0209,-0.28,0.017191686529163412,1.1989936541047708,0.07191796250755489,0.03959216507434183
0.612,-0.0231,-0.28,0.0167200510343971,1.201378640401312,0.06948551362642656,0.03980810030795561
0.6129999999999999,-0.0118,-0.28,0.016782863201334722,1.20730517375828,0.06980946588804413,0.040344685095387155
0.614,0.0064,0.72,0.015941435200850364,1.210841059976709,0.06546982092696597,0.04066482211995433
0.6149999999999999,0.0231,0.72,0.015233839256158215,1.2037281700776705,0.06182041162029328,0.040020825320372974
0.616,0.0434,1.72,0.015136294540331885,1.1965729991737046,0.061317327061338904,0.03937300042387984
0.6169999999999999,0.0083,0.72,0.015020951662141645,1.2036974379949412,0.06072244890201167,0.0400180428559734
0.618,0.0036,0.72,0.015124535737598942,1.245677709983045,0.0612566813150612,0.043818911587197286
0.6189999999999999,-0.0007,-0.28,0.015326540054694455,1.2479734821612185,0.06229851379067998,0.04402676942786365
0.62,-0.0126,0.72,0.015626223112588992,1.2616310701423805,0.06384412205587188,0.04526331927957133
0.6209999999999999,0.0056,1.72,0.015669959355688243,1.2784906695246654,0.06406969069260954,0.04678977732946789
0.622,-0.0041,-0.28,0.01581938309915515,1.2907316150616348,0.0648403401064968,0.047898065221105804
0.6229999999999999,-0.0012,0.72,0.015899691313273713,1.3006586628122732,0.06525452781659462,0.04879685419034974
0.624,-0.0146,-0.28,0.016076446185328802,1.3105105158592234,0.06616613687811662,0.04968883507607095
0.6249999999999999,0.0021,1.72,0.016112352590263296,1.305052744990258,0.06635132331017583,0.04919469176409065
0.626,-0.0001,0.72,0.01628960323824467,1.3028575563650897,0.06726548932428211,0.04899594069818748
0.6269999999999999,0.0017,1.72,0.016383694144709783,1.3028575563650913,0.0677507609433506,0.04899594069818762
0.628,-0.0002,-0.28,0.01638534834619263,1.2995720534989992,0.06775929244827499,0.04869847323266919
0.6289999999999999,-0.0114,-0.28,0.016310061760497308,1.3061631166598557,0.06737100366770028,0.04929522415130831
0.63,-0.019,-0.28,0.016315172697894755,1.3181471076403333,0.06739736320614023,0.05038024753100137
0.6309999999999999,-0.0255,-0.28,0.016268982441327656,1.2940681501623472,0.06715913805313019,0.04820015311464119
0.632,-0.0168,-0.28,0.016191700590752065,1.2818590668270091,0.06676055874124598,0.047094750007692684
0.6329999999999999,-0.0001,-3.28,0.01617214892628639,1.2818590668270091,0.06665972149536122,0.047094750007692684
0.634,0.0267,-1.28,0.01591352113779872,1.2918542960549402,0.06532585480865812,0.04799971208713381
0.6349999999999999,0.0448,1.72,0.01606408153400191,1.2918542960549402,0.06610236648208113,0.04799971208713381
0.636,0.0286,2.72,0.01598452279864333,1.3289048506644967,0.06569204419091675,0.051354247153744925
0.6369999999999999,0.0018,1.72,0.01598813398269225,1.3470480288622377,0.06571066878702289,0.052996919662307004
0.638,0.0345,-0.28,0.01584892099654793,1.356563027319643,0.06499268111191572,0.053858401934852626
0.6389999999999999,0.0214,1.72,0.015726818008523977,1.3618143750385532,0.06436293784641266,0.05433385581822065
0.64,-0.0065,-1.28,0.015688090185214935,1.3990581928478292,0.06416320001598645,0.05770588881940728
0.6409999999999999,-0.0028,-0.28,0.015943938841359598,1.3990581928478267,0.06548273339352757,0.05770588881940706
0.642,-0.006,-0.28,0.016452685376039805,1.4303545423833246,0.06810658158305781,0.06053944159830844
0.6429999999999999,-0.0208,-1.28,0.01649937121541513,1.427362542234661,0.06834736269265032,0.06026854769337863
0.644,-0.0288,-0.28,0.016510623605297377,1.421333620895393,0.06840539662665832,0.0597226927592342
0.6449999999999999,-0.0019,-0.28,0.01672111220390266,1.4193182894821779,0.06949098658298969,0.059540225857787885
0.646,0.0017,-1.28,0.01683576260030126,1.402110593682468,0.07008229328389624,0.05798225136633953
0.6469999999999999,0.006,-1.28,0.0168367610878513,1.4041506229552418,0.07008744295976006,0.05816695439722662
0.648,0.0159,-0.28,0.016891499874805833,1.4092246509753508,0.07036975695554581,0.0586263538610617
0.6489999999999999,-0.0047,-0.28,0.01689061894640013,1.4142804749722038,0.07036521358818144,0.059084105143513026
0.65,-0.0127,0.72,0.016887446930232093,1.4122550785387915,0.07034885399000768,0.05890072696115464
0.6509999999999999,-0.0196,0.72,0.016963071629111013,1.412255078538791,0.07073888658130965,0.0589007269611546
0.652,-0.0261,-1.28,0.01706360234385401,1.4373288130823076,0.07125737135887457,0.06117088789837928
0.6529999999999999,0.004,2.72,0.017313627842031207,1.453147952531186,0.07254687193727362,0.06260314332786172
0.654,0.0257,1.72,0.0174439204527542,1.4531479525311852,0.07321885298765972,0.06260314332786167
0.6549999999999999,-0.0102,0.72,0.01741069929739077,1.4511768041546769,0.07304751566659229,0.062424676732147466
0.656,-0.015,-0.28,0.01740539987662436,1.4462499686933707,0.0730201840296461,0.06197860399459898
0.6569999999999999,-0.0106,-1.28,0.01734703487661123,1.4521754498105794,0.07271916792599314,0.06251509351287171
0.658,-0.0066,0.72,0.01731434015084596,1.4521754498105794,0.07255054565309589,0.06251509351287171
0.6589999999999999,-0.003,2.72,0.017311527822669398,1.4521754498105794,0.07253604113720945,0.06251509351287171
0.66,0.0198,1.72,0.01738105709572967,1.4353617129805807,0.0728946367143827,0.06099278783104384
0.6609999999999999,0.0285,0.72,0.01739372360565712,1.432380172003416,0.0729599639389931,0.06072284089324936
0.662,0.015,-1.28,0.017299563517458722,1.4373545499004556,0.07247433551677558,0.06117321809450968
0.6629999999999999,0.0081,-1.28,0.017251805029584955,1.4373545499004556,0.07222802224798633,0.06117321809450968
0.664,0.0016,-1.28,0.017425052070115576,1.4373545499004556,0.07312153975159642,0.06117321809450968
0.6649999999999999,-0.0041,-1.28,0.017955853089233312,1.4353617129805807,0.07585913342167093,0.06099278783104384
0.666,-0.0131,-2.28,0.017835365010146355,1.4333661053832525,0.0752377190107187,0.060812106712097615
0.6669999999999999,-0.0177,-3.28,0.017354314772007596,1.4273625422346528,0.07275671381388354,0.06026854769337789
0.668,-0.0254,0.72,0.01742970660165335,1.4273625422346525,0.07314554538763711,0.06026854769337787
0.6689999999999999,-0.0319,-2.28,0.017483716070922466,1.425355735227377,0.07342409794475348,0.06008685258654968
0.67,-0.0131,-2.28,0.01757389626827678,1.4273625422346525,0.07388920017431135,0.06026854769337787
0.6709999999999999,0.0275,1.72,0.017529355286342144,1.436345599778676,0.07365948111611165,0.061081868353604636
0.672,-0.0255,1.72,0.017520911557501826,1.4273625422346525,0.07361593278483017,0.06026854769337787
0.6729999999999999,0.0238,1.72,0.017528889743478746,1.4273625422346525,0.07365708008983234,0.06026854769337787
0.674,0.0299,-0.28,0.017528487318095365,1.425355735227377,0.07365500459045961,0.06008685258654968
0.6749999999999999,0.0241,-0.28,0.017468788292874748,1.4273625422346528,0.0733471082834306,0.06026854769337789
0.676,0.019,0.72,0.017484081669101176,1.4163029749727216,0.07342598350869134,0.059267221084568555
0.6769999999999999,0.0049,0.72,0.01749371393640311,1.4142804749721984,0.0734756616989067,0.05908410514351255
0.678,-0.0082,1.72,0.01749843952919719,1.405156363846598,0.07350003383169185,0.05825801357632751
0.6789999999999999,-0.0042,1.72,0.017501343343594974,1.4071919776233757,0.07351501018559496,0.058442316830846566
0.68,-0.0079,-1.28,0.017465396105497803,1.4092246509753446,0.07332961315746746,0.05862635386106114
0.6809999999999999,-0.0046,-0.28,0.017395207482680083,1.4092246509753446,0.07296761699955424,0.05862635386106114
0.682,-0.0076,-1.28,0.017264836153890312,1.4112543966080586,0.07229522996260526,0.058810125817324484
0.6829999999999999,0.0112,1.72,0.017221254647435992,1.4112543966080586,0.07207045937644481,0.058810125817324484
0.684,-0.0254,0.72,0.017221816096574406,1.3857356339109372,0.07207335503706344,0.05649967229709724
0.6849999999999999,0.0011,-3.28,0.01711838407909655,1.3826470833689035,0.07153990685943737,0.05622003677726671
0.686,-0.0036,-2.28,0.016665181212371916,1.3712269130565324,0.06920252382037094,0.055186061383828505
0.6869999999999999,0.0095,1.72,0.01642060188181085,1.3480963715456584,0.06794111172231593,0.053091835982195315
0.6880000000000001,-0.0024999999999991787,-1.280000000000222,0.01641977271788318,1.3385211884559676,0.06793683532901959,0.05222490462901916
0.689,0.0012,-3.2799999999995557,0.01605404931455872,1.340657982848187,0.06605062554818067,0.052418368715977506
0.6900000000000001,-0.028600000000002665,0.7199999999995559,0.015910903598586015,1.3288770134653476,0.06531235491223406,0.051351726790374225
0.691,-0.0406,-3.2799999999995557,0.01592081413903172,1.3288770134653476,0.06536346828959017,0.051351726790374225
0.6920000000000001,0.013699999999998312,0.7199999999997779,0.015973762374509103,1.3310292904160959,0.065636547558589,0.05154659265892675
0.693,0.0061,-1.279999999999889,0.015962549624544915,1.3331780927447652,0.06557871806651848,0.05174114393727327
0.6940000000000001,0.026999999999998622,-0.28,0.015849161704923464,1.3278134966943076,0.06499392255965501,0.05125543661766349
0.695,0.0208,-0.279999999999889,0.01563853925058807,1.3299674947278066,0.0639076422455695,0.051450458312019456
0.6960000000000001,-0.008500000000001133,0.7199999999997779,0.01564303225856527,1.3321180098105245,0.06393081482767647,0.0516451646620937
0.697,-0.0136,-1.28,0.015642938169386462,1.3321180098105245,0.06393032956496775,0.0516451646620937
0.6980000000000001,0.0005000000000009548,-1.279999999999889,0.015665310410716705,1.3385488250895203,0.06404571386915174,0.052227406833300655
0.699,0.0048,-0.28,0.015584477711012876,1.3438705674727536,0.0636288211370842,0.05270923420749661
0.7000000000000001,0.016800000000000797,-0.27999999999966696,0.01559012887344117,1.345998869668372,0.06365796687331125,0.05290192941605109
0.701,0.0204,2.72,0.01566384719640624,1.3459988696683722,0.06403816737604034,0.05290192941605111
0.7020000000000001,0.030099999999998066,2.719999999999778,0.015541592873716377,1.3438705674727538,0.0634076436055862,0.05270923420749663
0.703,0.0214,0.719999999999889,0.015391188326394504,1.3385488250895203,0.06263193571907318,0.052227406833300655
0.7040000000000001,0.007999999999997358,-0.28,0.015563008600743649,1.3094038307800817,0.0635180947099329,0.04958863647054944
0.705,-0.0039,-0.28,0.015568170065564034,1.2995435879694681,0.06354471484235857,0.04869589598064131
0.7060000000000001,0.002700000000000422,1.72,0.0158793598831975,1.3159175399490561,0.06514966894806284,0.05017838380500351
0.707,0.0046,-0.28,0.016294453527842163,1.3213304344169863,0.06729050457787411,0.050668464034459876
0.7080000000000001,0.006499999999994537,-1.28,0.016287083415913443,1.321330434416986,0.06725249340035729,0.050668464034459855
0.709,-0.0181,-0.28,0.01627765292716363,1.3213304344169863,0.06720385587824003,0.050668464034459876
0.7100000000000001,-0.007200000000000733,0.72,0.016744880009509043,1.2940109763284826,0.06961356847683713,0.04819497662989993
0.711,-0.0105,-1.28,0.017202211562983134,1.2940109763284826,0.07197224511991702,0.04819497662989993
0.7120000000000001,-0.019200000000001775,-0.28,0.01724538525842841,1.2973105629727233,0.07219491243046809,0.04849371923227307
0.713,-0.0272,-0.28,0.017215218401903508,1.3039130576413394,0.07203932758323874,0.04909150515279133
0.7140000000000001,-0.04379999999999252,-0.28,0.01719618005408386,1.310482287928597,0.07194113775578442,0.04968627933610585
0.715,-0.0101,-0.28,0.01719842803132927,1.317018751598303,0.07195273164512499,0.050278086849454194
0.7160000000000001,0.013800000000000976,-1.28,0.017235390328571226,1.311588063032958,0.07214336381672325,0.04978639555305468
0.717,0.0182,0.72,0.017211760254429265,1.2984560455092584,0.07202149226963779,0.048597430536395
0.7179999999999999,0.0142,-0.28,0.017136031281499986,1.2984560455092584,0.07163092188739356,0.048597430536395
0.719,0.0178,0.72,0.01700279728547794,1.325683903567336,0.0709437707120719,0.051062624528955984
0.7199999999999999,0.0016,1.72,0.016719941233365405,1.319218417205243,0.06948494733020913,0.05047724325861077
0.721,-0.0013,0.72,0.016713781504965386,1.330023122896169,0.0694531786770417,0.05145549485313009
0.7219999999999999,0.0067,-0.28,0.01655233408077114,1.3203168757572872,0.06862051741490127,0.050576697039286446
0.723,-0.0002,-0.28,0.016355757861716953,1.3105387431817839,0.06760668022622293,0.049691390760982106
0.7239999999999999,0.0021,0.72,0.01618721219439706,1.3105387431817839,0.06673740994347112,0.049691390760982106
0.725,-0.0076,-0.28,0.015910588497252274,1.3127210870590462,0.06531072978457676,0.049888978871088084
0.7259999999999999,-0.0058,-0.28,0.015926039003797902,1.3181471076403002,0.065390415405733,0.05038024753099838
0.727,-0.0044,0.72,0.016077802330188306,1.3278692150996962,0.06617313116307345,0.05126048132878055
0.7279999999999999,0.0032,0.72,0.01607459664634524,1.3278692150996965,0.06615659792466404,0.05126048132878057
0.729,0.0021,0.72,0.016103839394551633,1.3213864261912565,0.06630741670515256,0.05067353349623205
0.7299999999999999,0.0108,-0.28,0.0161281817922721,1.3213864261912565,0.066432962044204,0.05067353349623205
0.731,0.0141,0.72,0.016109807238335005,1.3181471076403004,0.06633819571795947,0.050380247530998394
0.7319999999999999,0.0115,-0.28,0.01617195979705078,1.3203168757572872,0.06665874606581308,0.050576697039286446
0.733,0.0014,1.72,0.01616310756398463,1.3439256201611236,0.06661309088367308,0.05271421864499275
0.7339999999999999,-0.0189,0.72,0.01630645207757624,1.3343205077853173,0.06735238681362543,0.05184457751214255
0.735,-0.0218,-0.28,0.01625966893351143,1.3439256201611236,0.06711110385740413,0.05271421864499275
0.7359999999999999,-0.0029,-1.28,0.01626041690002472,1.317103013310057,0.06711496147696111,0.050285715854467214
0.737,-0.0007,0.72,0.01628656925280941,1.3007439843248996,0.06724984161633975,0.048804579149100226
0.7379999999999999,0.0015,0.72,0.0164765554894827,1.2908175927405159,0.06822969112714619,0.04790584958875675
0.739,-0.0004,-0.28,0.016778649443227975,1.28527620096126,0.0697877335305226,0.04740413528954489
0.7399999999999999,0.0086,-1.28,0.016870225436931886,1.257202922324956,0.07026003454665725,0.04486239742319898
0.741,0.0133,0.72,0.01667821311758552,1.2572029223249588,0.06926973556250562,0.044862397423199245
0.7419999999999999,-0.0005,0.72,0.01620247559699031,1.2156207274431559,0.06681613058042944,0.04109757035522098
0.743,0.0085,-0.28,0.016154188004853166,1.2132637380060598,0.06656708846894763,0.04088416994052566
0.7439999999999999,-0.0129,0.72,0.016235181452352265,1.2073664534802322,0.06698481025395774,0.04035023332478148
0.745,-0.0042,0.72,0.016073866588246354,1.2097349329578062,0.0661528326673297,0.04056467404087326
0.7459999999999999,-0.0016,-1.28,0.01598319173352318,1.2120987843601787,0.06568517925412097,0.040778695733802814
0.747,0.0103,1.72,0.01621486010906324,1.209734932957808,0.0668800034077917,0.04056467404087342
0.7479999999999999,0.0002,-1.28,0.01620993595204644,1.2354586306851432,0.06685460718473613,0.042893682256232045
0.749,-0.0063,0.72,0.016225866849051886,1.2354586306851443,0.06693677040829814,0.04289368225623214
0.7499999999999999,0.0198,0.72,0.016268470875446056,1.241222451096264,0.06715649966422577,0.04341553511081162
0.751,0.0017,-0.28,0.016182905545907997,1.2412224510962644,0.06671519850600535,0.04341553511081166
0.7519999999999999,-0.0147,-0.28,0.016097883392676707,1.2097349329578093,0.06627669876670765,0.040564674040873536
0.753,-0.0234,-0.28,0.015951515386493455,1.1774056407761369,0.0655218092454051,0.037637599252250416
0.7539999999999999,-0.026,0.72,0.01583648058347272,1.1774056407761377,0.06492851997645971,0.0376375992522505
0.755,-0.0329,-2.28,0.015871320247946623,1.1774056407761377,0.06510820471988729,0.0376375992522505
0.7559999999999999,-0.0395,-1.28,0.016138524426354196,1.1798342671580877,0.06648630393424428,0.037857485633110415
0.757,-0.0094,-1.28,0.016163021314177697,1.1798342671580877,0.06661264605233894,0.037857485633110415
0.7579999999999999,0.0036,0.72,0.016220487039981264,1.1798342671580877,0.0669090241705791,0.037857485633110415
0.759,0.0394,0.72,0.016207506571965583,1.1798342671580875,0.06684207771457305,0.037857485633110394
0.7599999999999999,0.0441,1.72,0.016160837811153603,1.1822579046001154,0.06660138468726605,0.03807692031833201
0.761,0.031,-1.28,0.016145369309623573,1.1930878458933567,0.06652160625740444,0.03905745672919986
0.7619999999999999,0.011,1.72,0.016139171049522043,1.1930878458933567,0.06648963887790012,0.03905745672919986
0.763,0.0001,1.72,0.01603689337884099,1.1930878458933567,0.0659621442165074,0.03905745672919986
0.7639999999999999,-0.0032,1.72,0.01580811751469134,1.1930878458933565,0.06478223812174727,0.03905745672919984
0.765,-0.012,-0.28,0.01518932674889682,1.1954846143081246,0.06159083941954566,0.039274458708754865
0.7659999999999999,-0.0095,-1.28,0.015167132867825853,1.2085665778538717,0.06147637500416971,0.04045889186817154
0.767,-0.0073,-3.28,0.015108789164329702,1.2226644339623256,0.0611754687367981,0.04173530333294482
0.7679999999999999,-0.0138,2.72,0.015000032335303717,1.2203210491700205,0.06061455796987119,0.04152313467465642
0.769,-0.008,1.72,0.014937289038958924,1.2226644339623254,0.06029096090670313,0.0417353033329448
0.7699999999999999,0.0123,2.72,0.014831258673066275,1.2226644339623245,0.0597441118087382,0.04173530333294472
0.771,0.0148,0.72,0.014832517538801743,1.2097349329578044,0.05975060437891943,0.04056467404087309
0.7719999999999999,-0.0019,0.72,0.014883641934510588,1.2132637380060558,0.06001427723755777,0.0408841699405253
0.773,-0.0042,1.72,0.014906276400192814,1.2261560292305445,0.06013101395761941,0.0420514302813558
0.7739999999999999,-0.0024,0.72,0.014907011523295266,1.2389141689707146,0.060134805337589525,0.04320654462698794
0.775,0.0251,-1.28,0.014905542878824188,1.236601578135578,0.06012723083855353,0.04299716403517384
0.7759999999999999,0.0291,1.72,0.014892352137380199,1.2389141689707137,0.060059199902326846,0.04320654462698786
0.777,0.0037,0.72,0.015044321594266821,1.2389141689707137,0.0608429787728139,0.04320654462698786
0.7779999999999999,-0.0127,-1.28,0.015071785816837616,1.2366015781355773,0.06098462484950813,0.04299716403517378
0.779,-0.0098,1.72,0.015089649998152902,1.2342846543720802,0.06107675894105732,0.04278739114261604
0.7799999999999999,-0.0018,0.72,0.015151222852409768,1.2377434701748238,0.061394319476909695,0.04310055025781749
0.781,0.0149,0.72,0.015120358408003806,1.2377434701748238,0.061235136836724546,0.04310055025781749
0.7819999999999999,-0.0054,2.72,0.015057912051512941,1.2354286879182546,0.06091307123381226,0.04289097125601686
0.783,-0.0243,0.72,0.015145210739124842,1.2377434701748236,0.0613633121451982,0.04310055025781747
0.7839999999999999,-0.0222,1.72,0.015150656592871794,1.2273076398896163,0.06139139900676938,0.042155696422028995
0.785,-0.0019,1.72,0.01509641862506164,1.2307860629993466,0.06111166797384564,0.042470630771084344
0.7859999999999999,-0.0099,0.72,0.014939324165867138,1.236571663044418,0.060301457025476575,0.04299445554070258
0.787,0.0267,0.72,0.014965389710807039,1.271872543844881,0.06043588945545404,0.04619057618654222
0.7879999999999999,0.0318,-0.28,0.014965308804052401,1.2752294137638374,0.06043547218078541,0.04649450518236585
0.789,0.0176,1.72,0.015051936098658698,1.2852762009612777,0.06088225039866459,0.0474041352895465
0.7899999999999999,0.0132,0.72,0.015060165909933441,1.2974531293327876,0.06092469545517389,0.04850662710529129
0.791,0.0092,-0.28,0.015035837596613033,1.2919401990202322,0.060799222756081794,0.04800748969026106
0.7919999999999999,0.0056,-0.28,0.015061053465407722,1.295245060900233,0.06092927300148733,0.04830670990932655
0.793,-0.0173,-0.28,0.015068283578436115,1.2985415117463361,0.060966562137995305,0.0486051685984108
0.7939999999999999,-0.0144,0.72,0.015071249437994283,1.304026534507433,0.06098185848834193,0.0491017792804143
0.795,-0.0119,0.72,0.015033171459986026,1.301829615452987,0.06078547221964579,0.048902871542478715
0.7959999999999999,-0.0286,-0.28,0.015032865592580229,1.2996289826875504,0.06078389471575293,0.04870362756737001
0.797,-0.013,2.72,0.015103661406314434,1.2963352971741016,0.06114902244642058,0.04840541924985124
0.7979999999999999,-0.0072,-1.28,0.01515108887160815,1.3138531340026025,0.061393628474102215,0.04999147372465311
0.799,-0.0127,-1.28,0.015152389238474591,1.308409306278985,0.06140033508538239,0.049498592816717805
0.7999999999999999,0.0021,-0.28,0.015139826938978496,1.3062197585890594,0.06133554532360075,0.04930035247771952
0.801,0.0119,-0.28,0.015009948158652059,1.3094885824895426,0.0606656985936724,0.04959630983966193
0.8019999999999999,0.0209,-0.28,0.015014605222921027,1.3214424155930746,0.06068971729221418,0.05067860274320384
0.803,0.0096,0.72,0.01504931611506188,1.3268327711883914,0.06086873789538744,0.051166642316606864
0.8039999999999999,-0.0132,-0.28,0.015261389651383296,1.3268327711883914,0.061962502130408714,0.051166642316606864
0.805,-0.0295,0.72,0.015381274146028877,1.324673675918138,0.06258080356891636,0.05097115912148213
0.8059999999999999,0.0093,1.72,0.015026651943145663,1.3450039006045587,0.06075184796612836,0.05281184551177684
0.807,0.0144,-0.28,0.014538927969725474,1.3513733968553845,0.05823642313782271,0.053388535894828004
0.8079999999999999,0.0003,-1.28,0.014688003227341904,1.3460813172901014,0.05900527524419921,0.05290939417443769
0.809,0.0133,0.72,0.014809829288194323,1.3439531456596472,0.05963359026438141,0.05271671078717514
0.8099999999999999,0.0014,1.72,0.014886757242795567,1.3471304122728696,0.06003034436616929,0.05300437860705921
0.811,-0.0095,-1.28,0.014251061941514227,1.335406543945507,0.05675176092302428,0.05194290657688547
0.8119999999999999,-0.0063,-0.28,0.013919624718493914,1.341821598685707,0.0550423813041313,0.052523721798331036
0.8130000000000001,-0.0033999999999994447,-0.279999999999889,0.01389281376537178,1.3300509361078912,0.054904104449128625,0.05145801304469349
0.814,-0.0009,0.720000000000111,0.013898843203867231,1.3203448934321984,0.054935201135202595,0.05057923374282476
0.8150000000000001,0.0058999999999995115,1.7199999999995559,0.013947777723117212,1.3268048905157481,0.05518757975792934,0.051164118017171994
0.816,0.0037,-2.2799999999997778,0.013926471235526705,1.328960523313428,0.05507769205338755,0.05135928772209969
0.8170000000000001,0.0019000000000003996,-0.279999999999889,0.013909686838192303,1.335406543945507,0.05499112692211661,0.05194290657688547
0.818,0.0037,0.72,0.013917741882444372,1.2985415117463364,0.05503267062185043,0.04860516859841082
0.8190000000000001,-0.001000000000000333,0.719999999999889,0.013864846254532904,1.2740920836472076,0.05475986267512542,0.046391531993468876
0.82,-0.0025,-0.28000000000011105,0.013845401846956509,1.267334238677982,0.05465957860410392,0.045779680749597304
0.8210000000000001,0.0123999999999996,-1.279999999999667,0.01385667846731453,1.242270764531438,0.054717737506216176,0.04351044878258115
0.822,0.0106,1.72,0.013795270641627597,1.2399644339175737,0.05440102810130017,0.04330163498745889
0.8230000000000001,0.001499999999999689,1.719999999999778,0.013803399494568217,1.2502946262419603,0.05444295246759509,0.04423692442542195
0.824,0.0001,-0.279999999999889,0.013837692317306152,1.237653805533492,0.0546198168877358,0.043092432074790216
0.8250000000000001,-0.004300000000003953,0.719999999999889,0.013877647615986534,1.237653805533492,0.05482588539328456,0.043092432074790216
0.826,-0.0221,-0.28,0.013886776060853527,1.23187328787523,0.054872965131238044,0.04256906746143561
0.8270000000000001,-0.010099999999999533,-0.28,0.013633219509687636,1.2213873023539812,0.05356525323077596,0.041619672600557246
0.828,-0.008,-0.28000000000011105,0.01363849337111254,1.2387947276544862,0.05359245304602436,0.043195730481615145
0.8290000000000001,-0.013799999999998001,-1.279999999999889,0.01359201851016733,1.2387947276544862,0.05335276005268257,0.043195730481615145
0.83,-0.0048,-0.28,0.013578484467203335,1.2283678285576995,0.053282958547006626,0.04225168527028746
0.8310000000000001,0.003200000000003708,-0.279999999999889,0.013640387112617112,1.2387947276544862,0.053602219972930965,0.043195730481615145
0.832,0.0199,0.72,0.013584850992148264,1.2364819134284002,0.053315793748450996,0.042986329664118035
0.8330000000000001,0.004299999999995959,0.72,0.013591645906455853,1.2048705146813807,0.05335083835787558,0.040124252517932696
0.834,-0.0139,-1.28,0.013383841776187786,1.2084135248707648,0.05227909348334094,0.04044503454257164
0.8350000000000001,-0.001899999999997513,-1.28,0.013216345127094093,1.1953298862793478,0.051415233487217084,0.039260449725521306
0.836,0.0093,-3.28,0.01322597785708536,1.1953298862793478,0.051464914063741714,0.039260449725521306
0.8370000000000001,-0.0004999999999962918,-1.28,0.013206898437593107,1.1953298862793478,0.05136651241010981,0.039260449725521306
0.838,0.0162,1.72,0.012936181311221024,1.1953298862793478,0.049970295249922726,0.039260449725521306
0.8390000000000001,0.004999999999998712,1.72,0.012679599781698263,1.1953298862793478,0.04864698209531149,0.039260449725521306
0.84,-0.0008,-0.28,0.01257029533341256,1.1821014452975727,0.0480832469950374,0.03806275458660659
0.8410000000000001,0.015899999999997513,-1.28,0.012544918646902258,1.1796774864112716,0.0479523673360768,0.03784329079801263
0.842,0.0047,-1.28,0.012892053187413167,1.1796774864112713,0.04974270549772246,0.03784329079801261
0.8430000000000001,-0.0089999999999996,-1.28,0.013087281809647655,1.2000788565288645,0.05074959248775658,0.039690418653117
0.844,-0.0072,-0.28,0.0130206676670925,1.271727109788751,0.050406031627041686,0.04617740867403644
0.8449999999999999,0.0041,-0.28,0.013133265029081787,1.2717271097887513,0.05098674985166248,0.04617740867403646
0.846,0.0147,0.72,0.01310122302478736,1.2995151218164562,0.05082149397427414,0.048693318672163845
0.8469999999999999,0.0158,2.72,0.013949542335427851,1.3288770134653627,0.05519668070408007,0.05135172679037559
0.848,0.002,-0.28,0.014092829629452509,1.2995151218164562,0.05593568152547261,0.048693318672163845
0.8489999999999999,-0.0013,-0.28,0.014089374282083478,1.299515121816456,0.055917860653347896,0.048693318672163824
0.85,0.0005,-1.28,0.014032766454526847,1.2962211469836569,0.05562590712497434,0.048395084159844025
0.8509999999999999,-0.0041,1.72,0.014044870652869548,1.2984275555134455,0.05568833424091956,0.04859485106920458
0.852,-0.0179,-1.28,0.013995562948224695,1.2984275555134455,0.0554340309233675,0.04859485106920458
0.8529999999999999,-0.0345,-0.28,0.01387629058380136,1.2984275555134455,0.05481888653196663,0.04859485106920458
0.854,-0.0323,-0.28,0.013911749245179605,1.2984275555134455,0.0550017637372511,0.04859485106920458
0.8549999999999999,-0.0021,-3.28,0.013855016580909457,1.2984275555134455,0.054709166366487635,0.04859485106920458
0.856,0.0109,1.72,0.013638533889419232,1.2984275555134455,0.05359266201823038,0.04859485106920458
0.8569999999999999,0.0229,-0.28,0.013678603699001467,1.2917970242378014,0.05379932111104024,0.04799452673104548
0.858,0.0193,-0.28,0.013621665705736863,1.2917970242378014,0.05350566476085649,0.04799452673104548
0.8589999999999999,0.0422,-1.28,0.013746614542929803,1.2884833184359148,0.054150085425969594,0.047694505788579096
0.86,0.0096,-0.28,0.013783651340095425,1.2862598519967234,0.05434110182915768,0.047493194466297926
0.8609999999999999,0.0052,1.72,0.01382914586224007,1.2739759404324105,0.05457573874838074,0.046381016456228163
0.862,-0.0068,-0.28,0.013833399439984167,1.2683609706347947,0.05459767647473771,0.045872640447216784
0.8629999999999999,0.0041,0.72,0.013946389848136622,1.2683609706347947,0.05518042182562538,0.045872640447216784
0.864,-0.0121,-2.28,0.014309357063622833,1.2706157589368368,0.057052416633041565,0.04607678763223716
0.8649999999999999,-0.0092,0.72,0.014451023616251411,1.280698739707206,0.057783058519113854,0.04698969468387534
0.866,-0.0066,1.72,0.01450191928406662,1.2806987397072123,0.05804555171906421,0.0469896946838759
0.8669999999999999,-0.0087,0.72,0.015945268661130562,1.2638685956121525,0.06548959190746446,0.045465903498077186
0.868,-0.0066,-1.28,0.015946254014368055,1.2661313841792365,0.06549467384342275,0.045670775022312135
0.8689999999999999,0.0032,-1.28,0.01595217954035592,1.2661313841792365,0.06552523460320275,0.045670775022312135
0.87,-0.0135,-1.28,0.01595298777503379,1.2661313841792372,0.0655294030543895,0.0456707750223122
0.8709999999999999,-0.007,-0.28,0.01595887179271731,1.2683901359726135,0.06555974973607409,0.04587528105946872
0.872,-0.0051,1.72,0.015971221835814,1.2627503284741712,0.06562344479050868,0.04536465625987176
0.8729999999999999,-0.0106,-0.28,0.01593989803682203,1.252522868866127,0.06546189303993812,0.044438668180635715
0.874,0.0108,0.72,0.01593989803682203,1.2399047652842747,0.06546189303993812,0.04329623262506816
0.8749999999999999,0.0256,-0.28,0.01598965980720095,1.2456480128614418,0.06571853819074712,0.043816222827559405
0.876,0.0122,0.72,0.016004909929949438,1.2433479468421806,0.06579719033722096,0.04360797622508771
0.8769999999999999,0.0053,-2.28,0.015857096488713085,1.2433479468421804,0.0650348460189053,0.04360797622508769
0.878,-0.0059,-1.28,0.015824979723763184,1.2456480128614424,0.06486920456520903,0.04381622282755947
0.8789999999999999,-0.0077,0.72,0.015977085032162233,1.2479438396717435,0.0656536840866502,0.04402408561458599
0.88,-0.0131,1.72,0.016048865055830332,1.2422112066809137,0.06602388785671494,0.04350505645039663
0.8809999999999999,-0.0084,-0.28,0.01604247250424192,1.2616017485504936,0.06599091842347393,0.045260664520169476
0.882,-0.0069,-0.28,0.01603940163451271,1.2638685956121614,0.0659750804856601,0.04546590349807799
0.8829999999999999,0.0055,-1.28,0.015997721847603962,1.2638685956121616,0.06576011797296354,0.04546590349807801
0.884,0.0069,-0.28,0.016055716257123574,1.2638685956121614,0.06605922276493338,0.04546590349807799
0.8849999999999999,0.0054,1.72,0.01599704885220309,1.2638685956121614,0.06575664701514118,0.04546590349807799
0.886,-0.0069,0.72,0.016001979312753253,1.2582085208754754,0.06578207574852062,0.04495344371484561
0.8869999999999999,-0.0022,0.72,0.015987010839773955,1.2166606951367476,0.06570487620405306,0.04119172840853649
0.888,-0.0188,-0.28,0.01600746501563951,1.2131417712487782,0.06581036813108289,0.04087312714322955
0.8889999999999999,0.0058,-0.28,0.01593944506350147,1.231843257958416,0.06545955684077796,0.04256634857071826
0.89,-0.0105,-0.28,0.015936136247737927,1.2213570146147312,0.06544249170193409,0.04161693036675068
0.8909999999999999,-0.0311,-0.28,0.01593822900028215,1.2213570146147308,0.06545328502355886,0.04161693036675064
0.892,-0.0232,-2.28,0.015883759678673778,1.228367828557708,0.06517236078890651,0.042251685270288226
0.8929999999999999,-0.0112,-4.28,0.015877357128952184,1.228367828557708,0.06513933979053069,0.042251685270288226
0.894,-0.0224,0.72,0.015909985200758398,1.2283678285577069,0.0653076182972146,0.04225168527028813
0.8949999999999999,0.0076,2.72,0.015909487263804867,1.2283678285577067,0.06530505019918353,0.04225168527028811
0.896,0.0558,2.72,0.01590474417702785,1.230695891463267,0.0652805878415962,0.04246246669410962
0.8969999999999999,0.0239,-0.28,0.015855450357935542,1.2341647650158283,0.06502635613845216,0.042776536431967334
0.898,0.0065,-1.28,0.015854564244175695,1.2024924540801043,0.06502178602774672,0.03990894433262822
0.8989999999999999,0.0015,0.72,0.015854454531407602,1.2024924540801045,0.06502122018674673,0.03990894433262823
0.9,0.0062,0.72,0.016005758732145454,1.2084135248707686,0.06580156801442064,0.040445034542571985
0.9009999999999999,0.0018,-0.28,0.016009304597871424,1.2024924540801032,0.06581985573282496,0.039908944332628114
0.902,-0.0102,-0.28,0.016016413791233735,1.1917479796880688,0.06585652122902229,0.038936146043905925
0.9029999999999999,-0.0138,0.72,0.015919632872400363,1.1857436915790813,0.06535737593494842,0.03839252138770606
0.904,-0.0041,-0.28,0.015541389872026816,1.1857436915790813,0.06340659662918575,0.03839252138770606
0.9049999999999999,0.0166,0.72,0.015221382329412931,1.1857436915790815,0.061756165315975414,0.03839252138770608
0.906,0.014,-1.28,0.015272036988935353,1.1477969385642963,0.06201741552137037,0.03495684505320675
0.9069999999999999,0.0072,-0.28,0.01537052062596787,1.1365355063299065,0.06252534254418253,0.03393724171045999
0.908,0.0185,0.72,0.015204071761687376,1.1390512772380221,0.061666886473388326,0.03416501810462649
0.9089999999999999,0.0167,-0.28,0.015082110783342964,1.1390512772380224,0.061037875619440254,0.034165018104626514
0.91,0.0113,-0.28,0.014479858824306677,1.13905127723802,0.05793177542093628,0.03416501810462629
0.9109999999999999,-0.0101,-0.28,0.014449042588622292,1.1415615039088165,0.05777284141608957,0.034392292526860116
0.912,-0.0188,-0.28,0.01443973426379601,1.1302379449379518,0.057724833951511255,0.03336706426653046
0.9129999999999999,-0.0322,0.72,0.01442481839459419,1.1327677022260825,0.05764790570977873,0.033596106979182874
0.914,-0.0202,1.72,0.01442632426253551,1.1440662228365774,0.05765567218797987,0.034619068281331856
0.9149999999999999,0.0135,1.72,0.014381595137481322,1.1226474211850939,0.05742498278610223,0.03267982278333984
0.916,0.0664,0.72,0.01436420371007461,1.1200948072661294,0.05733528691162687,0.03244871064499476
0.9169999999999999,0.0026,0.72,0.014350842735418808,1.1059668472456843,0.05726637800164674,0.03116957359002503
0.918,-0.0057,0.72,0.014336537613106581,1.1033756441835956,0.05719259967251563,0.03093496761372894
0.9189999999999999,0.0019,0.72,0.014321367074521533,1.0968877185959185,0.05711435797947766,0.030347554709312857
0.92,-0.005,0.72,0.01431935149260372,1.1046887490571908,0.057103962663528775,0.03105385534404856
0.9209999999999999,0.0139,-0.28,0.014289129129233573,1.1008119468608295,0.056948091541061216,0.030702851990628992
0.922,-0.0035,0.72,0.014273203924281084,1.107276879250414,0.05686595767412736,0.03128818310463443
0.9229999999999999,0.0015,-0.28,0.014267874517443609,1.0929832465616969,0.05683847138473067,0.02999404614531364
0.924,-0.0126,-1.28,0.014235189621829836,1.0994942120063902,0.05666989981060666,0.03058354506461142
0.9249999999999999,-0.0082,-0.28,0.014198025686956769,1.1033756441835953,0.05647822769770703,0.03093496761372892
0.926,-0.0042,-0.28,0.013992464337725405,1.1059668472456843,0.05541804991318975,0.03116957359002503
0.9269999999999999,-0.0006,0.72,0.013940968873487216,1.109825642679322,0.055152463277409865,0.03151894662191152
0.928,-0.0234,0.72,0.01402255372860277,1.109825642679322,0.05557323523317875,0.03151894662191152
0.9289999999999999,-0.0205,-0.28,0.014081946218201066,1.1059668472456843,0.05587955059000401,0.03116957359002503
0.93,-0.0016,-2.28,0.014064060643847034,1.1033756441835956,0.05578730616436476,0.03093496761372894
0.9309999999999999,0.0006,0.72,0.014010113246491974,1.0916560617468172,0.055509073741673326,0.029873883625526704
0.932,0.0162,0.72,0.014073786274565396,1.1059668472456843,0.05583746587418657,0.03116957359002503
0.9329999999999999,0.0143,0.72,0.014099851162817393,1.1085519934741686,0.055971894917311756,0.031403631184227176
0.934,-0.0023,-1.28,0.01410858943108838,1.102094540983008,0.056016962328722955,0.03081897729575378
0.9349999999999999,-0.0044,-0.28,0.014093767474945732,1.104688749057191,0.0559405184413663,0.03105385534404858
0.936,-0.0062,-0.28,0.014382854784493079,1.104688749057191,0.05743147938569739,0.03105385534404858
0.9369999999999999,-0.0081,0.72,0.014592481024612471,1.102094540983008,0.05851262174858551,0.03081897729575378
0.9380000000000001,-0.006699999999997669,2.719999999999778,0.014676053926120512,1.0994942120063902,0.058943647006484315,0.03058354506461142
0.939,0.0038,0.719999999999889,0.014555412081765043,1.102094540983008,0.058321439554805725,0.03081897729575378
0.9400000000000001,-0.0027000000000013766,-0.279999999999778,0.014544759190518891,1.104688749057191,0.05826649752079846,0.03105385534404858
0.941,-0.0089,1.719999999999667,0.014782254656297225,1.107276879250414,0.05949137475420473,0.03128818310463443
0.9420000000000001,-0.0012999999999966914,-1.28,0.014487273586668086,1.107276879250414,0.057970016882000985,0.03128818310463443
0.943,0.0136,-1.279999999999889,0.014316879406036093,1.0851321566429244,0.057091212935672826,0.029283213157219955
0.9440000000000001,0.007099999999998712,-0.279999999999889,0.014274089540412874,1.0030633442238308,0.05687052521832789,0.021852751939131464
0.945,0.0013,0.7199999999997779,0.01409732560013957,1.0002055876151168,0.05595886938768546,0.021594012364061832
0.9460000000000001,-0.007700000000001777,-1.279999999999889,0.014090476934657556,0.9682519286737952,0.05592354755785329,0.018700947184477512
0.947,-0.0157,-0.28,0.013056484052722693,0.9306245684069037,0.05059075378667344,0.01529418847844884
0.9480000000000001,-0.001899999999994693,-0.28000000000011105,0.012980179987953243,0.9306245684069037,0.05019721738189976,0.01529418847844884
0.949,0.022,-1.279999999999889,0.01298986373301142,0.939806710132205,0.05024716106742233,0.016125534101441796
0.9500000000000001,-0.003399999999997846,-0.279999999999889,0.013041543559812284,0.9398067101322048,0.050513698548747724,0.016125534101441786
0.951,0.0063,0.719999999999889,0.01302713056309885,0.939806710132205,0.050439363859950244,0.016125534101441796
0.9520000000000001,0.0033999999999994226,-0.28,0.013056300627549535,0.9428475525971928,0.050589807775692136,0.016400850160495088
0.953,0.0008,-0.28,0.013068880902531664,0.9593806426525943,0.05065469024561677,0.017897746251113355
0.9540000000000001,0.007699999999995493,-0.28000000000011105,0.013144306186221559,0.9593806426525942,0.05104369435780977,0.017897746251113344
0.955,-0.0126,-1.279999999999778,0.01325400437708394,0.9623596378306287,0.0516094601760869,0.01816746269377639
0.9560000000000001,-0.020499999999996316,0.72,0.013238480899969528,0.9593806426525946,0.0515293982109524,0.017897746251113386
0.957,-0.0039,0.719999999999889,0.01318182665579278,0.9593806426525947,0.05123720528996119,0.017897746251113397
0.9580000000000001,-0.0016999999999996003,-0.28000000000011105,0.01323438028507039,0.9593806426525943,0.051508249386841336,0.017897746251113355
0.959,0.0001,-1.279999999999778,0.013201764710669198,0.9593806426525943,0.051340035335227505,0.017897746251113355
0.9600000000000001,-0.001699999999999689,0.72,0.013391656780245743,0.9623596378306252,0.05231939918146532,0.018167462693776067
0.961,-0.0003,0.72,0.013346662501696029,0.9697480175264592,0.052087342256721646,0.018836402174879547
0.9620000000000001,-0.0017999999999985788,0.72,0.013321845273154519,0.9697480175264597,0.05195934798896957,0.01883640217487959
0.963,0.0046,1.72,0.013354507251912274,0.9770805301854625,0.05212780136995207,0.01950028348786405
0.9640000000000001,-0.004199999999997757,-0.28,0.01296222008315971,0.9770805301854625,0.05010458959878125,0.01950028348786405
0.965,0.0059,-0.28,0.012803775127776232,0.9638264923929566,0.04928741349833968,0.01830027082900679
0.9660000000000001,0.0023000000000007992,-0.28,0.01275057963301944,0.9473709924736557,0.04901305899547016,0.016810399702929957
0.967,0.0059,-0.28,0.010908052373950504,0.9608520450150033,0.03951026834568802,0.018030966141444567
0.9680000000000001,0.0003999999999994449,-0.28,0.0110815754525818,0.9608520450149997,0.0404052095092571,0.018030966141444234
0.969,-0.0021,1.72,0.011332785787590989,0.9652911179284303,0.04170082085552301,0.018432877149478256
0.9700000000000001,0.009799999999998246,0.72,0.01162133059116829,0.9623211975855692,0.04318898383817717,0.018163982336967158
0.971,0.0019,-1.28,0.011731538639683839,0.9593420830410444,0.04375737923521108,0.01789425508693344
0.9720000000000001,0.003300000000000244,-0.28,0.011650848595684604,0.9623211975855692,0.043341222246557405,0.018163982336967158
0.973,0.0044,-1.28,0.011645644605023481,0.9623211975855691,0.043314382788116466,0.018163982336967147
0.9739999999999999,0.0033,-1.28,0.01184505200928832,1.001617018829787,0.044342821747387434,0.02172180250252577
0.975,0.0087,0.72,0.011797951157885891,0.9944654380311384,0.044099900223105636,0.021074302652022
0.9759999999999999,-0.0022,-1.28,0.011787347791618507,1.0016170188297868,0.044045213613002066,0.02172180250252575
0.977,-0.016,-2.28,0.011779909645660013,1.0044707598723142,0.04400685155158984,0.021980178510633226
0.9779999999999999,-0.0142,0.72,0.011887845844323609,1.008717897819046,0.044563529936881,0.022364711841515464
0.979,-0.003,-0.28,0.011699660283273912,1.0058762062756437,0.043592967367906736,0.02210742678785592
0.9799999999999999,-0.0045,0.72,0.011528127761619756,1.0058762062756437,0.04270829245474841,0.02210742678785592
0.981,0.0158,1.72,0.011543642729081425,0.9814462045417822,0.04278831053155066,0.019895549034412766
0.9819999999999999,-0.011,0.72,0.011544345083783795,0.9785253177003013,0.042791932909274334,0.019631093685805824
0.983,-0.0074,-0.28,0.011430231190013365,0.9828845747708563,0.042203393207951356,0.020025778215137475
0.9839999999999999,0.0024,0.72,0.011340707806986879,0.9828845747708563,0.041741678482715296,0.020025778215137475
0.985,0.0292,1.72,0.011341132005189518,0.9785253177003013,0.04174386627488708,0.019631093685805824
0.9859999999999999,0.0256,-0.28,0.01133257252587227,0.9944654380311385,0.041699720963265456,0.02107430265202201
0.987,0.0158,-0.28,0.011323757984661575,0.9973396424826692,0.04165426017597624,0.021334531404948218
0.9879999999999999,0.001,0.72,0.011295242427405755,1.001617018829787,0.04150719186557259,0.02172180250252577
0.989,-0.0016,0.72,0.011275390673816879,0.9697098701640121,0.041404806917150455,0.018832948335486963
0.9899999999999999,-0.0284,0.72,0.01126953532266918,0.9667535245679286,0.04137460808244466,0.018565282572434515
0.991,-0.0102,-0.28,0.01129540656516053,0.9667535245679292,0.041508038402150914,0.018565282572434564
0.9919999999999999,-0.0069,-0.28,0.011280129653916402,0.950348708215325,0.04142924809464598,0.017080000306189298
0.993,0.0018,0.72,0.011279729050676472,0.9428083168043923,0.0414271819929349,0.016397297775268938
0.9939999999999999,-0.0007,-0.28,0.011206973394437651,0.9608135444541462,0.04105194642102027,0.018027480323679075
0.995,0.0062,-1.28,0.011189086863600536,0.9682137223658556,0.0409596970623422,0.018697488008195276
0.9959999999999999,0.0175,0.72,0.011189637562334672,0.9726191968697517,0.04096253727800568,0.0190963570363142
0.997,0.0193,-0.28,0.011175675801858267,0.9726191968697532,0.04089052982940124,0.019096357036314328
0.9979999999999999,-0.0082,1.72,0.011069975936772305,0.9755577672022083,0.04034538528151017,0.0193624134376234
0.999,0.0117,0.72,0.011068353106314823,0.975557767202208,0.040337015571905256,0.01936241343762337
0.9999999999999999,0.0009,0.72,0.010858654931287893,0.9682137223658599,0.03925550220643719,0.018697488008195668
1.001,-0.0089,0.720000000000222,0.0108586549312879,0.971165622953443,0.039255502206437226,0.018964751322835587
1.0019999999999998,-0.0117,1.72,0.010862937509343409,0.9843208431378181,0.03927758950121268,0.020155817094522962
1.0030000000000001,-0.0197,0.72,0.010871079134191695,0.9872245829924108,0.03931957973831854,0.02041871996518701
1.004,-0.0175,0.72,0.010873650627943253,0.9872245829924108,0.039332842156368536,0.02041871996518701
1.005,-0.0153,-0.28000000000022207,0.010848065015073096,0.9944282388566531,0.03920088496466091,0.02107093466100068
1.0059999999999998,0.0068,-1.28,0.010869130514192025,0.9872245829924133,0.03930952977687471,0.02041871996518724
1.0070000000000001,-0.0138,-0.279999999999778,0.010717085479267889,0.9843208431378206,0.03852536111445124,0.020155817094523194
1.008,0.016,0.72,0.010710340931716128,1.00583942910813,0.038490576270375575,0.022104097005093554
1.009,0.028,0.7199999999995559,0.010841597859418121,1.012910707870923,0.03916753076271558,0.02274432635727315
1.0099999999999998,0.0027,-1.28,0.011008647388789528,1.0296908502509796,0.040029084749473566,0.024263590417685044
1.0110000000000001,0.006,-0.28000000000022207,0.011301221085111368,1.0296908502509796,0.04153802665092706,0.024263590417685044
1.012,0.021,-1.28,0.011362673090704292,1.0338343856888284,0.041854963912660643,0.024638743639343548
1.013,0.0022,0.72,0.011622516546600117,1.0379613802905234,0.04319510037519617,0.025012399263584326
1.0139999999999998,0.0001,0.72,0.011617854066373312,1.022699426477115,0.04317105374398027,0.02363059108846803
1.0150000000000001,0.0068,-0.27999999999955594,0.011741306996078987,1.0379613802905232,0.043807759301697835,0.02501239926358431
1.016,-0.007,1.72,0.013082223217072237,1.0530021543342618,0.05072350291649508,0.026374181954569493
1.017,-0.0197,0.7199999999995559,0.013695660945292797,1.0678310948322236,0.053887293454336904,0.027716785362947947
1.0179999999999998,-0.0244,-1.28,0.01375537143466154,1.0705083381831173,0.054195248887438034,0.027959181375560072
1.0190000000000001,-0.0258,-0.28,0.01378668133735252,1.0705083381831175,0.05435672896816573,0.027959181375560093
1.02,-0.0168,-0.28,0.013790325081773504,1.0584248896783301,0.05437552149361874,0.02686515317106882
1.021,0.0021,0.72,0.013779885290757634,1.0784658928327788,0.054321678518996254,0.028679653616746948
1.0219999999999998,-0.0004,0.72,0.013785911572420128,1.0784658928327788,0.05435275892377911,0.028679653616746948
1.0230000000000001,0.0217,2.719999999999334,0.013792182078875856,1.0784658928327788,0.05438509891214215,0.028679653616746948
1.024,0.0069,-0.28,0.013808987516357512,1.0744944820991829,0.054471772557473666,0.028320084462920374
1.025,-0.0065,-1.28,0.013846419652268441,1.0705083381831175,0.054664827910866645,0.027959181375560093
1.0259999999999998,0.0004,0.72,0.01381962033389226,1.0744944820991829,0.05452661106179034,0.028320084462920374
1.0270000000000001,0.016,-1.28,0.013822056133116144,1.0744944820991829,0.054539173638531356,0.028320084462920374
1.028,0.0102,-0.28,0.013759901943468333,1.0516596893099877,0.054218614879184446,0.026252635973758046
1.029,0.0047,-0.28,0.013706340472946464,1.0850980656961693,0.05394237286498434,0.029280126583279317
1.0299999999999998,0.0062,-0.28,0.013703337113438954,1.0877328105773783,0.05392688310953816,0.029518674809850532
1.0310000000000001,-0.0014,-0.28,0.013698386087341924,1.0850980656961695,0.05390134830983839,0.029280126583279338
1.032,-0.0003,-1.28,0.013614118126110549,1.0850980656961693,0.05346673829789732,0.029280126583279317
1.033,0.0007,0.72,0.013587121462629019,1.0890308086181857,0.053327503646119497,0.029636194776559963
1.0339999999999998,-0.0025,0.72,0.013644249202022953,1.0890308086181857,0.05362213860746612,0.029636194776559963
1.0350000000000001,0.0,1.72,0.013643930261752434,1.089030808618186,0.05362049368058343,0.029636194776559984
1.036,-0.0043,0.72,0.013330259412740594,1.0811168008280128,0.052002743714373884,0.028919665242000146
1.037,0.0011,-1.28,0.013100394467615087,1.0837612246531019,0.05081722071030438,0.02915908979436448
1.0379999999999998,0.0004,-1.28,0.013017734633612856,1.0863992116577523,0.05039090457641669,0.02939793156085404
1.0390000000000001,0.0011,-0.28,0.01324951908195091,1.0981748959612854,0.051586327372790834,0.030464094978536183
1.04,-0.0081,-0.28,0.013295757736188088,1.1098256426793238,0.051824802135636734,0.03151894662191168
1.041,0.0067,-0.28,0.01298897543217346,1.1136710677262769,0.050242579676913396,0.031867109106980165
1.0419999999999998,0.0009,-0.28,0.012952080702931646,1.1200617804664128,0.05005229598567372,0.03244572041829087
1.0430000000000001,-0.0046,-2.28,0.012962923624567958,1.1340141542853772,0.05010821809691235,0.03370896000353883
1.044,-0.0032,-1.28,0.01336548926726917,1.1340141542853774,0.05218444085375651,0.03370896000353885
1.045,-0.0017,-1.28,0.013401223300764997,1.1340141542853774,0.052368738284207954,0.03370896000353885
1.0459999999999998,-0.0053,-1.28,0.013730070967202135,1.127702512699415,0.054064762326425174,0.033137507747260576
1.0470000000000002,0.0034,0.72,0.014308426840097838,1.1314871837942246,0.057047619027268286,0.03348016960581894
1.048,0.0002,-0.28,0.01419603606878153,1.1340141542853774,0.056467966289144834,0.03370896000353885
1.049,0.0049,-0.28,0.014197142234429942,1.1340141542853774,0.0564736713122478,0.03370896000353885
1.0499999999999998,-0.0034,0.72,0.014209359466734229,1.1340141542853774,0.05653668139816971,0.03370896000353885
1.0510000000000002,0.007,1.72,0.014628893874348917,1.1314871837942246,0.05870042015770227,0.03348016960581894
1.052,-0.0054,0.72,0.014780159074709092,1.131487183794223,0.05948056684185307,0.0334801696058188
1.053,0.0025,-0.28,0.014859534142871764,1.1175032604125117,0.05988994187380957,0.032214073542019134
1.0539999999999998,-0.0019,-1.28,0.014758868587183963,1.1149388691778575,0.05937076165726908,0.031981895092551636
1.0550000000000002,-0.0143,-0.28,0.014654901090384967,1.112368566157191,0.05883455175774119,0.031749181393512474
1.056,-0.0096,-0.28,0.014592067726886794,1.1339815328816496,0.058510490175365186,0.033706006481145454
1.057,0.0009,-2.28,0.014576254539314321,1.1302052145405295,0.058428934035412675,0.033364100875913114
1.0579999999999998,-0.0169,-1.28,0.014512101513429854,1.136502957297345,0.05809806632557037,0.033934294740508734
1.0590000000000002,-0.0191,-2.28,0.014471920817076534,1.13398153288165,0.05789083533686793,0.033706006481145495
1.06,-0.0256,0.72,0.01426361048393263,1.1377453172211411,0.056816479733003925,0.034046777265362795
1.061,-0.0118,-1.28,0.014272076942691581,1.131454489534435,0.056860145293301786,0.03347720948708126
1.0619999999999998,-0.0245,-1.28,0.014265390665523054,1.1339815328816525,0.056825660977345975,0.03370600648114571
1.0630000000000002,-0.003199999999995404,-0.28,0.014112086282272817,1.141529098185239,0.05603499725579152,0.034389358532018605
1.064,0.0175,1.72,0.01412353560984415,1.141529098185239,0.0560940468912613,0.034389358532018605
1.065,0.05799999999999614,1.72,0.014124334706030677,1.1415290981852393,0.056098168210895645,0.034389358532018625
1.0659999999999998,0.0406,1.72,0.014111828684206656,1.14152909818524,0.05603366869987331,0.03438935853201869
1.0670000000000002,0.014099999999998935,0.72,0.014097026087273132,1.127669708711562,0.05595732465717867,0.03313453769380963
1.068,0.0093,-0.28,0.013959221932427627,1.127669708711565,0.0552466029960898,0.03313453769380992
1.069,-0.0037999999999973355,0.72,0.013762063730942877,1.1276697087115648,0.05422976424682544,0.0331345376938099
1.0699999999999998,0.0082,-2.28,0.013521500566085429,1.1302052145405364,0.05298906542815802,0.03336410087591374
1.0710000000000002,0.0044999999999978234,-1.28,0.01343385385019156,1.1365029572973515,0.052537029569160065,0.03393429474050932
1.072,-0.0053,-0.28,0.013450476269329124,1.1339815328816565,0.052622759301721535,0.03370600648114608
1.073,-0.008099999999995826,0.72,0.01345125758611553,1.1339815328816567,0.05262678892452133,0.0337060064811461
1.0739999999999998,0.0107,0.72,0.013278999519862576,1.1020274074897958,0.051738372032298356,0.03081289906940878
1.0750000000000002,-0.0012000000000004884,-1.28,0.013262302927409424,1.1238392664436903,0.05165225975262049,0.03278773174060291
1.076,-0.0034,-1.28,0.013249500516675033,1.1238392664436903,0.051586231622820715,0.03278773174060291
1.077,-0.009199999999996314,-0.28,0.01325516450357961,1.1238392664436903,0.051615443500980115,0.03278773174060291
1.0779999999999998,0.0074,2.72,0.013258817957247756,1.1200287526928405,0.051634286101645145,0.032442730103414676
1.0790000000000002,0.0009000000000003775,0.72,0.013439149598310716,1.122581516811889,0.05256434226451511,0.03267385584078557
1.08,0.0026,-0.28,0.013533076404970295,1.1564444763907449,0.05304876754272758,0.035739787958768164
1.081,0.004399999999997491,1.72,0.013523968573202413,1.1626000911515832,0.053001794116344,0.03629711363956796
1.0819999999999999,-0.0069,-1.28,0.013539360673852696,1.1687232850066245,0.05308117851047987,0.03685150395093716
1.0830000000000002,-0.01449999999999727,-0.28,0.013617875441780582,1.1626000911515837,0.05348611656437437,0.036297113639568
