time_sec,bts_raw,diy_raw,bts_rms,diy_rms,bts_norm_rms,diy_norm_rms
0.0,-0.0092,-0.025,0.0074919081116067154,0.7719528649297717,0.01475508121950453,0.0
0.0010000000000000009,0.0035,0.975,0.007694572019448292,0.7719795499828133,0.01565501956735298,1.2586143838043519e-06
0.0020000000000000018,-0.0044,0.975,0.00770699161451729,0.7958807316472434,0.015710169347036878,0.0011285702590666665
0.0030000000000000027,-0.0059,-0.025,0.007707617452678207,0.7959066144502984,0.01571294841000154,0.0011297910349132602
0.0040000000000000036,0.0064,1.975,0.007688403217923784,0.8483261808349847,0.015627626722167588,0.0036021871040425946
0.0050000000000000044,0.0079,0.975,0.0077023451445675855,0.9351810177730601,0.015689536484805023,0.007698740590477012
0.006000000000000005,-0.0026,-1.025,0.007974526636432663,0.9550064132867074,0.01689817084260819,0.008633815664871286
0.007000000000000006,-0.0015,-1.025,0.007974887336168716,0.9991132165991383,0.01689977254627605,0.010714135947020212
0.008000000000000007,-0.005,-0.025,0.007960318047509508,1.0176939289387363,0.016835076953928427,0.011590504893167495
0.009000000000000008,0.0051,-0.025000000000001736,0.007919285072213152,1.0177141705396198,0.016652868151242284,0.011591459598784283
0.010000000000000009,-0.001400000000001521,-1.025,0.007981183458128914,1.0220076269696725,0.016927730763676766,0.011793962700827141
0.01100000000000001,-0.0150999999999994,0.975,0.008043594959109753,1.0220277831363322,0.017204871887015527,0.011794913376894403
0.01200000000000001,-0.009699999999998746,1.975,0.008032335899736006,1.042664603755038,0.017154875519141983,0.012768259737728112
0.013000000000000012,0.0015999999999991564,0.9749999999999982,0.008029457305027932,1.042684360601057,0.017142092987741598,0.012769191579629992
0.014000000000000012,-0.005999999999999001,-0.025,0.008003080081570512,1.0481009584060923,0.01702496372110545,0.013024668227852254
0.015000000000000013,0.0030000000000004108,-0.025,0.007980052848289714,1.0919743809651412,0.016922710238998308,0.015093980985577234
0.016000000000000014,0.0066999999999988675,-1.025,0.007928925918240484,1.111313067998972,0.016695678768772072,0.016006100201781465
0.017000000000000015,-0.0034999999999992784,-2.025,0.007861287557504603,1.1113316044384198,0.016395327535737483,0.016006974482573683
0.018000000000000016,0.0030000000000004108,-0.024999999999993062,0.007875249028490268,1.128065445104741,0.016457324085918462,0.016796234767201587
0.019000000000000017,0.006700000000000356,1.975,0.007842938725542776,1.1280837062726072,0.01631384870856721,0.016797096064666717
0.020000000000000018,0.009899999999999723,1.975,0.00780359675186615,1.1281019671448707,0.0161391488758801,0.016797957348189584
0.02100000000000002,0.007400000000000089,-1.025,0.007805830708616397,1.1281202277215454,0.016149068862958183,0.01679881861777086
0.02200000000000002,0.008199999999999756,-1.025,0.007806998674556578,1.1446086499805055,0.016154255269110834,0.017576503615773946
0.02300000000000002,0.006000000000000078,-0.025,0.007635100470743617,1.1446266472210842,0.015390933436500756,0.017577352464971507
0.02400000000000002,0.0066999999999996,-1.025,0.007502963051973348,1.1484457402052632,0.014804171187595383,0.017757481968760803
0.025000000000000022,0.0030999999999991117,-1.025,0.007539534774325695,1.1533657535081183,0.014966569592630931,0.017989536951069786
0.026000000000000023,-0.0049000000000003555,-0.025,0.0074953865441549986,1.157156004189748,0.014770527358256829,0.01816830609268202
0.027000000000000024,-0.008100000000000078,-0.025,0.007495232749381142,1.1571738062844183,0.014769844425532567,0.018169145737721475
0.028000000000000025,-0.008799999999999523,-0.025,0.007386583831924462,1.1609516245812328,0.01428738394052149,0.018347328499447976
0.029000000000000026,-0.004499999999999556,0.975,0.007415696971820889,1.1609693684745468,0.014416662169181482,0.018348165399390232
0.029999999999999916,-0.0005,-0.025,0.007467157665502235,1.1609871120966728,0.014645175732074625,0.018349002286541773
0.030999999999999917,0.0002,-1.025,0.00746152303789113,1.1610048554476236,0.01462015491057224,0.018349839160903183
0.03199999999999992,-0.0107,0.975,0.0074651533585892,1.1770327046385085,0.014636275515597461,0.019105800990982694
0.03299999999999992,-0.0151,-0.025,0.007433361863683873,1.180746985791485,0.014495103929075517,0.019280986990326307
0.03399999999999992,0.0052,-1.025,0.007434075624723644,1.1807644322107869,0.014498273417603255,0.01928180985975231
0.03499999999999992,-0.0154,-1.025,0.007541335421674376,1.1855503310883921,0.014974565449501983,0.019507539265551033
0.03599999999999992,-0.0075,0.9749999999999931,0.0075452929592575045,1.1855677068232673,0.014992139076064503,0.019508358801109345
0.03699999999999992,0.0045,-0.025,0.007661414378307301,1.190334293646921,0.01550778154601619,0.019733177343855015
0.03799999999999992,0.0023,-2.025,0.007692882895296205,1.2059724060058745,0.015647518934334848,0.020470757033872723
0.038999999999999924,0.0042,-0.025,0.007735596159353262,1.2106586584241372,0.015837189136079753,0.020691786562671826
0.039999999999999925,-0.0085,1.975,0.007715769223560721,1.2106756738019133,0.01574914672127551,0.020692589101800433
0.040999999999999925,0.0027,-0.025,0.007780598794865839,1.214287051649136,0.016037025396434867,0.020862921613292222
0.041999999999999926,0.0107,-0.025,0.008026013407162155,1.2189413386100605,0.017126800201825772,0.021082443474696847
0.04299999999999993,0.0001,-0.02500000000000694,0.008468290692975585,1.2235779215653657,0.01909075270883541,0.021301130317483048
0.04399999999999993,0.0092,-1.025,0.00864051359672248,1.2613625013510805,0.019855516386346254,0.023083259643970497
0.04499999999999993,0.0153,-2.025,0.008704529804783518,1.2658437119109092,0.020139783284836184,0.023294618267041784
0.04599999999999993,-0.0014,-2.025,0.008527572880388827,1.2658599855050219,0.019353997972216097,0.02329538581955871
0.04699999999999993,-0.0036,-1.025,0.008350215570281705,1.2658762588899275,0.018566434728535742,0.02329615336220828
0.04799999999999993,0.0076,-1.025,0.008348672676725113,1.2693305950335372,0.018559583439162055,0.023459078920200056
0.04899999999999993,-0.0062,0.975,0.00838264342245568,1.2860049945117935,0.018710432088601125,0.02424553563032608
0.04999999999999993,0.0176,-0.025,0.008366653979365167,1.2860210129806056,0.018639430235576848,0.02424629114972572
0.050999999999999934,0.0078,1.9749999999999863,0.008346965905179237,1.2860210129806056,0.018552004442085025,0.02424629114972572
0.051999999999999935,0.0049,-0.024999999999979185,0.008341522234673403,1.2860210129806056,0.018527831574338485,0.02424629114972572
0.052999999999999936,-0.0031,2.975,0.008336015702878044,1.2860210129806053,0.018503379568162014,0.02424629114972571
0.05399999999999994,-0.0054,3.975,0.008348916396107416,1.2860210129806056,0.018560665686221157,0.02424629114972572
0.05499999999999994,-0.021,1.975,0.0083493222787054,1.271384101021545,0.018562468026453026,0.023555933596475426
0.05599999999999994,-0.0029,2.975,0.008312179278944601,1.2723934214043475,0.018397532837968463,0.023603538716453338
0.05699999999999994,0.0091,1.975,0.008324121233579361,1.2679516061670935,0.01845056163346809,0.023394038194228608
0.05799999999999994,-0.0022,-0.025,0.008322856199834552,1.2679516061670932,0.01844494419329139,0.023394038194228597
0.05899999999999994,-0.0121,0.9749999999999931,0.008313347485875042,1.2679516061670932,0.018402720314249377,0.023394038194228597
0.05999999999999994,-0.0103,-0.025,0.008333746093168424,1.2679516061670935,0.018493301262487907,0.023394038194228608
0.06099999999999994,0.0045,-2.025,0.008356507551991785,1.2634941758197233,0.018594374560966527,0.023183801177226588
0.061999999999999944,-0.0013,-0.025,0.008234435228082378,1.260040188081996,0.018052306825931393,0.023020892051979176
0.06299999999999994,0.0041,-1.025,0.008186696855820888,1.245097892570866,0.017840322401474516,0.022316130924915002
0.06399999999999995,-0.0039,-3.025,0.008201222653945298,1.2415927292537443,0.01790482487211413,0.02215080807689084
0.06499999999999995,0.0004,-2.025,0.008213607445010837,1.2758139658985208,0.01795982010302955,0.023764870473752014
0.06599999999999995,-0.0032,-0.025,0.00822040467492846,1.280228502585793,0.017990003513224093,0.023973084389001555
0.06699999999999995,0.0055,1.975,0.008215018178035677,1.2758139658985208,0.017966084527520087,0.023764870473752014
0.06799999999999995,0.0,-0.025,0.008240500723848874,1.2634941758197233,0.018079240937175563,0.023183801177226588
0.06899999999999995,0.0025,-0.025,0.008236740122926012,1.2802285025857925,0.018062541816856206,0.023973084389001535
0.06999999999999995,-0.0019,-0.025,0.008240941882186078,1.2655245968908546,0.018081199920940115,0.02327956704140987
0.07099999999999995,0.0021,1.9749999999999723,0.008223306530595253,1.2551508814042276,0.018002889335975082,0.022790285363587837
0.07199999999999995,-0.0016,-0.024999999999986124,0.008190504209042939,1.2655245968908546,0.017857229127515768,0.02327956704140987
0.07299999999999995,-0.0009,0.975,0.008276323203273105,1.2758139658985204,0.018238312294736072,0.023764870473751993
0.07399999999999995,-0.0074,-1.025,0.008256543033837823,1.279225364167847,0.01815047754807923,0.023925770844606297
0.07499999999999996,-0.0031,0.975,0.008328885159767119,1.2782214384947785,0.01847171606549471,0.023878420168914373
0.07599999999999996,-0.0024,-0.025,0.008339605674468594,1.2772167237101781,0.018519321001130667,0.023831032274367274
0.07699999999999996,0.0026,0.975,0.008326441168091246,1.2937735682211402,0.018460863408727327,0.024611944443416557
0.07799999999999996,0.0077,-0.025,0.00828928354478556,1.2981270311795419,0.018295863283723155,0.024817277784529367
0.07899999999999996,0.0116,-0.025,0.008248867162725817,1.3024659428677439,0.018116392491492658,0.025021924807426984
0.07999999999999996,0.0033,-0.025,0.008318751809247418,1.2991155743742397,0.01842671845925099,0.02486390293764108
0.08099999999999996,-0.0029,1.975,0.008372355506238695,1.3034511954166372,0.018664748126312417,0.02506839475552055
0.08199999999999996,-0.004,0.975,0.008382998657812763,1.2991155743742397,0.01871200952744436,0.02486390293764108
0.08299999999999996,-0.0015,-0.025,0.008314918250775924,1.2957565430408062,0.018409695367601564,0.024705472480511442
0.08399999999999996,-0.0135,-1.025,0.008183347141365978,1.300103365923037,0.017825447841300374,0.024910492638983574
0.08499999999999996,-0.015,-0.025,0.008167444353084863,1.300103365923037,0.01775483078291878,0.024910492638983574
0.08599999999999997,-0.0135,-1.0249999999999584,0.008025068391338035,1.2957565430408062,0.01712260381585598,0.024705472480511442
0.08699999999999997,-0.007,1.9749999999999586,0.007998853890244425,1.2967468933202655,0.017006197125315425,0.024752182865714314
0.08799999999999997,-0.0081,-1.025,0.008032222147803414,1.2967468933202655,0.017154370398484973,0.024752182865714314
0.08899999999999997,-0.0026,-0.025,0.008198275481222667,1.2967468933202655,0.017891737816904965,0.024752182865714314
0.08999999999999997,0.0104,0.975,0.008327058089800022,1.2967468933202655,0.018463602877778627,0.024752182865714314
0.09099999999999997,0.023,-1.025,0.008562143756621204,1.2866249395569052,0.019507511528584303,0.024274775660305767
0.09199999999999997,0.0277,-1.025,0.008562791589792854,1.2910025090375148,0.019510388261399655,0.024481245998056626
0.09299999999999997,0.0172,-3.025,0.008496686586758303,1.29437387762957,0.01921684597333752,0.024640258348395682
0.09399999999999997,0.0106,-1.025,0.00880579168597263,1.2977364878273472,0.02058944129759192,0.02479885760452054
0.09499999999999997,0.002,-0.025,0.008757939107501599,1.2967468933202653,0.020376949735240464,0.024752182865714303
0.09599999999999997,0.0096,-0.025,0.008664285944035075,1.294765435254726,0.019961078581375573,0.02465872636711543
0.09699999999999998,0.0005,0.975,0.008677681550896415,1.2826276891908308,0.02002056238604318,0.024086243271085255
0.09799999999999998,0.0092,-2.025,0.00867503812400252,1.2816264286352366,0.020008824128072696,0.024039018297042955
0.09899999999999998,-0.0053,-0.025,0.008642220851953332,1.277216723710178,0.01986309753124853,0.023831032274367264
0.09999999999999998,-0.0072,-0.025,0.00862376223438313,1.2782214384947783,0.019781131196065258,0.023878420168914363
0.10099999999999998,-0.0017,0.975,0.00844321134205667,1.2782214384947783,0.018979386704540642,0.023878420168914363
0.10199999999999998,-0.0032,0.9749999999999861,0.008410568688088595,1.263494175819723,0.01883443550728858,0.023183801177226567
0.10299999999999998,-0.0075,-0.025,0.00839684367923049,1.300103365923037,0.018773488977995245,0.024910492638983574
0.10399999999999998,-0.0064,-0.02500000000001388,0.008449531604374368,1.2832332127642112,0.019007452118302445,0.024114803104861908
0.10499999999999998,-0.0003,-1.025,0.0086375301217922,1.2260123142113657,0.019842268129524415,0.02141594971077063
0.10599999999999998,0.0052,-0.025,0.009012534961535503,1.2142445955610668,0.02150749426430107,0.02086091914985171
0.10699999999999998,0.0005,-1.025,0.009013206551040532,1.1940157792510986,0.02151047648820085,0.019906816524109354
0.10799999999999998,0.0031,-0.025,0.008968186847692195,1.1819295344274794,0.02131056443734076,0.01933676251082052
0.10899999999999999,-0.0077,-0.025,0.008969876979735005,1.1856111002772403,0.021318069545943723,0.019510405475899467
0.10999999999999999,-0.0063,-0.025,0.008887866029462569,1.1976601929801536,0.02095389617200804,0.02007870719012274
0.11099999999999999,-0.0051,-0.025,0.008837066133203812,1.2012935505520326,0.02072831691027923,0.020250076386741644
0.11199999999999999,-0.004,-0.025,0.008891891761732471,1.199154377714775,0.020971772620194798,0.020149181189036063
0.11299999999999999,-0.0051,-0.025,0.008895393939759924,1.2027832216742798,0.02098732420183291,0.020320337498783488
0.11399999999999999,-0.0075,2.975,0.008886282797986632,1.2017154371307959,0.020946865760259392,0.02026997488630759
0.11499999999999999,0.0045,-1.025,0.008897012584210587,1.162010654892807,0.020994511866514784,0.018397278214029932
0.11599999999999999,0.006,-0.025,0.008973190605367649,1.1435476708829024,0.02133278385205274,0.01752646198568697
0.11699999999999999,0.0074,-1.025,0.008971080123066084,1.1620106548928073,0.021323412158908844,0.018397278214029943
0.118,-0.0016,-2.0249999999999724,0.008970794282569089,1.1507041287135717,0.021322142871114315,0.01786400003549819
0.119,0.0072,-0.02500000000001388,0.008979382778742025,1.1507041287135715,0.021360280481005946,0.01786400003549818
0.12,0.0083,-1.025,0.008976003828054111,1.1690540955580968,0.021345276096002574,0.018729485750548117
0.121,-0.0007,1.975,0.009018223282883958,1.1738701894129988,0.02153275351529884,0.01895663931813078
0.122,-0.0144,1.975,0.009049745475512114,1.1626789975511556,0.021672729252747453,0.018428800942569993
0.123,-0.0017,0.975,0.009049044733454947,1.1626789975511556,0.021669617575607154,0.018428800942569993
0.124,-0.0128,0.975,0.00910227949756411,1.1626789975511551,0.021906008979339246,0.018428800942569972
0.125,-0.0052,0.975,0.009165649863632242,1.1626789975511547,0.02218740798693406,0.01842880094256995
0.126,-0.0015,-2.025,0.00916936884770011,1.1626789975511547,0.022203922305706246,0.01842880094256995
0.127,0.0021,-1.025,0.009166233822115271,1.1664213252916837,0.02219000108127447,0.018605309773779603
0.128,-0.0033,-1.025,0.009163805155349017,1.1664213252916837,0.022179216475468857,0.018605309773779603
0.129,0.0117,-0.025,0.009215071150182493,1.1664213252916837,0.022406865469227086,0.018605309773779603
0.13,0.0095,-1.025,0.009177684322980379,1.1664213252916837,0.02224084755384243,0.018605309773779603
0.131,-0.0042,-0.025,0.009173027996341336,1.1701516845451525,0.022220170922530955,0.018781254105082024
0.132,0.0012,-0.025,0.009182385674150946,1.1578163533545411,0.022261724118644504,0.01819945180394766
0.133,-0.0034,-1.025,0.009175466345295783,1.1589245853798718,0.02223099852253588,0.018251722142908555
0.134,0.0009,-1.025,0.009212330902765808,1.163782599049005,0.02239469727529886,0.01848085288029768
0.135,-0.0027000000000001224,-0.025,0.009112488109307898,1.163782599049005,0.021951340786489203,0.01848085288029768
0.136,-0.0037999999999986235,-1.025,0.00898850720296973,1.1675213893534917,0.02140079790392551,0.018657194866499468
0.137,0.008600000000000888,-0.025,0.008920546150402563,1.1664213252916842,0.021099013743061768,0.018605309773779624
0.138,0.016599999999999844,-2.025,0.008899226757578984,1.1664213252916849,0.021004344004581333,0.018605309773779655
0.139,0.015200000000000722,-0.025,0.008896073174530488,1.1664213252916849,0.020990340374883815,0.018605309773779655
0.14,0.021699999999997912,-1.025,0.008893040910445613,1.1712482449705357,0.02097687546759052,0.018832973946970533
0.14100000000000001,0.0028999999999998,-1.0249999999999444,0.008863893736262453,1.1723437797204623,0.020847446108124366,0.01888464541234352
0.14200000000000002,0.0010999999999973134,0.975,0.008565031652991304,1.1675213893534928,0.01952033536444015,0.01865719486649952
0.14300000000000002,-0.023099999999997466,0.975,0.008163167161743302,1.1675213893534928,0.0177358377192285,0.01865719486649952
0.14400000000000002,-0.00029999999999903406,0.9750000000000277,0.008056936640223838,1.1431043164738557,0.01726411623193715,0.017505550944757822
0.14500000000000002,0.008399999999998511,1.975,0.008045620210354975,1.1431043164738557,0.017213865107757267,0.017505550944757822
0.14600000000000002,-0.004999999999999767,-1.025,0.008088764424076439,1.1480292773237581,0.017405448961188466,0.017737839280692475
0.14700000000000002,-0.0028999999999997556,0.975,0.008089954076432974,1.164218078836526,0.017410731666864365,0.01850139251061341
0.14800000000000002,-0.000700000000000211,-0.025,0.008135119424850195,1.165320222768193,0.01761129046131121,0.018553375701475215
0.14900000000000002,-0.0025999999999998,-1.025,0.008095895387525791,1.1469105174728371,0.017437114330387773,0.017685072391370685
0.15000000000000002,-0.0008000000000001666,-0.025,0.008257903496418162,1.151819203842843,0.01815651874436277,0.01791659313300995
0.15100000000000002,-0.0022999999999998334,-0.025,0.008375199750215775,1.155596700882194,0.018677378121721426,0.018094760742461358
0.15200000000000002,-0.0008000000000010103,-3.025,0.008375635901520231,1.151819203842843,0.01867931487152816,0.01791659313300995
0.15300000000000002,-0.009900000000000977,-2.025,0.008377710994172885,1.152933200512441,0.018688529415318175,0.017969135364411203
0.15400000000000003,-0.01870000000000161,-1.025,0.008359567615375953,1.1578163533545422,0.018607962912319215,0.018199451803947712
0.15500000000000003,-0.033199999999996656,0.975,0.008335145625582418,1.1626789975511556,0.018499515950153922,0.018428800942569993
0.15600000000000003,-0.0030999999999995224,1.975,0.008480297981758292,1.1578163533545422,0.019144071623605846,0.018199451803947712
0.15699999999999992,0.0012,0.975,0.008484531707438337,1.1578163533545422,0.01916287167603907,0.018199451803947712
0.15799999999999992,-0.0028,0.975,0.008490712320591436,1.1567070595412263,0.019190316971301205,0.01814713138520512
0.15899999999999992,0.0008,1.975,0.008487215745105374,1.1567070595412263,0.01917479026800427,0.01814713138520512
0.15999999999999992,0.0041,0.975,0.008471350076331529,1.1615743475317712,0.019104338040491678,0.018376699550779634
0.16099999999999992,-0.0108,1.975,0.008474431185242048,1.1653202227681925,0.019118019845466256,0.018553375701475194
0.16199999999999992,-0.0028,0.975,0.008598426466664998,1.1653202227681925,0.019668626561251096,0.018553375701475194
0.16299999999999992,-0.0006,0.975,0.008589493365206789,1.1653202227681925,0.01962895871583608,0.018553375701475194
0.16399999999999992,0.0059,-0.025,0.008574734185787582,1.1653202227681927,0.01956341990488755,0.018553375701475205
0.16499999999999992,0.0117,-0.025,0.008542038325039076,1.13274277512501,0.019418232440494555,0.017016843466466074
0.16599999999999993,0.0026,-2.025,0.008614676743738319,1.13274277512501,0.019740786659500444,0.017016843466466074
0.16699999999999993,-0.0054,-1.025,0.008658169093507891,1.1377125901778793,0.019933916426968814,0.01725124737417568
0.16799999999999993,-0.0039,-0.025,0.008678063583120088,1.1377125901778793,0.020022258817597564,0.01725124737417568
0.16899999999999993,-0.0002,-2.025,0.008740160184468874,1.1227371500468,0.020298001614724098,0.016544922963900158
0.16999999999999993,-0.0089,-1.025,0.008712477220533857,1.1266121625669858,0.020175074147803333,0.016727689941643288
0.17099999999999993,-0.0078,-1.025,0.008897882736176433,1.1215931622440067,0.0209983758160994,0.016490966185127867
0.17199999999999993,0.0012,-0.024999999999972246,0.008932354870776042,1.1047799365010258,0.021151450905733175,0.01569796166213597
0.17299999999999993,0.0099,0.9749999999999445,0.00893150122361087,1.0928814838989906,0.021147660246470502,0.015136764966495478
0.17399999999999993,0.0131,-1.0249999999999444,0.008942053754318129,1.0940554941829777,0.02119451924150051,0.01519213777118344
0.17499999999999993,0.0041,0.975,0.008854248262146619,1.0900647538579116,0.020804614939356002,0.01500391243142764
0.17599999999999993,0.0004,0.975,0.00884913453925101,1.1054828797215084,0.020781907219056702,0.015731116344156575
0.17699999999999994,0.0015,0.975,0.00884781825381904,1.1054828797215084,0.020776062193420125,0.015731116344156575
0.17799999999999994,0.0124,-0.025,0.008846039641936644,1.1003675086560896,0.02076816418604449,0.015489847211530287
0.17899999999999994,0.0081,-0.025,0.009060426760565269,1.1144919907102784,0.021720159987336608,0.01615603574222111
0.17999999999999994,0.0015,0.975,0.009064340805339176,1.119542826607678,0.021737540482091446,0.016394261040135746
0.18099999999999994,0.0051,0.975,0.009072519234982649,1.1311608686896217,0.0217738571728122,0.016942232027983686
0.18199999999999994,0.0019,-1.025,0.009258190364883274,1.1976601929801542,0.022598338313364073,0.020078707190122773
0.18299999999999994,0.0084,-1.025,0.009273927778611142,1.2012935505520332,0.02266822101848163,0.020250076386741676
0.18399999999999994,0.0001,-1.025,0.009300584186863779,1.2002244407173228,0.022786590017964282,0.020199651266216874
0.18499999999999994,0.0012,0.975,0.009301119884399038,1.1991543777147757,0.022788968807359804,0.020149181189036094
0.18599999999999994,-0.0078,0.975,0.009324396006069689,1.2146619838826809,0.02289232748974038,0.020880605486783343
0.18699999999999994,0.0034,1.975,0.009332331330839596,1.2136046508592124,0.022927564662156175,0.02083073582567627
0.18799999999999994,0.0078,-1.025,0.009293149754723163,1.2289299256200124,0.022753577082167905,0.021553560367925783
0.18899999999999995,-0.0012,-1.025,0.0091699655646296,1.211487216433467,0.022206572054511434,0.020730865931438042
0.18999999999999995,0.0075,-1.025,0.009043597620338933,1.2161352798241893,0.021645429420792728,0.020950094254922294
0.19099999999999995,-0.0026,-0.025,0.00878043686475095,1.2114872164334667,0.020476852054824194,0.020730865931438032
0.19199999999999995,0.0097,-1.025,0.00880183540569141,1.2222315843683884,0.020571873254136005,0.021237629624457445
0.19299999999999995,0.0111,1.975,0.008821429135224471,1.2186606537830829,0.020658880105883657,0.021069204829077558
0.19399999999999995,0.0097,-1.025,0.0085212480656572,1.2150792288284582,0.019325912343252125,0.020900285061319187
0.19499999999999995,0.0086,-1.025,0.008532920193273867,1.215079228828458,0.019377742959542373,0.020900285061319177
0.19599999999999995,0.0097,1.975,0.008507480320629895,1.2042710500898082,0.019264776042045708,0.02039051169860606
0.19699999999999995,0.0086,-1.025,0.008494582216023411,1.1995770166325543,0.01920750141888484,0.020169115173062375
0.19800000000000006,-0.004500000000002798,-0.025,0.008489806879194425,1.1995770166325543,0.019186296317384194,0.020169115173062375
0.19899999999999995,-0.0171,-1.025,0.00849086829725311,1.2171904145760266,0.019191009592798066,0.020999860233406355
0.20000000000000007,-0.015699999999996935,0.975,0.008503173609770567,1.2125463958481795,0.019245651895587253,0.020780822678546945
0.20099999999999996,-0.0019,-0.025,0.008508518042193443,1.2161352798241896,0.019269384092089604,0.020950094254922304
0.20200000000000007,-0.003700000000000311,-1.025,0.008609105860044021,1.2207656458487064,0.01971604889577479,0.021168487872939522
0.20299999999999996,-0.0051,-1.025,0.00872875161917329,1.1817011180202717,0.020247341358969755,0.019325989132361786
0.20400000000000007,-0.0007000000000033084,-1.0249999999999722,0.008678125213359292,1.1795264131527368,0.020022532489492265,0.01922341804799699
0.20499999999999996,-0.0156,-0.025,0.008504827474564722,1.178437555758582,0.019252995957814555,0.019172061523576422
0.20600000000000007,-0.005799999999997979,-0.024999999999972246,0.007853230437503201,1.1795264131527368,0.016359549526028194,0.01922341804799699
0.20699999999999996,0.0033,0.9749999999999722,0.00785122348351835,1.1672901535506544,0.016350637555107614,0.018646288509781797
0.20800000000000007,0.0018999999999983125,-0.025000000000027757,0.007911607587795478,1.1672901535506544,0.016618775930698135,0.018646288509781797
0.20899999999999996,-0.0057,-1.025,0.007951333208351263,1.1672901535506544,0.016795179364891135,0.018646288509781797
0.21000000000000008,-0.006700000000001932,0.975,0.00796114573173455,1.1560352643108944,0.016838752323568528,0.0181154458143146
0.21099999999999997,-0.0154,-0.025,0.007956101295271667,1.1560352643108944,0.016816352272841277,0.0181154458143146
0.21200000000000008,-0.0008999999999995781,-0.025,0.007882382802075776,1.1435476708829018,0.016489001933655836,0.01752646198568694
0.21299999999999997,0.001,-0.025,0.00787742901285801,1.1435476708829018,0.016467004406164602,0.01752646198568694
0.21400000000000008,-0.000800000000002487,-1.025,0.007879908515874022,1.1446697174663132,0.016478014752661325,0.017579383895453382
0.21499999999999997,-0.012,-1.025,0.008016711500205814,1.1495879719863804,0.017085494658735812,0.01781135592385887
0.21600000000000008,-0.010499999999999756,-1.025,0.00822206594090076,1.1544852743050076,0.01799738044072131,0.01804233973080331
0.21699999999999997,-0.0094,-1.025,0.008313667866562178,1.1358999789085347,0.01840414297933728,0.01716575462239862
0.21800000000000008,-0.01049999999999727,0.975,0.00841446660582449,1.1358999789085347,0.01885174438919385,0.01716575462239862
0.21899999999999997,0.0018,0.975,0.008412474665886774,1.1522592050323182,0.018842899088835966,0.017937346017596733
0.22000000000000008,0.019899999999997336,-0.025,0.008458621853083216,1.1500288268457928,0.019047817783268143,0.017832149072231535
0.22099999999999997,0.0079,-0.025,0.008421504739758286,1.1613419276088592,0.01888299754468549,0.018365737344423747
0.22199999999999986,0.0144,-1.025,0.008427292553260031,1.1602360045781899,0.018908698595138378,0.018313575910395074
0.22299999999999998,0.0047,-1.025,0.008435838855427993,1.1602360045781899,0.018946648840621957,0.018313575910395074
0.22399999999999987,0.0029,-0.025,0.008387054561247645,1.1602360045781903,0.01873001995206853,0.018313575910395095
0.22499999999999998,0.0043,-2.025,0.008326272598654826,1.1553630784598468,0.01846011486843851,0.018083741819595177
0.22599999999999987,-0.0,-2.025,0.008401386034026116,1.1553630784598468,0.018793659512125634,0.018083741819595177
0.22699999999999998,0.0011,-0.025,0.008420796708551174,1.1515848150785783,0.018879853499741625,0.017905538065229282
0.22799999999999987,0.0199,-2.025,0.008466694983604792,1.1477941146263617,0.01908366688842421,0.017726747709953753
0.22899999999999998,0.012,-1.025,0.008375794692018369,1.1477941146263617,0.01868001998799448,0.017726747709953753
0.22999999999999987,-0.0102,1.975,0.008414017434751914,1.166189871364699,0.018849749824511562,0.018594393129123254
0.23099999999999998,-0.0189,3.975,0.008624031727999295,1.1672901535506555,0.019782327894788142,0.01864628850978185
0.23199999999999987,-0.0055,0.975,0.008665528355146779,1.168389399592025,0.019966595564715743,0.018698135020142944
0.23299999999999998,-0.0078,0.975,0.008811348526622704,1.1683893995920243,0.020614116702537696,0.018698135020142913
0.23399999999999987,-0.0013,0.975,0.008771694722488165,1.1635506202257215,0.020438032172446434,0.018469911478634835
0.235,-0.0071,1.9749999999999723,0.008776244289980775,1.1586916339459397,0.02045823473488752,0.0182407348675594
0.23599999999999988,-0.0054,0.9750000000000277,0.008775683274070587,1.1597990296077205,0.020455743518090666,0.018292965758999163
0.237,-0.0007,1.9749999999999446,0.00876430691127716,1.1560352643108947,0.02040522625901934,0.01811544581431461
0.23799999999999988,0.0069,-0.025000000000027757,0.008770023465639647,1.1397302395010231,0.02043061088000663,0.01734641085223298
0.239,0.0003,-1.0249999999999722,0.00875696131976592,1.1397302395010223,0.02037260782409918,0.01734641085223294
0.23999999999999988,-0.0008,-0.025,0.008757804308325635,1.1386033252763483,0.020376351153337056,0.017293259357638667
0.241,0.0068,1.975,0.008739457247883883,1.1743019283102014,0.020294880192682663,0.018977002507412057
0.24199999999999988,0.006,-0.025,0.008755909966321033,1.1743019283102014,0.020367939241062994,0.018977002507412057
0.243,0.0038,-0.025,0.008768167483458789,1.2089468579452767,0.02042236930628358,0.020611048604177288
0.24399999999999988,0.0045,0.975,0.008739653259847735,1.1933649868495626,0.020295750592769127,0.019876121562545406
0.245,0.0052,-1.025,0.008688088468353717,1.1922887675960707,0.02006677477877983,0.019825361122591978
0.24599999999999989,-0.0018,-0.025,0.00865370984095176,1.2232814607972926,0.019914114912132044,0.02128714759140981
0.247,0.0007,0.975,0.008616244590076377,1.2078845221431795,0.019747748752840986,0.020560942984418334
0.2479999999999999,-0.0015,-2.025,0.008573747945876398,1.2032045859211589,0.01955904046147453,0.02034021136229488
0.249,0.0053,-0.025,0.008564549388551718,1.2186606537830815,0.019518193847148743,0.021069204829077495
0.2499999999999999,-0.0031,0.975,0.008402709604909984,1.2140222591977703,0.018799536889144437,0.02085043253982131
0.251,-0.0133,-1.025,0.008272047806632002,1.2257921122997604,0.01821932720049522,0.02140556377326263
0.2519999999999999,-0.0144,-0.025,0.008272660031053522,1.2257921122997604,0.01822204581102772,0.02140556377326263
0.253,-0.0032,1.975,0.008293238111287666,1.2211808053375874,0.01831342371706457,0.02118806908581791
0.2539999999999999,0.0073,0.975,0.008344043242856583,1.216552019468797,0.01853902622642748,0.02096974999666608
0.255,0.0062,-1.025,0.008348857558114353,1.2154963305460487,0.018560404413423097,0.02091995788042322
0.2559999999999999,0.0026,0.975,0.008224516979998122,1.2154963305460487,0.018008264391885992,0.02091995788042322
0.257,-0.0098,0.975,0.008219526024569471,1.2328823204481478,0.017986101826136216,0.021739977122406683
0.2579999999999999,-0.0084,0.975,0.008214919495024073,1.2465352164410195,0.01796564632109562,0.022383923051628805
0.259,-0.004,-1.025,0.00824451458280276,1.2465352164410195,0.018097064661359744,0.022383923051628805
0.2599999999999999,-0.0029,0.975,0.008225922948126787,1.2420009269627417,0.018014507657637225,0.022170060933805875
0.261,0.0007,0.975,0.008221234131932863,1.2420009269627417,0.017993686754971993,0.022170060933805875
0.2619999999999999,-0.0004,0.975,0.008075290994463248,1.2465352164410195,0.01734561958103349,0.022383923051628805
0.263,0.0021,-1.025,0.008080232646295815,1.2465352164410195,0.017367563211910866,0.022383923051628805
0.2639999999999999,0.0159,-1.025,0.008082844256567927,1.2465352164410195,0.017379160186717774,0.022383923051628805
0.265,0.0217,-1.025,0.008087889662844605,1.2420009269627417,0.017401564543947513,0.022170060933805875
0.2659999999999999,0.0126,-0.025,0.008038620302447112,1.2374500229605072,0.017182781696681342,0.021955415183332893
0.267,0.0141,-1.025,0.008025510979675458,1.232882320448148,0.017124569149601886,0.021739977122406693
0.2679999999999999,0.0035,1.975,0.007970681702139971,1.2282976320185022,0.01688109723610468,0.021523737911871167
0.269,-0.0088,1.975,0.007937589764149829,1.2247443880555688,0.016734150972612948,0.02135614731521983
0.2699999999999999,-0.0041,1.975,0.008043439607906787,1.2364121775614554,0.017204182042896646,0.021906464666151024
0.271,-0.0084,0.975,0.0078221769552808,1.2409668875814575,0.01622165511856412,0.02212128992942842
0.2719999999999999,0.004,-0.025,0.007835780351659053,1.245504941509651,0.016282061622080974,0.02233532959948644
0.273,-0.0039,0.975,0.007702832685701617,1.2580009151730809,0.015691701433499346,0.02292470868627021
0.2739999999999999,-0.0083,-0.025,0.007696484052918875,1.27037397872739,0.015663510039390517,0.023508290653932156
0.275,-0.0119,0.975,0.007691166586513233,1.2748073537123203,0.015639897586720488,0.023717393087273157
0.2759999999999999,-0.0057,-0.025,0.007679901743644353,1.2624777407256174,0.015589875536972404,0.0231358604881955
0.277,-0.0089,-0.025,0.007820706763415576,1.2500265207491836,0.016215126664374607,0.022548592232298735
0.2779999999999999,0.0001,-0.025,0.007871287777481804,1.2649105960792681,0.016439733969720975,0.02325060737429114
0.279,0.0114,-2.025,0.007616282633802268,1.2628791878355627,0.015307371971277666,0.02315479494960078
0.2799999999999999,0.019,-1.025,0.007523124970936212,1.2628791878355625,0.014893701110481689,0.02315479494960077
0.281,0.0099,-1.025,0.007476819678425374,1.2628791878355627,0.014688080342172921,0.02315479494960078
0.2819999999999999,0.0161,-1.0249999999999444,0.007236731993945819,1.2036258026572295,0.013621960003280663,0.02036007826838239
0.28300000000000003,-0.0006,-0.025,0.007403491617646564,1.2036258026572295,0.014362463735984717,0.02036007826838239
0.2839999999999999,-0.0028,-0.025000000000055513,0.007495318019386948,1.2036258026572293,0.014770223070891588,0.02036007826838238
0.28500000000000003,-0.0006,-1.0249999999999444,0.007528399000576859,1.2036258026572293,0.014917120680210985,0.02036007826838238
0.2859999999999999,-0.0064,-0.025,0.0075110774615405485,1.20362580265723,0.014840203594240677,0.02036007826838241
0.28700000000000003,-0.0046,-0.025000000000055513,0.007522916446154237,1.2154963305460493,0.014892775146654314,0.02091995788042325
0.2879999999999999,-0.0061,-1.0249999999998889,0.007641445964665525,1.2036258026572306,0.015419110892354551,0.02036007826838244
0.28900000000000003,-0.0017,0.975,0.007777385283359701,1.2036258026572306,0.016022755651681465,0.02036007826838244
0.2899999999999999,0.0049,-3.025,0.007830702336979148,1.2036258026572308,0.016259512465745963,0.020360078268382452
0.29100000000000004,0.006,-0.025,0.007833011142432856,1.208304107447133,0.016269764821913585,0.02058073294316286
0.2919999999999999,-0.0107,-3.025,0.007891283748437184,1.2104271101883881,0.016528526992893495,0.02068086546989363
0.29300000000000004,-0.0085,-0.025,0.007893238817265268,1.2150792288284589,0.01653720856540344,0.020900285061319218
0.29399999999999993,-0.0019,0.975,0.008011538548880884,1.2150792288284589,0.0170625239318884,0.020900285061319218
0.29500000000000004,-0.0037,2.975,0.008119365283793194,1.215079228828458,0.017541333477723922,0.020900285061319177
0.29599999999999993,0.0054,-0.025,0.008110107660255574,1.2150792288284573,0.01750022457717928,0.020900285061319145
0.29700000000000004,0.0007,-0.025,0.008127184506616507,1.2150792288284573,0.017576055094138086,0.020900285061319145
0.29799999999999993,0.0022,1.975,0.00812707594387482,1.2161352798241885,0.01757557301632052,0.020950094254922252
0.29900000000000004,-0.0043,-0.025,0.008210494572555486,1.1985063755902001,0.017945997250582036,0.020118617832333926
0.29999999999999993,-0.0054,1.975,0.008426422515570102,1.1985063755902001,0.018904835153001197,0.020118617832333926
0.30100000000000005,0.0022,-0.025,0.00885128803001184,1.1948645427753337,0.020791469893230163,0.01994684889647847
0.30199999999999994,-0.0069,-0.025,0.008778134828081473,1.2057570426199689,0.020466629755752395,0.020460599307941914
0.30300000000000005,-0.0105,-0.025,0.008660304471292095,1.2057570426199689,0.0199433986696415,0.020460599307941914
0.30399999999999994,-0.0029,0.975,0.008654732960043715,1.2078845221431778,0.019918658119233257,0.02056094298441825
0.30500000000000005,0.0062,-0.025,0.00862513514438685,1.2089468579452747,0.019787227665701377,0.020611048604177194
0.30599999999999994,0.0051,-2.025,0.008767946599556502,1.208946857945275,0.020421388461217445,0.020611048604177205
0.30700000000000005,0.0018,-2.025,0.008893748344666904,1.208946857945275,0.020980016861591563,0.020611048604177205
0.30799999999999994,-0.0072,-0.025,0.008842626383711832,1.210008261062069,0.020753007456855106,0.020661110233349513
0.30900000000000005,0.0015,-0.025,0.008802872835396278,1.2110687339458284,0.020576480008168092,0.020711127987597684
0.30999999999999994,-0.0061,0.975,0.008793786865321585,1.2239163458310791,0.02053613334267296,0.021317092273713426
0.31100000000000005,0.0004,-1.025,0.008789139297807818,1.2203503451238302,0.020515495606657712,0.021148899998592086
0.31199999999999994,0.003,-0.025,0.008806535929363708,1.2167738935789185,0.020592746144394183,0.020980214804285434
0.31300000000000006,0.0023,-0.025,0.00885002845924481,1.2178284750316446,0.020785876711656038,0.021029954686129598
0.31399999999999995,0.003,-0.025,0.008978463922481812,1.2167738935789185,0.02135620025777561,0.020980214804285434
0.31500000000000006,0.0081,-0.025,0.00909418766247656,1.212128279038094,0.02187007681570287,0.020761101982078266
0.31599999999999995,0.0095,-0.025,0.008879660349169085,1.2121282790380938,0.02091745847353011,0.020761101982078256
0.31700000000000006,0.0011,-0.025,0.008822352903168143,1.2167738935789185,0.02066298213966894,0.020980214804285434
0.31799999999999995,-0.0076,-0.025,0.008709983129086255,1.2157183973241918,0.020163999020709207,0.02093043177532987
0.31900000000000006,-0.0131,1.975,0.008703397942357936,1.2049159519844324,0.020134757197990634,0.020420928831352672
0.31999999999999995,-0.0066,-1.025,0.008659258550156663,1.1940157792510953,0.019938754209023798,0.019906816524109198
0.32100000000000006,-0.0091,-1.025,0.008669022942548558,1.1830151777786495,0.019982113439833533,0.01938796744323472
0.32199999999999995,-0.0001,-2.025,0.00873181574753723,1.1840998257568278,0.020260947761050953,0.019439125428364876
0.32300000000000006,0.0034999999999992897,-2.025,0.008887391384712612,1.1888549703848235,0.020951788490296774,0.019663404294010596
0.32399999999999995,0.0003,-1.025,0.009115155960078447,1.1851834810948259,0.02196318749980054,0.019490236595105473
0.32500000000000007,0.0010000000000030642,-1.025,0.009242812698138722,1.1888549703848235,0.02253005308117229,0.019663404294010596
0.32599999999999996,0.0148,-1.025,0.009169024448016446,1.1888549703848235,0.0222023929831662,0.019663404294010596
0.32700000000000007,0.008999999999997978,1.975,0.00915122412628972,1.1888549703848235,0.02212334984077084,0.019663404294010596
0.32799999999999996,-0.0001,1.975,0.009110304901544687,1.1888549703848235,0.021941646152608123,0.019663404294010596
0.32900000000000007,-0.0015000000000009771,-1.025,0.009143007462159174,1.1888549703848235,0.022086863368062294,0.019663404294010596
0.32999999999999996,-0.0059,1.975,0.009072007263391689,1.1708153800262449,0.021771583739557007,0.0188125576470936
0.33100000000000007,-0.0021999999999958255,0.975,0.00890537175647175,1.1659866683863287,0.021031631153092305,0.018584808955128544
0.33199999999999996,0.0166,0.975,0.008851461825873621,1.1793255081214855,0.02079224164169973,0.019213942257871434
0.3330000000000001,0.014099999999998468,0.975,0.008707266130852685,1.1782364650626382,0.020151934065841478,0.01916257697647923
0.33399999999999996,0.0072,0.975,0.008764579893984957,1.194015779251096,0.020406438451213114,0.01990681652410923
0.3350000000000001,0.005000000000000422,1.975,0.008776199886813102,1.194015779251096,0.020458037560591516,0.01990681652410923
0.33599999999999997,0.0069,1.975,0.008778667431325497,1.1940157792510964,0.020468994804806222,0.01990681652410925
0.3370000000000001,-0.013400000000000578,0.975,0.008797971726988396,1.1976601929801511,0.020554716412221532,0.020078707190122624
0.33799999999999997,-0.016,-0.025,0.008789723972951871,1.2012935505520301,0.020518091883364162,0.020250076386741526
0.3390000000000001,-0.009099999999997513,-1.025,0.008880571588576998,1.201293550552031,0.020921504873779594,0.020250076386741568
0.33999999999999997,0.0021,-1.025,0.008957932273692683,1.2023617097615031,0.02126502853269303,0.020300456670533363
0.3410000000000001,-0.011699999999998779,-2.025,0.008946739695551278,1.1626789975511536,0.021215327377770987,0.0184288009425699
0.34199999999999997,-0.0062,-1.025,0.00895475676590055,1.1626789975511538,0.021250927545169065,0.01842880094256991
0.3430000000000001,-0.014199999999999935,-0.025,0.009239813845430508,1.1266121625669838,0.022516736538624516,0.016727689941643194
0.344,-0.0139,0.974999999999889,0.009295645051678963,1.1453481790907758,0.0227646575623763,0.017611383890284826
0.3450000000000001,-0.0033999999999980014,-1.0249999999999444,0.009296560047912565,1.160031758660342,0.022768720644982005,0.018303942545618318
0.346,0.0056,-0.025000000000055513,0.009289237554467015,1.122285574555182,0.022736204778078504,0.016523624171342472
0.3470000000000001,-0.0004999999999972689,-1.0249999999999444,0.009276600209554111,1.122285574555182,0.02268008807025799,0.016523624171342472
0.348,0.0118,-0.025,0.009284244404977429,1.122285574555182,0.022714032469500843,0.016523624171342472
0.3490000000000001,0.019700000000001685,-0.025,0.00928487101925601,1.1094181601659514,0.022716814978851474,0.01591672588984341
0.35,0.0273,-0.02499999999988898,0.009346135147843123,1.1133395308056995,0.022988861142622084,0.016101679372368678
0.35099999999999987,0.007,1.974999999999889,0.009452189074205511,1.1133395308056995,0.023459798451045132,0.016101679372368678
0.352,-0.0016,-0.025,0.009450838531072302,1.1172471381047726,0.023453801302520054,0.016285983699783946
0.35299999999999987,0.0009,-2.025,0.00943257845463945,1.121141125974761,0.023372716598333787,0.016469645659754093
0.354,-0.0013,-1.025,0.009374816391466778,1.1250216358366647,0.023116221516138062,0.01665267192247402
0.35499999999999987,-0.0169,-1.025,0.009380230469740914,1.1261621409030338,0.023140262978226897,0.01670646443617434
0.356,-0.0151,0.975,0.009379921984904798,1.126162140903034,0.023138893137209283,0.01670646443617435
0.3569999999999999,-0.0024,-1.025,0.009406265479144003,1.1238799733948042,0.023255872627709968,0.01659882482055764
0.358,-0.0009,-1.025,0.009408982294628087,1.1047799365010238,0.023267936771070252,0.015697961662135877
0.3589999999999999,0.0005,-2.025,0.009384591583992843,1.1047799365010238,0.023159628705437325,0.015697961662135877
0.36,-0.0006,-0.025,0.009386188555695457,1.1047799365010238,0.023166720131290685,0.015697961662135877
0.3609999999999999,0.0056,-0.025,0.009389212481778405,1.1059413160732832,0.023180148013305233,0.01575273873274629
0.362,0.0088,-1.025,0.009392273080115733,1.1059413160732827,0.023193738740141884,0.01575273873274627
0.3629999999999999,0.0153,0.975,0.009406888914958935,1.1059413160732827,0.02325864102294746,0.01575273873274627
0.364,0.0215,-0.025,0.009405457442583434,1.1110310247014945,0.023252284504422186,0.01599279748319562
0.3649999999999999,0.0092,-1.025,0.009436221507304816,1.1110310247014947,0.023388893740241844,0.01599279748319563
0.366,-0.0075,-1.025,0.009409189824823232,1.1149467227620804,0.023268858318389343,0.01617748341557903
0.3669999999999999,-0.001,0.975,0.009362789677445508,1.1188487169168817,0.02306281634270773,0.016361522996129904
0.368,0.0008,-1.025,0.009369990665159486,1.1188487169168817,0.023094792657855374,0.016361522996129904
0.3689999999999999,-0.0011,-1.025,0.00945274730032937,1.1238799733948026,0.023462277279668254,0.016598824820557568
0.37,-0.0058,-1.025,0.009417948234111339,1.1110310247014943,0.02330775043523671,0.015992797483195605
0.3709999999999999,-0.0134,-1.025,0.009439805380677293,1.111031024701494,0.023404808093794357,0.015992797483195594
0.372,-0.017,-1.025,0.009397871849048098,1.1059413160732816,0.023218600329541986,0.015752738732746217
0.3729999999999999,-0.0206,-0.025,0.009398104686363618,1.1059413160732816,0.023219634254286053,0.015752738732746217
0.374,-0.0174,0.975,0.009393357857327797,1.0865259813254364,0.023198555742944237,0.014837004387308632
0.3749999999999999,-0.0025,0.975,0.009615982690581754,1.0813209351732043,0.02418713149262935,0.014591505682646035
0.376,-0.0004,-0.025,0.009890792098539006,1.076090712529619,0.025407435231978862,0.014344819515695044
0.3769999999999999,-0.0022,-0.025,0.010004305699231915,1.076090712529619,0.025911497565296548,0.014344819515695044
0.378,-0.0077,-0.025,0.009970218212253397,1.05855500948,0.02576013052100895,0.013517738975365295
0.3789999999999999,0.0002,-0.025,0.009970235912422507,1.05855500948,0.02576020911941907,0.013517738975365295
0.38,0.0078,-0.025,0.010008065220425875,1.053211737896921,0.025928191891030357,0.013265720796478673
0.3809999999999999,-0.0013,-2.025,0.01000988652805457,1.0532117378969212,0.025936279490819322,0.013265720796478683
0.382,0.0023,0.975,0.010015507046271332,1.054429917702714,0.025961237658911094,0.013323176879599106
0.3829999999999999,-0.01,1.975,0.009904171125796023,1.05564669177204,0.025466845414155507,0.013380566660429086
0.384,-0.0053,-0.025,0.010027606854596157,1.0568620649602065,0.026014967410937975,0.013437890367971734
0.3849999999999999,0.0022,-1.025,0.010037744312743391,1.0580760420946367,0.02605998325728954,0.013495148229914957
0.386,0.0087,0.975,0.010029121995099638,1.044417854168532,0.026021695461610553,0.012850952703913891
0.3869999999999999,-0.0026,0.975,0.010258187367589664,1.044417854168532,0.027038870720212136,0.012850952703913891
0.388,0.0141,-1.025,0.010210809529314555,1.0580760420946367,0.02682848726340412,0.013495148229914957
0.3889999999999999,0.0119,-1.025,0.010108012309431572,1.0621869739378758,0.026372011508987984,0.013689042465038813
0.39,-0.0019,-0.025,0.010107114321022124,1.060977700567077,0.026368023950402972,0.013632006458549853
0.3909999999999999,0.0071,-0.025,0.010211731263557141,1.0609777005670769,0.026832580266446755,0.013632006458549843
0.392,0.0252,-1.025,0.010186050837486414,1.040723880093996,0.026718545160461328,0.01267672449847004
0.3929999999999999,0.0133,-2.025,0.010196319233184562,1.040723880093996,0.026764142440993736,0.01267672449847004
0.394,-0.0023,-2.025,0.010102061889500906,1.0461309372393361,0.02634558839725368,0.012931751156523475
0.3949999999999999,-0.0005,-0.025,0.01001096134848029,1.0860593496004964,0.025941052280056727,0.014814995459687863
0.396,-0.0023,-0.025,0.010230846283033343,1.1003675086560873,0.026917461384301993,0.015489847211530182
0.3969999999999999,-0.0038,-0.025,0.010804227998411653,1.1195428266076757,0.029463589104425855,0.01639426104013564
0.398,-0.0024,0.975,0.010831315746022393,1.1195428266076761,0.029583873486047473,0.016394261040135662
0.3989999999999999,-0.0115,0.975,0.010830233318790624,1.1195428266076761,0.029579066918440058,0.016394261040135662
0.4,-0.0151,1.975,0.010679852471847431,1.1383951981238347,0.02891129389270773,0.017283442932413448
0.4009999999999999,0.0015,0.975,0.010336762667184644,1.1433404437711259,0.027387787930248764,0.01751668801135049
0.402,0.0037,0.975,0.010314914583146978,1.1268517457347524,0.027290770514262288,0.016738990006162493
0.4029999999999999,0.0015,0.975,0.010451605815249941,1.1307126574042181,0.02789775417945575,0.016921091909959073
0.404,-0.0043,-1.025,0.010624813127739706,1.1156432601239785,0.028666889168992998,0.016210335961953044
0.4049999999999999,-0.0061,-0.025,0.010757979090301725,1.127301492106708,0.029258218713627025,0.01676020252734147
0.406,0.0087,1.975,0.010955003566843815,1.1222855745551843,0.030133114908975224,0.016523624171342576
0.4069999999999999,0.0029,-0.025,0.01089629766157499,1.118395571390557,0.029872428652802405,0.016340150152069972
0.40800000000000003,-0.0025,-0.025,0.010921673955845366,1.117247138104775,0.02998511324762454,0.01628598369978406
0.4089999999999999,0.0023,-0.025000000000055513,0.010923160918035683,1.1121858767094466,0.029991716171209302,0.016047266677845822
0.41000000000000003,0.0066,-1.025,0.01097605988741224,1.0980317304616525,0.03022661646307991,0.015379679020059489
0.4109999999999999,-0.0024,-1.0249999999999444,0.010979384790238291,1.0980317304616523,0.0302413808460818,0.015379679020059479
0.41200000000000003,-0.006,-0.025000000000055513,0.010966291523584182,1.1019936196953506,0.030183239596926332,0.015566543583109035
0.4129999999999999,0.0016,-1.0249999999999444,0.010933299796552828,1.1008280752899433,0.03003673832477839,0.015511570075980474
0.41400000000000003,0.0082,-0.02499999999994449,0.010831038656126949,1.1019936196953506,0.029582643055699187,0.015566543583109035
0.4149999999999999,0.0038,0.975,0.010635757649647427,1.1059413160732854,0.02871548881886911,0.015752738732746394
0.41600000000000004,-0.0016,0.9749999999999445,0.010596122504376996,1.1059413160732854,0.028539487144316936,0.015752738732746394
0.4169999999999999,-0.0038,-0.025,0.010587372575789442,1.104779936501026,0.028500632686408074,0.01569796166213598
0.41800000000000004,-0.0146,-1.025,0.01058890535545883,1.1059413160732856,0.028507439064603266,0.015752738732746404
0.41899999999999993,-0.0103,0.975,0.010589723058857458,1.1008280752899433,0.028511070113927384,0.015511570075980474
0.42000000000000004,-0.0092,-1.025,0.01059481943170491,1.099661295510513,0.028533700790544656,0.015456538301794605
0.42099999999999993,0.0021,-0.025,0.010588465915707541,1.0996612955105123,0.028505487712298036,0.015456538301794574
0.42200000000000004,0.0007,-2.025,0.010503832803766256,1.0945187168762847,0.028129670509595858,0.015213985910056986
0.42299999999999993,0.0018,-0.025,0.010394025789643133,1.0893518615861264,0.027642067443393356,0.014970288497235973
0.42400000000000004,0.0206,-0.025,0.010188523806063388,1.0945187168762829,0.02672952649048277,0.015213985910056902
0.42499999999999993,0.0232,-0.025,0.010074532487873556,1.1075592437161774,0.026223342830780445,0.015829049130185898
0.42600000000000005,0.0211,-1.025,0.010083405954094212,1.1036173347644105,0.026262745863196796,0.01564312694750906
0.42699999999999994,-0.0035,-0.025,0.010084061643521599,1.1227371500467944,0.026265657482074913,0.016544922963899898
0.42800000000000005,-0.0002,1.975,0.010081611344062567,1.1277510591201174,0.026254776815308047,0.016781406588981487
0.42899999999999994,-0.0088,-0.025,0.010094215251017922,1.1277510591201174,0.026310745040349397,0.016781406588981487
0.43000000000000005,-0.0062,1.975,0.010096329803205252,1.1442267978175666,0.026320134806007093,0.017558493360219557
0.43099999999999994,-0.004,-1.025,0.010072350883469344,1.1442267978175666,0.026213655316688293,0.017558493360219557
0.43200000000000005,0.0073,-1.025,0.010074043187368287,1.1254721135333132,0.026221170069517706,0.016673918936961907
0.43299999999999994,0.0211,-1.025,0.010077125765685875,1.126612162566978,0.026234858399461547,0.01672768994164292
0.43400000000000005,0.0085,-1.025,0.010115290951227453,1.113794733375586,0.026404332650636384,0.016123149237956384
0.43499999999999994,-0.0027,0.975,0.010102128144682154,1.1304738924860198,0.026345882606414964,0.01690983043860566
0.43600000000000005,-0.0226,1.975,0.010113031423330778,1.129337741815881,0.026394299113713566,0.016856243302264703
0.43699999999999994,-0.0091,1.975,0.01009918598990324,1.1254721135333132,0.026332817833614273,0.016673918936961907
0.43800000000000006,-0.0069,0.975,0.010098224886633166,1.1266121625669778,0.026328550010605266,0.01672768994164291
0.43899999999999995,-0.009,0.975,0.010000016766142194,1.1266121625669778,0.02589245236183677,0.01672768994164291
0.44000000000000006,-0.0147,-1.025,0.009932001517285512,1.1215931622439987,0.02559042753987177,0.01649096618512749
0.44099999999999995,-0.0092,-0.025,0.00994840314146831,1.1266121625669778,0.025663259701879805,0.01672768994164291
0.44200000000000006,-0.0077,-1.025,0.009948781024900152,1.1266121625669778,0.02566493771053439,0.01672768994164291
0.44299999999999995,-0.0033,-1.025,0.009629620898584716,1.1254721135333132,0.024247692578757196,0.016673918936961907
0.44400000000000006,0.0033,-3.025,0.009613814749795262,1.1114871727059172,0.024177504652456345,0.01601431194069417
0.44499999999999995,0.0214,-2.025,0.009616918213596505,1.0961535044580861,0.024191285725345166,0.015291091515270238
0.44600000000000006,0.0352,-2.025,0.009710700438670101,1.0961535044580861,0.0246077299831765,0.015291091515270238
0.44699999999999995,0.0077,-1.025,0.009858644829519658,1.1130970392706308,0.02526468381423887,0.016090242133195404
0.44800000000000006,0.011699999999999178,-0.025,0.009869310453746154,1.117005494875336,0.02531204500621129,0.016274586471386323
0.44899999999999995,0.008,-2.025,0.00989384150824297,1.1544852743050011,0.025420976275177556,0.01804233973080301
0.45000000000000007,0.004799999999999356,-1.025,0.009826857791958573,1.1555967008821864,0.02512353202075781,0.018094760742461
0.45099999999999996,0.0019,-0.025,0.009713566200758725,1.1392853995345034,0.024620455530743556,0.017325429744214194
0.45200000000000007,-0.016900000000000488,0.975,0.009724668017808026,1.1404116397578519,0.024669753656886832,0.017378549449185956
0.45299999999999996,-0.0191,0.975,0.0097177426023708,1.136583675470725,0.024639001033032303,0.01719800152578641
0.45400000000000007,-0.016900000000002174,1.975,0.009725813045823425,1.1327427751250025,0.024674838206135846,0.01701684346646572
0.45499999999999996,-0.0267,-0.025,0.009737415023501957,1.1277510591201156,0.0247263573184188,0.016781406588981404
0.45600000000000007,-0.009999999999999511,-0.025,0.009757224401672059,1.1277510591201156,0.024814321767797926,0.016781406588981404
0.45699999999999996,-0.0078,0.975,0.009764205644486193,1.1110310247014898,0.02484532229567185,0.015992797483195396
0.4580000000000001,-0.0019999999999971577,-0.025,0.009934256038656407,1.1149467227620755,0.025600438845087982,0.016177483415578797
0.45899999999999996,0.0108,-1.025,0.010082779006984576,1.1316089024460672,0.02625996187589465,0.016963363772762797
0.4600000000000001,0.002799999999999045,-0.025,0.01021157583793857,1.1480292773237506,0.02683189009188198,0.017737839280692117
0.46099999999999997,-0.0015,0.975,0.010227691936782163,1.143104316473848,0.02690345436556806,0.017505550944757458
0.4620000000000001,0.0022000000000002443,0.975,0.01024343344316,1.1431043164738486,0.026973355244284906,0.01750555094475749
0.46299999999999997,0.0033,-1.025,0.010454932269911456,1.148029277323751,0.02791252545345396,0.017737839280692138
0.4640000000000001,0.006499999999998556,0.975,0.010460200611404326,1.1480292773237515,0.02793591976470301,0.01773783928069216
0.46499999999999997,0.0,-1.025,0.010741995984668896,1.1529332005124342,0.029187245002373317,0.017969135364410877
0.4660000000000001,0.006199999999999089,0.975,0.011114280920604498,1.1540461218454592,0.030840393279947483,0.018021626877004256
0.46699999999999997,0.0021,-1.025,0.011156865653038474,1.1540461218454596,0.031029492731144085,0.018021626877004277
0.4680000000000001,-0.0014999999999988898,-0.025,0.01117057235475618,1.190785968002855,0.031090357966743535,0.019754480799399506
0.469,0.0035,0.974999999999889,0.011219305915480893,1.190785968002855,0.03130676157106786,0.019754480799399506
0.4700000000000001,-0.004499999999999289,-1.0249999999999444,0.011172934766476104,1.1918635442428784,0.031100848363986976,0.01980530524232736
0.471,-0.0013,-0.025,0.011135449489945206,1.190785968002855,0.030934393279857107,0.019754480799399506
0.4720000000000001,0.007799999999998623,-0.025000000000055513,0.01114009243042076,1.1955145188762224,0.03095501046929764,0.019977505356798497
0.473,0.0016,-1.0249999999998334,0.011327421799918238,1.1775769521951194,0.031786855098588196,0.01913147070960881
0.4740000000000001,-0.008499999999999201,1.974999999999889,0.011888240090934305,1.1933649868495584,0.03427719435847614,0.01987612156254521
0.475,-0.0049,-0.025000000000111024,0.01175171710769085,1.1933649868495584,0.03367095781003507,0.01987612156254521
0.4760000000000001,-0.0011999999999997557,-2.0249999999999444,0.01170947930819538,1.1933649868495584,0.03348339893041246,0.01987612156254521
0.477,-0.0001,-1.0249999999999444,0.011527576226920216,1.2064011501527163,0.032675649982043815,0.02049097897419811
0.47799999999999987,-0.0092,-0.02499999999988898,0.01152937940707509,1.221816781922354,0.03268365708595655,0.021218065251690326
0.479,0.0021,1.974999999999889,0.011592401681051369,1.2064011501527163,0.03296351037470395,0.02049097897419811
0.47999999999999987,0.0035,-0.025,0.011570773996065086,1.2064011501527163,0.03286747165078101,0.02049097897419811
0.481,0.0023,-0.025,0.011578154291545344,1.1955145188762226,0.03290024419026213,0.019977505356798507
0.4819999999999999,0.0034,-1.025,0.01158843279461302,1.2085274957961014,0.032945886353031,0.020591269170643755
0.483,-0.0133,0.975,0.011568909082481281,1.203850059120257,0.03285919041675486,0.020370655440913675
0.4839999999999999,-0.0013,1.975,0.011426259718208756,1.1991543777147697,0.03222574939327771,0.02014918118903581
0.485,0.0052,0.975,0.011432470754507928,1.1944402364041269,0.03225332978391082,0.019926836266145366
0.4859999999999999,0.0069,-0.025,0.011443292349766704,1.1944402364041269,0.03230138357238252,0.019926836266145366
0.487,-0.0022,-1.025,0.011309082567586351,1.1823583304533767,0.031705418899013536,0.019356986898048503
0.4879999999999999,-0.0008,-1.025,0.011350078759754008,1.1823583304533767,0.031887464364535094,0.019356986898048503
0.489,-0.0023,-0.025,0.011380035843837582,1.1786666046188998,0.03202049016594027,0.01918286473201452
0.4899999999999999,-0.006,-1.025,0.011344844016249803,1.1749632794667229,0.031864219246690695,0.01900819547813788
0.491,-0.0071,-0.025,0.011264458540247222,1.1749632794667226,0.03150726386556124,0.019008195478137868
0.4919999999999999,0.003,0.975,0.011250489774501214,1.1786666046188998,0.03144523492266347,0.01918286473201452
0.493,0.0121,-1.025,0.01127795936757578,1.1775769521951194,0.03156721490652384,0.01913147070960881
0.4939999999999999,0.0034,0.975,0.011283379889813247,1.1886278848264906,0.03159128498332644,0.01965269368573013
0.495,0.0135,-0.025,0.01137828860065931,1.1646533957922194,0.032012731452729364,0.018521924460881436
0.4959999999999999,0.0172,1.975,0.011191443457787555,1.1500288268457874,0.03118303705390746,0.017832149072231285
0.497,0.006,0.975,0.010629865716045588,1.1363461441501654,0.02868932541835175,0.017186798237706212
0.4979999999999999,0.0074,-3.025,0.010703920114099685,1.1352158705824407,0.029018167358416443,0.017133488297952495
0.499,0.0009,-1.025,0.010761590298140921,1.1538121854638859,0.02927425444712864,0.018010593146088136
0.4999999999999999,-0.0027,-0.025,0.010738830186544283,1.1401749059129476,0.02917318713107187,0.017367383774459157
0.501,0.0049,-1.025,0.010730959236385314,1.135215870582441,0.02913823581705893,0.017133488297952505
0.5019999999999999,0.0002,-0.025,0.01092104347084524,1.135215870582441,0.02998231355015793,0.017133488297952505
0.503,-0.0042,-0.025,0.010841742316385254,1.1313703266718633,0.029630173148409725,0.016952111222484103
0.5039999999999999,-0.0064,-0.025,0.01075767456273846,1.1313703266718633,0.02925686644506042,0.016952111222484103
0.505,-0.0087,-0.025,0.010744584156329664,1.1313703266718633,0.029198737896955023,0.016952111222484103
0.5059999999999999,-0.0094,-0.025,0.010407063413682539,1.1313703266718633,0.02769996160897445,0.016952111222484103
0.507,-0.0185,0.975,0.010383136971239297,1.1352158705824407,0.027593715147472806,0.017133488297952495
0.5079999999999999,-0.0174,1.975,0.010367808957425553,1.1477941146263553,0.027525650401390236,0.01772674770995345
0.509,-0.0163,1.975,0.010365830918940418,1.1639861868030048,0.027516866831068063,0.01849045520243477
0.5099999999999999,-0.0087,-0.025,0.010320521198012697,1.1639861868030048,0.02731566694388814,0.01849045520243477
0.511,0.0062,-1.025,0.010335565937361152,1.1639861868030048,0.027382473796757286,0.01849045520243477
0.5119999999999999,0.0218,-1.025,0.010359673805768058,1.1602360045781848,0.02748952588854473,0.01831357591039483
0.513,0.0037,-1.025,0.010375496911616168,1.156473661425499,0.027559789113439766,0.018136123041877138
0.5139999999999999,0.0258,-1.025,0.010371378368005805,1.1515848150785721,0.027541500532252686,0.017905538065228987
0.515,0.0288,-1.025,0.010381820409311035,1.1515848150785712,0.0275878688940418,0.017905538065228946
0.5159999999999999,0.0099,0.975,0.01039815685960613,1.1466751253376857,0.027660411648421965,0.017673969999081107
0.517,-0.0067,2.975,0.010563736414014908,1.1428681403904597,0.02839567522948644,0.0174944115771422
0.5179999999999999,0.018,-1.025,0.010614028389375045,1.1379208421802447,0.02861899904524458,0.017261069688008994
0.519,0.0017,-1.025,0.01070715581249619,1.1417443233127325,0.02903253562507082,0.017441406161091962
0.5199999999999999,-0.0012,0.975,0.010989053711302696,1.154251426928075,0.030284316132097203,0.018031310197837293
0.521,-0.0038,-1.025,0.011084077338060322,1.1531387037398393,0.030706272890858973,0.017978828030845793
0.5219999999999999,-0.0205,-0.025,0.011102172777529323,1.153138703739839,0.030786626517080636,0.017978828030845783
0.523,-0.0361,1.975,0.011111219779537797,1.1692567654540644,0.03082680014309624,0.018739044781434483
0.5239999999999999,-0.01,-0.025,0.011130130483030095,1.200844040895683,0.03091077398648435,0.020228875030377146
0.525,-0.0209,-0.025,0.01109742541853766,1.2029802091306667,0.03076554565244568,0.02032962851445624
0.5259999999999999,-0.0046,-2.025,0.011101264545775258,1.2065975469512247,0.030782593472455565,0.0205002421311853
0.527,0.0041,1.975,0.011126073446105063,1.1924874886365338,0.030892758528545346,0.0198347339036579
0.5279999999999999,0.0121,-0.025,0.011233880208426751,1.2034015044035051,0.03137147938517914,0.020349499124771183
0.529,0.0053,-0.025,0.011284695789359058,1.2034015044035051,0.031597128295417894,0.020349499124771183
0.5299999999999999,0.0075,-1.025,0.011330863944759132,1.1914104767257898,0.03180214010011689,0.019783936077613563
0.531,-0.0063,-2.025,0.0113337993536427,1.1914104767257898,0.0318151749174609,0.019783936077613563
0.5319999999999999,0.0028,-0.025,0.011336111326472937,1.195062835503064,0.03182544133850879,0.01995620147595193
0.533,0.0108,-0.025,0.011374026476781665,1.1903324903359034,0.03199380529680143,0.01973309228975444
0.5339999999999999,0.0093,-0.025,0.011398479493477873,1.1866655724342152,0.032102390035346484,0.019560140202752777
0.535,0.0057,0.975,0.01139776884408802,1.1888272178100663,0.03209923436424247,0.019662095329410732
0.5359999999999999,0.0144,0.975,0.011402745508392374,1.1899065678904048,0.03212133346960146,0.019713003436438167
0.537,0.0133,1.975,0.011409904587052915,1.1946385995605835,0.03215312368568138,0.01993619216742628
0.5379999999999999,0.0108,-0.025,0.011426655816010232,1.1899065678904048,0.03222750828367336,0.019713003436438167
0.539,-0.0012,-0.025,0.011433101266466336,1.1899065678904046,0.03225612960108691,0.019713003436438156
0.5399999999999999,-0.0059,-1.025,0.011455485932015282,1.1899065678904046,0.03235552973180484,0.019713003436438156
0.541,-0.0073,0.975,0.011440512325317193,1.1888272178100663,0.03228903874672157,0.019662095329410732
0.5419999999999999,-0.011,0.975,0.011434971796825254,1.1888272178100663,0.032264435776659724,0.019662095329410732
0.543,-0.0048,1.975,0.011463963619874772,1.1851556425454728,0.03239317529231484,0.019488923575469146
0.5439999999999999,-0.015,1.975,0.011455814483182471,1.1851556425454728,0.03235698867828294,0.019488923575469146
0.545,-0.0059,0.975,0.01151327632882244,1.1993519611904682,0.03261215063079981,0.02015850031626889
0.5459999999999999,-0.0034,-1.025,0.011436232557410081,1.2040468720372857,0.03227003424167417,0.020379938224346958
0.547,-0.0147,0.975,0.011327748051356225,1.1920623361695988,0.03178830383301364,0.019814681366780412
0.5479999999999999,-0.0161,-2.025,0.0113122887372491,1.1920623361695988,0.03171965604197573,0.019814681366780412
0.549,-0.0038,-1.025,0.011423482869861197,1.155801730535442,0.03221341867124268,0.01810443107252524
0.5499999999999999,-0.0024,-0.025,0.011681389347109866,1.1546905013058792,0.03335866417403844,0.01805201936887034
0.551,0.0204,-0.025,0.011887837575175093,1.159566253845537,0.03427540696884576,0.01828198676929925
0.5519999999999999,0.0107,-0.025,0.011885009367293546,1.1546905013058792,0.03426284818245208,0.01805201936887034
0.553,0.0136,0.975,0.01188823245802303,1.1595662538455371,0.03427716046418467,0.01828198676929926
0.5539999999999999,0.0161,1.975,0.01189112272370701,1.1755961936628891,0.034289994821087126,0.019038047204861717
0.555,-0.0006,-0.025,0.011883147709689098,1.18038559539077,0.03425458140675112,0.019263941824412656
0.5559999999999999,-0.0071,0.975,0.011858765368577537,1.18038559539077,0.03414631050637073,0.019263941824412656
0.557,-0.0054,1.975,0.011856011995021854,1.1840719617298068,0.03413408402522221,0.01943781120706111
0.5579999999999999,0.0001,1.975,0.011757111256476561,1.1851556425454728,0.03369491077431945,0.019488923575469146
0.559,-0.0047,-1.025,0.011628680277193514,1.187320036916236,0.0331246071394024,0.019591008359899638
0.5599999999999999,-0.0062,-0.025,0.011513545634754332,1.1894804929330163,0.0326133464961021,0.019692907389819405
0.561,-0.0072,-0.025,0.01148765230841687,1.1942142129113693,0.032498365996749184,0.019916175750739274
0.5619999999999999,-0.0061,-0.025,0.011482266239840755,1.1894804929330163,0.03247444891300492,0.019692907389819405
0.5630000000000001,0.0015,-0.02499999999988898,0.011357758315591866,1.2025587662644688,0.03192156578331527,0.02030975094282385
0.564,0.008,0.974999999999889,0.011357439275858196,1.2025587662644688,0.03192014907279254,0.02030975094282385
0.5650000000000001,-0.0058,-0.025,0.011150975460444858,1.2014907822438012,0.031003337061653334,0.020259378921903
0.566,-0.0196,-0.025,0.010976621635352207,1.2322520549024951,0.030229110930488464,0.021710250320659718
0.5670000000000001,-0.0105,-0.02499999999988898,0.011026902975556682,1.2322520549024951,0.030452387520351683,0.021710250320659718
0.568,0.0142,0.975000000000111,0.011068100403451311,1.2144397239337041,0.030635326582318653,0.02087012248087402
0.5690000000000001,0.025,1.974999999999889,0.011027473698674246,1.209785146138281,0.03045492184244667,0.020650586902109237
0.57,0.0152,0.974999999999889,0.011026681541108614,1.209785146138281,0.03045140423056184,0.020650586902109237
0.5710000000000001,0.0065,-0.024999999999777957,0.011053367828952172,1.2061773679970005,0.030569905911733964,0.02048042417261748
0.572,0.009,1.9750000000001111,0.011249717776912237,1.2014907822438012,0.03144180683207662,0.020259378921903
0.5730000000000001,0.006699999999998534,2.974999999999445,0.011099674370717372,1.2169686164047624,0.03077553222741384,0.020989399007482635
0.574,0.0001,-2.024999999999667,0.010498974893551474,1.2014907822438012,0.02810809873720062,0.020259378921903
0.5750000000000001,-0.0057000000000004,0.975,0.01047391676421531,1.2061773679970005,0.02799682696831424,0.02048042417261748
0.576,-0.0075,0.975000000000111,0.010336497411330414,1.210845814428708,0.027386610049501495,0.02070061387281436
0.5770000000000001,-0.01549999999999969,1.975,0.01033519810580378,1.1931387596657907,0.027380840423910816,0.019865451439946853
0.578,-0.0141,-0.025,0.010343590376547774,1.181043539869793,0.027418106685814493,0.01929497411742523
0.5790000000000001,-0.010399999999998645,0.975,0.01027317600166351,1.1967858440696362,0.02710542843504445,0.020037468069723563
0.58,-0.0043,-0.025,0.010290205755148467,1.2004218480659712,0.02718104983393457,0.020208962086326176
0.5810000000000001,-0.0031999999999970915,0.975,0.010263055665242672,1.2004218480659712,0.027060488618501688,0.020208962086326176
0.582,0.0099,-0.025,0.010262730628940566,1.186238333371533,0.027059045279942674,0.019539989250503337
0.5830000000000001,0.015299999999996691,-0.025,0.01025899686357579,1.1909849397920287,0.027042465324145826,0.019763865407158576
0.584,0.0004,-2.025,0.01020907411626172,1.1909849397920287,0.026820781082406046,0.019763865407158576
0.5850000000000001,0.0062000000000004,-1.025,0.010194299750385365,1.1957127038142448,0.02675517483530028,0.019986852852314416
0.586,0.008,-1.025,0.010233820310839758,1.2097851461382807,0.026930667690738423,0.020650586902109226
0.5870000000000001,0.0065999999999976685,-0.025,0.01013922886603255,1.221595823734459,0.026510630055685314,0.021207643644018406
0.588,-0.0039,-1.025,0.010053128792096775,1.210845814428708,0.026128298741182287,0.02070061387281436
0.5890000000000001,-0.007499999999998645,-0.025,0.010000768189359846,1.215496330546033,0.025895789090987168,0.020919957880422474
0.59,-0.0014,0.975,0.010001181091528248,1.219076530132346,0.025897622601942387,0.02108881985304812
0.5910000000000001,0.006200000000000555,-0.025,0.009987894409896343,1.219076530132346,0.025838622484735767,0.02108881985304812
0.592,0.0087,-0.025,0.00997194468566811,1.2307980512936194,0.025767797005135252,0.021641671485407573
0.5930000000000001,0.011300000000000155,-1.025,0.009917600377648673,1.231840626692784,0.025526478620945155,0.02169084509550097
0.594,0.012,-2.025,0.009908820639455248,1.2339231347925486,0.025487491792118636,0.021789067671437654
0.5950000000000001,0.0021999999999979796,-1.025,0.009868357369631094,1.2232814607972768,0.025307812792626727,0.021287147591409067
0.596,-0.0069,0.975,0.009903973918095364,1.2197136039176038,0.02546596970434509,0.021118867768951458
0.5970000000000001,-0.0008000000000037082,0.975,0.009971408737572887,1.219713603917604,0.02576541710311676,0.021118867768951468
0.598,-0.0175,0.975,0.009870890779115765,1.2314290610223229,0.02531906251326194,0.021671433386934568
0.5990000000000001,-0.024399999999999512,0.975,0.0097542039527189,1.2489991257297062,0.02480090932613717,0.022500134612696197
0.6,-0.0222,-1.025,0.009755627032560622,1.2444738136345903,0.02480722857723252,0.022286695917811905
0.6010000000000001,-0.004099999999998469,-0.025,0.009766856285102616,1.2444738136345903,0.024857092586507003,0.022286695917811905
0.602,0.0028,-1.025,0.009648703772698622,1.2444738136345903,0.02433243095366159,0.022286695917811905
0.6030000000000001,0.0049999999999978464,1.975,0.009605978099451292,1.2444738136345903,0.024142705648339976,0.022286695917811905
0.604,-0.0047,-1.025,0.009540932526304386,1.2455049415096355,0.023853867807127314,0.022335329599485705
0.6049999999999999,0.0043,-0.025,0.009513058924035362,1.2339231347925488,0.023730093801969086,0.021789067671437665
0.606,0.0091,0.975,0.009550988069072652,1.2339231347925486,0.023898519904493695,0.021789067671437654
0.6069999999999999,0.0105,-1.025,0.009580180973065797,1.2303861368804592,0.024028152329271697,0.021622243328210673
0.608,-0.0018,-2.025,0.009565295537224367,1.23247110263609,0.023962052870908288,0.021720581820762506
0.6089999999999999,-0.0003,-2.025,0.009565387784167195,1.2218167819223424,0.023962462497675117,0.02121806525168978
0.61,0.0041,-1.025,0.009661223013892311,1.2551508814042114,0.024388023216517646,0.02279028536358707
0.6109999999999999,0.0051,-0.025,0.009939574110769867,1.2919965034177987,0.02562405398743127,0.02452812825916721
0.612,0.0138,-2.025,0.009941400803719727,1.2919965034177987,0.025632165500985075,0.02452812825916721
0.6129999999999999,0.0036,-1.025,0.009954916171369375,1.3064024947699382,0.025692181108908196,0.025207594322078905
0.614,-0.0141,0.975,0.00997328095882045,1.320651351355996,0.0257737307871579,0.025879649042150926
0.6149999999999999,-0.021,2.975,0.009945224303800125,1.3314789703885943,0.025649143927888994,0.02639033931642314
0.616,-0.0144,0.975,0.009936910561733204,1.3314789703885943,0.025612226376165913,0.02639033931642314
0.6169999999999999,0.0117,-2.025,0.009757668538699448,1.3314789703885943,0.024816293978572428,0.02639033931642314
0.618,0.0153,-0.025,0.009811866243806526,1.3454622856417684,0.025056961365828023,0.027049869641638566
0.6189999999999999,-0.001,-1.025,0.009987583700002437,1.3422192463736018,0.02583724276324732,0.02689691001049996
0.62,0.0078,-0.025,0.009722158220173938,1.3282017888251858,0.024658608785753582,0.026235769346199932
0.6209999999999999,0.0213,-0.025,0.009634860602127194,1.3282017888251865,0.02427095972187831,0.026235769346199964
0.622,0.0093,1.975,0.009665235407122387,1.3282017888251867,0.024405840432088245,0.026235769346199974
0.6229999999999999,0.0028,-0.025,0.009632765168799032,1.3183213650671337,0.024261654854388793,0.0257697540289142
0.624,-0.0069,-1.025,0.009610336987576686,1.2852324503164994,0.02416206149033375,0.02420909818218588
0.6249999999999999,-0.0123,-1.025,0.009610389628543943,1.2685641350928487,0.024162295244955417,0.02342292843908778
0.626,-0.0043,-0.025,0.009601958121666298,1.2651239892181385,0.024124854753206523,0.023260672172497415
0.6269999999999999,-0.0058,0.975,0.009575748132638383,1.2616744633012766,0.024008468098699963,0.02309797349134807
0.628,0.0008,1.975,0.009455990234762488,1.246751754700696,0.023476677678274018,0.022394136191091114
0.6289999999999999,-0.0079,0.975,0.009375496731501485,1.250242454325526,0.02311924259716492,0.02255877685155758
0.63,-0.0002,-1.025,0.009319999844998155,1.2502424543255257,0.022872806135525284,0.02255877685155757
0.6309999999999999,0.0063,0.975,0.009310027308686592,1.2502424543255257,0.02282852263212466,0.02255877685155757
0.632,0.0002,-1.025,0.009390350873757674,1.2467517547006959,0.02318520309493244,0.022394136191091103
0.6329999999999999,-0.0037,-0.025,0.00934513377887759,1.2512688284699711,0.02298441451795158,0.022607186321059097
0.634,0.0075,-1.025,0.009257422905669704,1.2512688284699711,0.02259493037564069,0.022607186321059097
0.6349999999999999,-0.0106,-2.025,0.009588287297506739,1.2715964078086899,0.024064148833544217,0.023565947156338442
0.636,-0.0037,1.975,0.00983567301700547,1.2715964078086899,0.0251626764305795,0.023565947156338442
0.6369999999999999,-0.0015,-1.025,0.009844284341857882,1.2838384507418812,0.025200915412265993,0.024143349468368575
0.638,-0.0033,-1.025,0.00993508018722164,1.2838384507418812,0.02560409851446906,0.024143349468368575
0.6389999999999999,-0.0015,0.975,0.0099410666766125,1.2794363697941231,0.025630681794290323,0.023935723034541268
0.64,-0.0029,-1.025,0.009915263652547497,1.293982201519503,0.025516102286306568,0.02462178474127359
0.6409999999999999,0.0047,1.975,0.010038193316786464,1.2939822015195022,0.026061977080269683,0.024621784741273547
0.642,0.0037,-1.025,0.010057122576924472,1.2939822015195022,0.026146033325291407,0.024621784741273547
0.6429999999999999,-0.0024,-2.025,0.010022124825254712,1.2939822015195022,0.02599062420902827,0.024621784741273547
0.644,0.0121,-1.025,0.009966653765067533,1.2896147465805081,0.025744302430326185,0.024415791461130296
0.6449999999999999,0.0103,-0.025,0.009932413332280766,1.2774280611238176,0.025592256223184923,0.023841000113225527
0.646,0.0121,-1.025,0.009937981762605859,1.2730038130717465,0.02561698309261246,0.023632328156412294
0.6469999999999999,0.0042,1.975,0.009913906384580652,1.2740118502580338,0.025510075275850294,0.023679872753760222
0.648,0.0056,2.975,0.009950565941577285,1.285232450316496,0.025672863714639282,0.02420909818218572
0.6489999999999999,0.0042,-0.025,0.009795006348150944,1.2852324503164951,0.024982094228394543,0.024209098182185678
0.65,0.0053,-0.025,0.00949173482479324,1.281837039017789,0.023635403164421958,0.024048951845102452
0.6509999999999999,-0.0136,-0.025,0.009231858147156487,1.2774280611238122,0.022481408896732304,0.023841000113225277
0.652,-0.0056,-0.025,0.009288872727025697,1.281837039017788,0.02273458474514671,0.024048951845102407
0.6529999999999999,-0.0077,-1.025,0.009514285345997341,1.2774280611238116,0.023735539784758935,0.023841000113225246
0.654,-0.0143,0.975,0.009572720513761072,1.2626915450137615,0.02399502381866322,0.023145944678470774
0.6549999999999999,-0.0085,-0.025,0.009610391537553923,1.258215480193234,0.024162303722001503,0.02293482875686572
0.656,-0.0103,-0.025,0.009683556885535294,1.261674463301267,0.024487197794574027,0.02309797349134762
0.6569999999999999,0.001,-2.025,0.009652047866882141,1.261674463301267,0.02434728055676368,0.02309797349134762
0.658,-0.0004,-1.025,0.009598122654899203,1.2740118502580304,0.024107823187683248,0.023679872753760066
0.6589999999999999,0.0144,-3.025,0.009596411376547353,1.261674463301267,0.02410022417792826,0.02309797349134762
0.66,0.0242,-3.025,0.009597645819112894,1.249215236896825,0.024105705776574896,0.022510327608116238
0.6609999999999999,0.0075,-0.025,0.009589024042819493,1.2446907105156046,0.024067420384786892,0.022296925971835836
0.662,-0.008,1.975,0.00960709386129318,1.2446907105156044,0.024147660239807568,0.022296925971835826
0.6629999999999999,-0.0062,1.975,0.009511755311842628,1.232059747574155,0.02372430505243071,0.02170118004565661
0.664,0.0028,1.975,0.009525720942705243,1.232059747574155,0.023786320074735457,0.02170118004565661
0.6649999999999999,0.0042,-0.025,0.009449205011804837,1.2331012562215604,0.023446547585534147,0.021750303341849336
0.666,0.0057,-0.025,0.009212321199231663,1.2023617097614967,0.022394654186311883,0.020300456670533058
0.6669999999999999,-0.0147,1.975,0.009109651718880419,1.1987315897864457,0.02193874566512623,0.020129240176849774
0.668,-0.0234,-0.025,0.009124399815647586,1.1856111002772325,0.022004235263051723,0.0195104054758991
0.6689999999999999,-0.01,-0.025,0.00899933867408459,1.1892812694435406,0.02144889554658764,0.019683510910484894
0.67,-0.0078,0.975,0.009022389305967186,1.1882013513485583,0.02155125293125577,0.019632576012751823
0.6709999999999999,-0.01,-0.025,0.009005203946083992,1.2038500591202546,0.021474940555040505,0.02037065544091356
0.672,-0.0042,-1.025,0.008793724065127476,1.208527495796099,0.020535854475540016,0.02059126917064364
0.6729999999999999,0.0012,-0.025,0.008847163525656046,1.2085274957960992,0.02077315484308049,0.02059126917064365
0.674,-0.0003,-0.025,0.008910064899813294,1.2121282790380894,0.021052471270654363,0.020761101982078048
0.6749999999999999,0.0041,-0.025,0.00888310210509745,1.211068733945824,0.020932741748074937,0.020711127987597475
0.676,-0.0025,-0.025,0.00879848762420531,1.211068733945824,0.02055700727739823,0.020711127987597475
0.6769999999999999,-0.0036,-0.025,0.008824423131370614,1.211068733945824,0.02067217508264553,0.020711127987597475
0.678,-0.0069,0.975,0.00901263218057991,1.211068733945824,0.02150792596991227,0.020711127987597475
0.6789999999999999,-0.0022,0.975,0.009053491926708464,1.199154377714767,0.02168936554055936,0.020149181189035685
0.68,0.0004,-0.025,0.009018803760251996,1.1955145188762202,0.021535331151588986,0.019977505356798392
0.6809999999999999,0.0127,-0.025,0.009037576358344204,1.1907859680028525,0.0216186917316343,0.019754480799399392
0.682,0.0036,-1.025,0.009019315161418434,1.1907859680028525,0.021537602051848008,0.019754480799399392
0.6829999999999999,0.0084,-0.025,0.009057166062227893,1.1860385652840892,0.021705680707301885,0.01953056708492286
0.684,0.025,-3.025,0.009058216158504589,1.1907859680028525,0.021710343707825243,0.019754480799399392
0.6849999999999999,0.0228,-1.025,0.009121508362503814,1.1860385652840892,0.02199139563317978,0.01953056708492286
0.686,0.009,-2.025,0.009107761795589706,1.1727760805412903,0.021930353374353208,0.018905035105044387
0.6869999999999999,-0.0149,-0.025,0.009160207754683661,1.1615743475317628,0.02216324205335389,0.018376699550779235
0.6880000000000001,-0.0052,-0.024999999999777957,0.00916962603609657,1.1567070595412179,0.022205064362538468,0.018147131385204726
0.689,-0.0023,1.974999999999889,0.009493941529472123,1.1518192038428343,0.02364520213743128,0.017916593133009542
0.6900000000000001,-0.0157,0.974999999999889,0.00975173519135646,1.1529332005124324,0.024789946678444204,0.017969135364410794
0.691,-0.0087,-0.025,0.009793271849360937,1.1480292773237495,0.024974392107222358,0.017737839280692065
0.6920000000000001,-0.0022,-0.025,0.009795262207712712,1.136583675470724,0.024983230384475568,0.017198001525786356
0.693,-0.004,-0.025000000000111024,0.00978896002660691,1.131608902446066,0.024955245261161798,0.016963363772762745
0.6940000000000001,0.0087,-1.0249999999998889,0.00978921300983476,1.1126415512610028,0.02495636864475056,0.01606875880469407
0.695,0.004,-0.025000000000111024,0.009740923255678277,1.124330908513344,0.024741935783781734,0.01662009340958656
0.6960000000000001,-0.0004,-1.0249999999996668,0.010076895341633911,1.124330908513344,0.026233835190924627,0.01662009340958656
0.697,0.0086,1.974999999999889,0.01004358074131766,1.124330908513344,0.026085900185194476,0.01662009340958656
0.6980000000000001,-0.00010000000000073275,0.974999999999889,0.010057071659887586,1.1126415512610028,0.02614580722586137,0.01606875880469407
0.699,-0.0034,-0.025,0.010050506425763113,1.0732299154172606,0.026116654003592338,0.014209888534327027
0.7000000000000001,-0.0026999999999969358,-0.025000000000111024,0.01006602189699696,1.0784740120178558,0.026185551162918774,0.014457229073664903
0.701,0.0111,-1.0249999999998889,0.010065502957141904,1.0825074832750765,0.026183246786768297,0.01464746984002523
0.7020000000000001,0.02079999999999798,-0.025,0.010039229942710743,1.0825074832750765,0.02606658026507732,0.01464746984002523
0.703,0.0117,-0.025,0.01006767847719644,1.0865259813254307,0.026192907283027558,0.01483700438730836
0.7040000000000001,-0.009700000000000644,-0.025,0.010066163321811553,1.0865259813254307,0.02618617916627341,0.01483700438730836
0.705,-0.0126,0.975,0.009980134787271866,1.0877068514070736,0.02580416552572924,0.014892700737914941
0.7060000000000001,-0.004599999999999512,0.975,0.009946020550211598,1.0928814838989813,0.025652679696480718,0.015136764966495037
0.707,-0.0024,-2.025,0.009907693132790586,1.0928814838989815,0.025482485047228585,0.015136764966495048
0.7080000000000001,-0.00019999999999960032,-1.025,0.009929350802983784,1.0732299154172606,0.02557865692183365,0.014209888534327027
0.709,0.0016,-1.025,0.009959275710394472,1.0679600685864572,0.02571153984125187,0.013961333472009717
0.7100000000000001,-0.00019999999999822365,-0.025,0.009857995139811804,1.0230774547125652,0.02526179883738963,0.011844421681864154
0.711,0.0078,-0.025,0.00956568925943065,0.9761333149662969,0.023963801212364872,0.00963027695343239
0.7120000000000001,-0.0026999999999980017,-1.025,0.009542414890047576,0.9818961206962992,0.023860450311097386,0.009902082678215648
0.713,0.0063,-1.025,0.009517319741144427,0.9684891437659437,0.023749014155131396,0.00926973564927872
0.7140000000000001,0.0073999999999983124,-1.025,0.00952788093372136,0.9535486169272339,0.023795911613589682,0.008565057942567686
0.715,-0.0002,-1.025,0.009532128812298415,0.9337143306957114,0.023814774512609098,0.007629563532848032
0.7160000000000001,0.004500000000001843,-0.025,0.009547761520910357,0.9397373008441722,0.023884192269872637,0.007913640047526871
0.717,0.0128,-1.025,0.009566732638446282,0.9397373008441722,0.02396843438458339,0.007913640047526871
0.7180000000000001,0.0025999999999979794,0.975,0.009452747270714247,0.9196051767473854,0.023462277148160945,0.006964097960229854
0.719,-0.0065,0.975,0.00916444693217621,0.9196051767473853,0.022182066314809772,0.006964097960229848
0.7200000000000001,-0.005400000000000733,1.975,0.00922058137353688,0.9397373008441721,0.02243133386794019,0.007913640047526866
0.721,-0.0087,-1.025,0.00918742760869306,0.9350881978985939,0.02228411305947819,0.007694362692898021
0.7220000000000001,-0.013399999999999445,1.975,0.009173204716631685,0.9350881978985939,0.02222095565705928,0.007694362692898021
0.723,-0.0109,0.975,0.009171871451617901,0.9350881978985939,0.022215035232813405,0.007694362692898021
0.7240000000000001,-3.330669073875097e-16,0.975,0.009400211109140537,0.9411023754621969,0.023228987920925172,0.007978024500746203
0.725,-0.0015,-1.025,0.00944730052939621,0.9470783623079664,0.02343809064433243,0.008259885023555973
0.7260000000000001,-0.008000000000002488,-0.025,0.009720094777402745,0.9470783623079664,0.024649445973794783,0.008259885023555973
0.727,-0.0192,0.975,0.009721216707765165,0.9530168768722249,0.024654427956859806,0.008539978146749555
0.7280000000000001,-0.008599999999998002,0.975,0.009770746563723058,0.9589186153447222,0.02487436754657087,0.008818336706478016
0.729,0.0004,-0.025,0.009828220099698765,0.9737767544993511,0.02512958141055803,0.009519128555286839
0.7300000000000001,-0.005799999999999267,-0.025,0.009881360521357262,0.9692909319985611,0.025365553882324934,0.009307552407625206
0.731,-0.0025,0.975,0.009881519463362277,0.973776754499351,0.025366259671564476,0.009519128555286834
0.7320000000000001,0.008299999999999046,-0.025,0.009835219686460098,0.9953937181366923,0.02516066339556811,0.010538703870566206
0.733,0.004,-1.025,0.009828818049864237,0.9897095083177888,0.025132236635603978,0.010270605162743453
0.7339999999999999,0.0131,-0.025,0.009885335797908993,1.0109858541826087,0.025383206279588497,0.011274115063904792
0.735,0.0094,-1.025,0.009685860825461122,0.9852962265765504,0.024497428545142662,0.010062450437675261
0.7359999999999999,0.0105,-1.025,0.00947351886883838,0.9795534241962708,0.023554514379235246,0.009791588181269078
0.737,-0.0044,-0.025,0.00945110799545324,0.9634527324177815,0.023454997871422564,0.009032190692719285
0.7379999999999999,-0.0248,-0.025,0.009336773289691458,0.9679656111411911,0.022947289383508533,0.009245042961170609
0.739,-0.0223,-1.025,0.00939312361655766,0.9737767544993512,0.023197515586095785,0.009519128555286844
0.7399999999999999,0.0095,-0.025,0.009391178934608375,0.9589186153447247,0.023188880136995993,0.008818336706478132
0.741,0.0051,-1.025,0.00939968119293855,0.9602564227108016,0.023226634803804352,0.008881435085599923
0.7419999999999999,0.0011,-0.025,0.00941102321422069,0.9795534241962742,0.023276999567824842,0.009791588181269241
0.743,-0.0025,-0.025,0.00963499764267089,0.9839924631841933,0.0242715682566776,0.010000957760252428
0.7439999999999999,0.0072,1.975,0.009636969382249462,0.9884115662779074,0.024280323856417214,0.010209387052433063
0.745,0.0278,-0.025,0.009626139787928758,1.004112128999196,0.024232234547745334,0.01094991224621973
0.7459999999999999,0.0089,-1.025,0.009618079326986257,1.0097152622668668,0.024196441702434363,0.011214186936401903
0.747,0.0067,-1.025,0.009645849026887088,1.0041121289991997,0.024319754324376577,0.010949912246219896
0.7479999999999999,-0.0042,-0.025,0.009996978100204145,0.9852962265765607,0.025878959026821795,0.010062450437675749
0.749,0.007,-1.025,0.01009768968639797,0.9997624272069148,0.026326173429493414,0.010744756302460093
0.7499999999999999,0.0052,0.975,0.010163281490348385,1.0041121289992028,0.026617436833560795,0.010949912246220043
0.751,-0.0115,-0.025,0.010207034342069033,1.0225818701212201,0.026811723371852152,0.011821047177264657
0.7519999999999999,-0.0094,0.975,0.010213181168288036,1.022581870121221,0.026839018634688815,0.011821047177264699
0.753,-0.0075,-1.025,0.010002874926181559,1.0280843469054297,0.02590514415215655,0.012080574352135174
0.7539999999999999,-0.0057,-1.025,0.009936902786220309,1.0280843469054295,0.025612191848645435,0.012080574352135163
0.755,0.0022,-1.025,0.010015771659428074,1.0323147199864071,0.025962412685730785,0.012280102095260774
0.7559999999999999,-0.0055,-0.025,0.010036448151208225,1.0280843469054295,0.026054227592736706,0.012080574352135163
0.757,-0.0066,-0.025,0.010026042412881388,1.0419566598955132,0.026008020435982788,0.012734869197970334
0.7579999999999999,-0.0077,-0.025,0.010035938185298751,1.0213257044635244,0.02605196306580185,0.011761799471713826
0.759,-0.0024,-0.025,0.010035965733727259,1.0200679918981945,0.026052085395858054,0.011702478805461144
0.7599999999999999,0.0041,-0.025,0.010035418277590037,1.0188087266962895,0.02604965439185296,0.011643084908298141
0.761,0.0034,-1.025,0.010074547216121797,1.0243314721533576,0.02622340823224008,0.01190356806564921
0.7619999999999999,0.0041,-1.025,0.010050354816811229,1.0243314721533576,0.02611598077711047,0.01190356806564921
0.763,0.0077,0.975,0.010111958916429796,1.0188087266962895,0.026389536597788525,0.011643084908298141
0.7639999999999999,0.004,-0.025,0.010180700060381194,1.013255879993383,0.026694784790106972,0.011381182010056036
0.765,0.0069,-1.025,0.010159087870321744,1.013255879993382,0.026598814872115004,0.011381182010055984
0.7659999999999999,0.0083,-0.025,0.010164335350998817,1.0076724344199426,0.026622116549957827,0.011117835900195718
0.767,0.0003,-0.025,0.010157384832567003,1.0132558799933808,0.026591252455108207,0.011381182010055932
0.7679999999999999,0.0035,-0.025,0.010081433565205083,1.0076724344199415,0.026253987380163966,0.011117835900195666
0.769,0.0143,1.975,0.01009018205660347,1.0089455989261813,0.026292835456168624,0.011177885365265296
0.7699999999999999,0.0005,-0.025,0.010074881264992107,1.0102171588798163,0.02622489159152023,0.011237859150778103
0.771,-0.0086,-0.025,0.010062946440877803,0.9915171176524932,0.02617189445942266,0.010355861995675786
0.7719999999999999,-0.0039,-1.025,0.010025787742926557,0.9915171176524907,0.026006889562405752,0.010355861995675671
0.773,-0.0206,-1.025,0.009937972103617685,0.9769288294698077,0.0256169402014339,0.00966779780808773
0.7739999999999999,-0.0094,-1.025,0.009877760839297037,0.9782420070473096,0.02534956932957176,0.009729734510441543
0.775,-0.0232,-0.025,0.009878343826514585,0.979553424196273,0.0253521581109634,0.009791588181269182
0.7759999999999999,-0.0029,-1.025,0.009877806687579909,0.9782420070473072,0.025349772920967874,0.009729734510441432
0.777,0.0105,-1.025,0.009890167149696694,0.982686970047223,0.025404660118074122,0.009939383498526686
0.7779999999999999,0.0127,1.975,0.009703205297816752,0.9782420070473061,0.02457444746756584,0.00972973451044138
0.779,0.0105,-0.025,0.009665092643478815,0.9737767544993523,0.024405206483602317,0.009519128555286896
0.7799999999999999,0.0007,0.975,0.00966656235404504,0.9795534241962708,0.02441173280056161,0.009791588181269078
0.781,-0.0083,-2.025,0.009649532951026968,0.9795534241962708,0.024336112957935713,0.009791588181269078
0.7819999999999999,-0.0004,-0.025,0.009706790456891198,0.9808630879777954,0.024590367530336728,0.009853359153610974
0.783,0.0135,-2.025,0.009717754142860004,0.9808630879777955,0.024639052279102198,0.009853359153610979
0.7839999999999999,0.0153,-2.025,0.009724225926839289,0.9808630879777955,0.024667790531729315,0.009853359153610979
0.785,0.0106,-0.025,0.009669706166514023,0.9852962265765494,0.02442569304355413,0.010062450437675214
0.7859999999999999,0.0062,-1.025,0.009625009415524686,0.9839924631841889,0.02422721507740842,0.010000957760252218
0.787,-0.0028,0.975,0.009582119771028089,0.9826869700472209,0.024036761650258247,0.009939383498526586
0.7879999999999999,-0.0115,-1.025,0.009578021184578055,0.9826869700472209,0.02401856168975398,0.009939383498526586
0.789,-0.0013,0.975,0.009296046848676371,1.0015518931128273,0.022766441760312027,0.010829157391151884
0.7899999999999999,-0.0162,-1.025,0.009026230568877126,0.9959028322816128,0.02156831023481633,0.010562716503585758
0.791,0.0099,1.975,0.008979256686388935,0.9959028322816128,0.021359720562147553,0.010562716503585758
0.7919999999999999,0.0208,0.975,0.00897486907621506,0.9902215449560711,0.021340237178584423,0.010294755636680015
0.793,0.0045,0.975,0.00897967141995888,0.9902215449560712,0.021361562205525046,0.01029475563668002
0.7939999999999999,0.0074,-2.025,0.008978403759208858,0.9902215449560712,0.021355933100011604,0.01029475563668002
0.795,-0.0005,-1.025,0.008961650634440604,0.9756138843551471,0.021281540083584488,0.009605777738925967
0.7959999999999999,-0.0073,-0.025,0.008520446462985535,0.9813797402625999,0.019322352789942147,0.009877727326912583
0.797,-0.0276,-0.025,0.008489892052127463,0.9800707668812434,0.019186674531687153,0.009815988917653132
0.7979999999999999,-0.0142,1.975,0.008475436976569386,0.974297164546751,0.019122486107836522,0.009543673965412603
0.799,-0.012,0.975,0.008467944864732051,0.9787600429076009,0.019089217042709952,0.009754167940799457
0.7999999999999999,-0.0098,1.975,0.008439314660788495,0.9774475612992183,0.018962083313226807,0.009692264064190556
0.801,-0.0116,-1.025,0.008435312832946414,0.9729786628396015,0.018944313013744614,0.00948148614771923
0.8019999999999999,-0.0025,-1.025,0.008369813130280818,0.9729786628396015,0.018653458589643016,0.00948148614771923
0.803,0.0022,-0.025,0.008319668067587634,0.9742971645467509,0.01843078714629881,0.009543673965412598
0.8039999999999999,0.0159,0.975,0.008285556867203822,0.9729786628396014,0.018279314801550914,0.009481486147719225
0.805,0.0142,-0.025,0.00827506492483813,0.971658371979802,0.01823272485182152,0.009419213943712037
0.8059999999999999,-0.0007,1.975,0.00827972328201028,0.9658344830182289,0.01825341049980809,0.009144527196592254
0.807,0.0051,-0.025,0.008325548582426793,0.985022214005547,0.01845689984127846,0.010049526492473787
0.8079999999999999,-0.0003,0.975,0.008354779930114967,0.9894367179527146,0.018586702977041753,0.010257738863519298
0.809,0.0012,0.975,0.008319110879716787,1.0107188062640071,0.018428312928085652,0.011261519610150476
0.8099999999999999,0.0089,-1.025,0.008359170756901629,1.056126760900314,0.018606200644121013,0.01340320937015592
0.811,-0.0034,-0.025,0.008383094767125863,1.06145535861907,0.01871243630524296,0.013654535448611862
0.8119999999999999,0.0115,-0.025,0.00837900292947613,1.06145535861907,0.018694266313094954,0.013654535448611862
0.8130000000000001,0.0134,-0.025000000000111024,0.008397708885599842,1.0737021228381218,0.01877733096643253,0.014232160442541286
0.814,-0.0032,-1.0249999999998889,0.008362984827628385,1.0748970811616285,0.01862313719954901,0.014288521272391157
0.8150000000000001,0.0033,-0.025000000000111024,0.008354934317198375,1.0801330836249479,0.018587388539943656,0.014535480047541271
0.816,-0.0024,-1.0249999999998889,0.00833494691537814,1.0921704301926003,0.018498633568407502,0.015103227749195394
0.8170000000000001,0.0031,-0.025000000000111024,0.008294760185857083,1.0921704301926003,0.018320182558773938,0.015103227749195394
0.818,-0.0049,-1.025,0.008346393298543342,1.1091748113279483,0.018549461756140778,0.01590524821553205
0.8190000000000001,-0.0034,-1.0249999999998889,0.00834084133546199,1.1091748113279485,0.018524808010261896,0.01590524821553206
0.82,-0.0023,-0.025000000000111024,0.008218268029475988,1.1091748113279485,0.017980515641412516,0.01590524821553206
0.8210000000000001,-0.0012,-1.0249999999997779,0.008218149928818377,1.1091748113279485,0.017979991210043247,0.01590524821553206
0.822,-0.0022,0.9749999999997779,0.00817332888786241,1.1091748113279483,0.017780961328618623,0.01590524821553205
0.8230000000000001,0.0003000000000001776,-1.025,0.008177258187185728,1.1040765457308837,0.0177984095618975,0.015664785871203266
0.824,0.0011,-1.0249999999997779,0.007916705131944651,1.0989546285364515,0.01664141180853425,0.015423207987002772
0.8250000000000001,-0.001100000000001843,0.975,0.007945130632660108,1.0989546285364515,0.01676763654397471,0.015423207987002772
0.826,-0.0094,0.974999999999889,0.007703024855977141,1.102913202536963,0.015692554774393158,0.015609916185357526
0.8270000000000001,-0.0017999999999994227,-0.025,0.007817966636518863,1.102913202536963,0.016202959005620833,0.015609916185357526
0.828,0.0008,-0.025000000000111024,0.0077552761903384405,1.117005494875334,0.01592457921337093,0.01627458647138623
0.8290000000000001,-0.0016999999999998444,-1.0249999999998889,0.007657004756810514,1.1193016789887744,0.01548820042016739,0.016382887187466277
0.83,-0.001,-0.025000000000111024,0.007585253050322087,1.1193016789887744,0.015169583687270982,0.016382887187466277
0.8310000000000001,-0.010799999999995494,-1.0249999999998889,0.007586800006809152,1.1204480064196594,0.015176453018273178,0.016436954316012442
0.832,0.0095,-0.025000000000111024,0.007556400010187736,1.106399562472093,0.015041460443495327,0.01577435216210577
0.8330000000000001,-0.005299999999997025,-1.025,0.00756753858544108,1.106399562472093,0.015090921796124113,0.01577435216210577
0.834,0.0081,0.975,0.0074491203810448485,1.0909943914083104,0.014565080345840671,0.015047759269237283
0.8350000000000001,0.0012999999999985567,0.975,0.0073636233947892765,1.071308207558259,0.014185427069752623,0.014119250185246774
0.836,-0.0052,0.975,0.00729925600746648,1.076561665132583,0.013899600743696184,0.014367032239771566
0.8370000000000001,-0.003399999999997202,-0.025,0.007491894969374676,1.071308207558259,0.014755022860822342,0.014119250185246774
0.838,0.0092,1.975,0.007505111680043277,1.0713082075582592,0.014813712268767588,0.014119250185246785
0.8390000000000001,-0.001999999999999045,-0.025,0.007439713446293171,1.1056972020296925,0.014523308422024024,0.01574122496711603
0.84,0.0023,-0.025,0.007474524274330942,1.1056972020296925,0.01467788749535383,0.01574122496711603
0.8410000000000001,-0.004199999999999755,-0.025,0.0072981871162057345,1.1056972020296922,0.013894854283186911,0.01574122496711602
0.842,-0.0031,-0.025,0.007265148562380628,1.0926344520596265,0.013748145074520558,0.015125113581512405
0.8430000000000001,-0.0020000000000005773,-0.025,0.006963497063395491,1.0926344520596265,0.012408647802836148,0.015125113581512405
0.844,-0.0046,0.975,0.006949604137694023,1.088638502478665,0.012346955631123294,0.014936642544497213
0.8450000000000001,-0.00019999999999880096,-1.025,0.006918378658149357,1.086277504173584,0.01220829746168659,0.01482528483341152
0.846,0.0052,0.975,0.006972998286904004,1.0862775041735842,0.012450838420188076,0.01482528483341153
0.8470000000000001,0.004499999999999511,-0.025,0.006936551012008746,1.1033727065551746,0.012288992629775031,0.015631588930989152
0.848,0.0023,0.975,0.006367868498983308,1.1084742093626903,0.009763731932530025,0.015872203960029887
0.8490000000000001,0.0005000000000008882,0.975,0.0062133495787369385,1.0914589132555292,0.009077583603116847,0.015069668683379708
0.85,0.0045,-0.025,0.006154458413095039,1.1068576191538777,0.008816074689787939,0.015795956643363245
0.8510000000000001,0.0047999999999994445,-0.025,0.006081619763714099,1.09380872748865,0.008492631337286137,0.015180498891903703
0.852,0.0023,-1.025,0.005983696829271941,1.0886385024786651,0.0080578000702051,0.014936642544497223
0.8530000000000001,9.999999999911183e-05,0.975,0.005978592539756889,1.088638502478665,0.008035134239263426,0.014936642544497213
0.854,-0.0039,0.975,0.006011275098057574,1.0886385024786651,0.008180262633528728,0.014936642544497223
0.8550000000000001,-0.00350000000000151,-0.025,0.0058805897920980186,1.0846278312538087,0.007599948557944797,0.014747477153503032
0.856,-0.0103,1.975,0.005716913717181507,1.0898170835427796,0.006873137464586088,0.014992230932403428
0.8570000000000001,-0.009599999999997756,0.975,0.005757627835708826,1.072505833123713,0.007053930369212322,0.014175736816948144
0.858,0.0005,-2.025,0.005830078818196435,1.1119431335865788,0.007375652269151525,0.016035817572403358
0.8590000000000001,-0.008499999999999779,-3.025,0.0065236604756063,1.108016820983188,0.010455533326983233,0.0158506309995966
0.86,-0.0075,-1.025,0.007259723860594258,1.1040765457308837,0.01372405643823998,0.015664785871203266
0.8610000000000001,-0.002100000000001066,-1.025,0.007271273202637247,1.118154176347962,0.013775341819576991,0.016328764629533622
0.862,-0.0069,1.975,0.007374661767359328,1.118154176347962,0.014234443467785338,0.016328764629533622
0.8629999999999999,-0.0008,-1.025,0.007309747077000822,1.1231885439834843,0.013946186817578065,0.016566213193325123
0.864,-0.0015,-1.025,0.007299936648709561,1.1397302395010145,0.013902623162252596,0.017346410852232576
0.8649999999999999,-0.0037,1.975,0.007446000477139851,1.151144556117516,0.014551226269919547,0.01788477302271173
0.866,0.0013,-0.025,0.007439654083330224,1.1511445561175158,0.014523044818073193,0.01788477302271172
0.8669999999999999,0.0093,1.975,0.007464283207745196,1.146232980605446,0.014632411570994439,0.017653116013186733
0.868,0.0017,-0.025,0.0076634185800673405,1.1500288268457861,0.015516681295556669,0.017832149072231223
0.8689999999999999,0.0009,1.975,0.008518664557371642,1.1489120140696567,0.01931444015660123,0.017779474017703065
0.87,0.0002,-0.025,0.009009348790953794,1.1439908534696628,0.021493345928172525,0.017547364922528754
0.8709999999999999,0.001,-0.025,0.009097220747300957,1.1489120140696578,0.021883545367527527,0.017779474017703117
0.872,0.0047,-0.025,0.009157098318805143,1.1477941146263568,0.022149434461182907,0.017726747709953524
0.8729999999999999,0.0025,-0.025,0.009154679425250903,1.1439908534696668,0.022138693253772036,0.017547364922528945
0.874,0.0116,-1.025,0.009192854098531785,1.1428681403904637,0.022308209635687002,0.017494411577142387
0.8749999999999999,0.0127,0.975,0.009662384281127964,1.137920842180251,0.0243931798767666,0.01726106968800929
0.876,0.0137,-1.025,0.010031185932478053,1.137920842180251,0.026030860469895327,0.01726106968800929
0.8769999999999999,0.0035,-2.025,0.010279921902005176,1.1390484316177751,0.027135383913910353,0.01731425302936827
0.878,-0.003,-2.025,0.010307653038784066,1.1439908534696697,0.027258525294546622,0.01754736492252908
0.8789999999999999,0.0006,-0.025,0.010313393621528728,1.1477941146263615,0.027284016614663457,0.017726747709953743
0.88,0.0017,-1.025,0.010331014085741053,1.1477941146263626,0.02736226109154366,0.017726747709953795
0.8809999999999999,-0.0048,-1.025,0.010340185676390126,1.1526990382672595,0.027402987959113598,0.017958090980520713
0.882,-0.0041,-0.025,0.010289058342038682,1.1477941146263635,0.0271759546935649,0.017726747709953836
0.8829999999999999,-0.0019,0.975,0.010257189979762136,1.1661898713647008,0.02703444177396695,0.018594393129123338
0.884,-0.0103,-0.025,0.010250495209490191,1.1650885500986257,0.02700471334051313,0.018542448739711368
0.8849999999999999,0.0042,-1.025,0.010245944062712915,1.1795264131527397,0.026984503765186282,0.019223418047997126
0.886,0.018,-0.025,0.010249761784883587,1.1806142663154917,0.027001456535017922,0.019274727207322102
0.8869999999999999,0.0053,0.975,0.01023656329168068,1.1806142663154917,0.026942848022561933,0.019274727207322102
0.888,-0.0059,2.975,0.010252264257504699,1.1806142663154917,0.02701256887909618,0.019274727207322102
0.8889999999999999,-0.0073,0.975,0.010217046565523967,1.1694876124105416,0.02685618310782727,0.018749932798011654
0.89,0.0017,-1.025,0.010229975256638662,1.1853833932863245,0.026913593551776162,0.01949966555742853
0.8909999999999999,-0.007,0.975,0.01023702307127991,1.1853833932863245,0.026944889694891814,0.01949966555742853
0.892,-0.0015,0.975,0.01029875581883105,1.1890542652998006,0.027219016782595785,0.01967280414216598
0.8929999999999999,-0.0008,-0.025,0.010308833212432396,1.1890542652998006,0.027263765909585402,0.01967280414216598
0.894,-0.0033,1.975,0.010373334964924763,1.192713839349697,0.02755018889032002,0.019845409852584345
0.8949999999999999,-0.0087,-1.025,0.010363231734154862,1.1937896753947028,0.027505325032202255,0.019896152218310537
0.896,-0.0017,1.975,0.010380989170736907,1.1927138393496943,0.027584177741152096,0.01984540985258422
0.8969999999999999,0.0026,-1.025,0.01039499005899112,1.189054265299796,0.02764634932551608,0.019672804142165757
0.898,-0.0028,-0.025,0.01038536730209335,1.192713839349694,0.02760361903359308,0.01984540985258421
0.8989999999999999,0.0085,-2.025,0.010389927040812506,1.1927138393496923,0.027623866761830637,0.019845409852584126
0.9,-0.0027,0.975,0.01040197078110506,1.193789675394699,0.027677347541196988,0.019896152218310356
0.9009999999999999,-0.0041,-0.025,0.010456073260865301,1.1937896753946993,0.027917592075946584,0.019896152218310367
0.902,-0.0005,-1.025,0.010521211015560087,1.1937896753946993,0.028206839253536817,0.019896152218310367
0.9029999999999999,-0.0066,-0.025,0.010518820621758658,1.1890542652997933,0.028196224600581212,0.019672804142165632
0.904,-0.0098,-0.025,0.010720050358755359,1.2010688167529273,0.029089794447227764,0.020239476700406378
0.9049999999999999,-0.0033,-1.025,0.010864245524840865,1.2010688167529264,0.02973009967432406,0.020239476700406336
0.906,0.0069,-0.025,0.010973930865394669,1.2010688167529264,0.030217162443479516,0.020239476700406336
0.9069999999999999,0.0105,2.975,0.011072094379808935,1.190133409467328,0.03065306201692517,0.019723702537208745
0.908,0.0293,-0.025,0.011037883027910768,1.2042710500897906,0.030501144944799205,0.02039051169860523
0.9089999999999999,0.0319,-0.025,0.01111205669574208,1.1864658762820224,0.030830516507762213,0.01955072143003576
0.91,0.0098,-2.025,0.011186177073454746,1.146232980605434,0.031159651433517132,0.017653116013186167
0.9109999999999999,0.0128,-0.025,0.011194116310017328,1.1784375557585638,0.03119490597642713,0.019172061523575566
0.912,-0.006,-1.025,0.011244338422551866,1.1894804929330152,0.031417919563114315,0.019692907389819353
0.9129999999999999,-0.0128,1.975,0.011294911138502301,1.1894804929330152,0.03164249002029814,0.019692907389819353
0.914,-0.015,1.975,0.011440726848588944,1.1847278589688093,0.03228999134711703,0.019468746940935023
0.9149999999999999,-0.0011,-0.025,0.011461267078363554,1.1836437864974916,0.03238120117645793,0.019417616099884797
0.916,-0.0065,-0.025,0.011458451620855195,1.1677243252655223,0.03236869900867929,0.018666766444171583
0.9169999999999999,-0.0176,0.975,0.011458076860674286,1.1725458810077194,0.03236703486896325,0.018894177624504783
0.918,-0.0375,0.975,0.011429246121980452,1.1613419276088408,0.032239010655753755,0.01836573734442288
0.9189999999999999,-0.0295,-0.025,0.011442359248562062,1.1661898713646797,0.032297240093825216,0.018594393129122342
0.92,-0.0128,-1.025,0.011442224043951158,1.1500288268457741,0.03229663971156942,0.017832149072230657
0.9209999999999999,-0.0105,0.975,0.01153338715669974,1.1500288268457741,0.032701453681384975,0.017832149072230657
0.922,-0.0007,-0.025,0.011545487842974907,1.1500288268457743,0.032755187331990475,0.017832149072230668
0.9229999999999999,0.0084,0.975,0.011555893630293964,1.1500288268457741,0.03280139470629659,0.017832149072230657
0.924,0.0298,-0.025,0.011559254321023303,1.1549242597796696,0.03281631800711912,0.018063044708673492
0.9249999999999999,0.027,0.975,0.011513253070741282,1.1538121854638725,0.03261204735222715,0.01801059314608751
0.926,0.0244,-1.025,0.011528287293809171,1.1500288268457741,0.03267880750707168,0.017832149072230657
0.9269999999999999,0.0078,-1.025,0.011519072511443029,1.145112465797538,0.03263788884470753,0.01760026635040733
0.928,-0.0035,0.975,0.011520348073137458,1.1313703266718498,0.03264355303472582,0.016952111222483465
0.9289999999999999,0.0063,-1.025,0.011519711309770532,1.1163098074994766,0.03264072545788441,0.016241774015045205
0.93,0.0045,-1.025,0.011535046137415695,1.1329519406474482,0.0327088204610969,0.01702670886694799
0.9309999999999999,-0.0034,-0.025,0.011568323215997253,1.1318182775137178,0.03285658884984879,0.016973239056553475
0.932,-0.0049,-2.025,0.011560797171646,1.1433115863840748,0.03282316910584289,0.01751532693770507
0.9329999999999999,-0.0038,0.975,0.01156152832210164,1.1433115863840748,0.03282641581286678,0.01751532693770507
0.934,0.0075,-2.025,0.011562906545874578,1.1394933640927531,0.03283253587853803,0.01733523850059653
0.9349999999999999,0.0031,-1.025,0.011565624351363787,1.1433115863840748,0.03284460441806133,0.01751532693770507
0.936,-0.0005,0.975,0.011558098609265025,1.1421882056199715,0.03281118601622143,0.017462342100613478
0.9369999999999999,-0.0066,-0.025,0.011437290849051311,1.1421882056199715,0.03227473363408841,0.017462342100613478
0.9380000000000001,0.0035,-1.0249999999996668,0.011446389029987616,1.1569118924150703,0.03231513452247276,0.018156792434066225
0.939,-0.0055,1.974999999999778,0.01147234212806632,1.1240907880668798,0.0324303804409752,0.01660876800403859
0.9400000000000001,-0.0044,-0.02499999999988898,0.011473636729573822,1.1202070536593531,0.032436129178153875,0.0164255896539499
0.941,-0.012,0.974999999999889,0.011473870011098243,1.1202070536593531,0.032437165075427876,0.0164255896539499
0.9420000000000001,-0.0055,-0.02499999999988898,0.011452335420029897,1.1352158705824271,0.032341539739303454,0.017133488297951856
0.943,-0.0117,0.9749999999997779,0.011479413237815294,1.1313703266718498,0.03246178002708169,0.016952111222483465
0.9440000000000001,0.0007,-1.0249999999997779,0.011493127797639394,1.1352158705824273,0.03252268015696183,0.017133488297951867
0.945,0.0061,0.974999999999889,0.01151259605981981,1.1236397565840521,0.03260912986519414,0.016587494869937987
0.9460000000000001,0.0075,-0.02499999999988898,0.011763063097658621,1.1186074196629119,0.03372134019718554,0.016350142085844826
0.947,-0.0001,0.975,0.012201850054038434,1.1209003222099265,0.03566979373677966,0.016458288025140346
0.9480000000000001,-0.0038000000000002663,0.9749999999997779,0.01225972518443486,1.1209003222099265,0.03592679089915151,0.016458288025140346
0.949,-0.005,-1.0249999999998889,0.012257080174629864,1.1209003222099265,0.03591504561219192,0.016458288025140346
0.9500000000000001,-0.011500000000000244,-0.025,0.012232555554221224,1.140174905912934,0.03580614291408834,0.01736738377445852
0.951,-0.0126,-0.025,0.01224245281469371,1.140174905912934,0.0358500921516842,0.01736738377445852
0.9520000000000001,0.00040000000000450754,-0.024999999999777957,0.012235508738722999,1.145112465797534,0.03581925666487764,0.017600266350407144
0.953,0.0207,1.974999999999889,0.012236476475639468,1.1439908534696457,0.03582355394489673,0.01754736492252795
0.9540000000000001,0.018099999999999512,0.974999999999889,0.01225638384766003,1.1477941146263362,0.03591195354044876,0.01772674770995255
0.955,0.0159,-0.025000000000111024,0.01221860937124976,1.1477941146263362,0.03574421425103334,0.01772674770995255
0.9560000000000001,0.017999999999995093,-1.025000000000111,0.01222227003928498,1.1477941146263382,0.03576046961479654,0.017726747709952643
0.957,-0.0041,-2.024999999999778,0.012221451879092734,1.166189871364676,0.03575683653705948,0.018594393129122165
0.9580000000000001,-0.012800000000000578,-0.025,0.01219701956680087,1.1336374151724895,0.03564834373736845,0.01705903962887691
0.959,-0.0154,-0.024999999999666934,0.01187372258361241,1.152259205032298,0.03421272870352412,0.017937346017595782
0.9600000000000001,-0.00860000000000049,2.975,0.011453787837175182,1.1571452021388688,0.032347989264036474,0.018167796608342984
0.961,-0.0108,1.975,0.011418249987788376,1.1424245222678624,0.03219018181916943,0.0174734880980265
0.9620000000000001,-0.01270000000000122,1.975,0.011419971137530495,1.1424245222678624,0.0321978246632842,0.0174734880980265
0.963,-0.0182,-0.025,0.011405218586593786,1.1413002683677307,0.032132315286415226,0.01742046207902072
0.9640000000000001,-0.006999999999999045,0.975,0.011390323512360948,1.1247816628479292,0.03206617302833414,0.016641353471846393
0.965,-0.0027,-0.025,0.0112931680737142,1.1462329806054277,0.031634749861419814,0.017653116013185866
0.9660000000000001,0.0009000000000007994,-1.025,0.011474084339410285,1.183215456319575,0.032438116810095834,0.01939741368461873
0.967,0.0045,-1.025,0.011485728732530752,1.1989292429375642,0.032489824270087786,0.020138562590360225
0.9680000000000001,-0.0056999999999985795,-1.025,0.011398381688168022,1.198929242937564,0.03210195572639678,0.020138562590360214
0.969,0.0007,-0.025,0.010790253564017426,1.198929242937564,0.02940153498963652,0.020138562590360214
0.9700000000000001,0.01449999999999798,-0.025,0.010378700704063349,1.198929242937564,0.027574015700267546,0.020138562590360214
0.971,0.0054,-0.025,0.010303145890801339,1.209785146138268,0.027238511097878434,0.02065058690210863
0.9720000000000001,0.006799999999997668,-0.025,0.010260341806557344,1.2061773679969876,0.02704843760494146,0.020480424172616873
0.973,-0.0037,-1.025,0.0102643925713709,1.2061773679969876,0.027066425211282708,0.020480424172616873
0.9740000000000001,0.005300000000001932,0.975,0.01026320342102278,1.202558766264456,0.027061144734798127,0.020309750942823245
0.975,0.014,-0.025,0.00982969421765008,1.202558766264456,0.02513612729871231,0.020309750942823245
0.9760000000000001,0.012899999999998002,-0.025,0.009465193039464704,1.198929242937564,0.02351754315327393,0.020138562590360214
0.977,0.0039,-1.025,0.009246945444317053,1.198929242937564,0.022548404729511726,0.020138562590360214
0.9780000000000001,0.0028000000000007103,0.975,0.009214727375786217,1.198929242937564,0.02240533892330427,0.020138562590360214
0.979,0.006,1.975,0.009492666436095422,1.1999995066972067,0.023639540026999275,0.02018904213635366
0.9800000000000001,-0.008899999999998557,0.975,0.009580351098198488,1.2129643685306215,0.024028907777700934,0.02080053657716048
0.981,-0.0024,1.975,0.009719259667715863,1.2083041074471028,0.02464573763105192,0.02058073294316144
0.9820000000000001,-0.004299999999999623,-0.025,0.009765314143340312,1.2119055544151078,0.02485024463551022,0.020750597059577987
0.983,-0.0026,-0.025,0.009805310483990217,1.209785146138268,0.02502785021465752,0.02065058690210863
0.9840000000000001,-0.010599999999997669,0.975,0.009800148649254074,1.2215958237344464,0.02500492885153083,0.02120764364401781
0.985,-0.0001,0.975,0.009820366373564876,1.204046872037273,0.02509470658061588,0.02037993822434636
0.9860000000000001,-0.006699999999996958,-0.025,0.009888315489179298,1.1993519611904553,0.025396437734895246,0.02015850031626828
0.987,0.007,-2.025,0.009890788675836721,1.195712703814232,0.02540742003331289,0.019986852852313806
0.9880000000000001,-0.009699999999999511,-1.025,0.009923492969093312,1.2004218480659585,0.02555264494264354,0.02020896208632558
0.989,-0.0075,-0.025,0.010032106523453902,1.1993519611904582,0.026034948396209755,0.020158500316268417
0.9899999999999999,-0.0018,-1.025,0.010028721481787899,1.183643786497486,0.026019916963939717,0.019417616099884537
0.991,0.0,-2.025,0.010046044322462457,1.199351961190462,0.02609683982989417,0.020158500316268597
0.9919999999999999,-0.008,-0.025,0.009973962848497345,1.1993519611904626,0.02577675874944174,0.02015850031626863
0.993,0.0057,0.975,0.009959968367229422,1.1993519611904628,0.025714615615593284,0.02015850031626864
0.9939999999999999,0.0075,-1.025,0.009956480855602563,1.2112643739333142,0.025699129160777504,0.020720355449199996
0.995,0.0257,-0.025,0.010001725444532678,1.206597546951227,0.02590003982634445,0.020500242131185405
0.9959999999999999,0.0325,-2.025,0.010053628240691295,1.20298020913067,0.026130516565499282,0.020329628514456397
0.997,0.0122,-1.025,0.010030082130305703,1.206597546951228,0.02602595898588707,0.020500242131185457
0.9979999999999999,-0.0012,-0.025,0.01004474259796706,1.20298020913067,0.02609105946276212,0.020329628514456397
0.999,-0.0034,2.975,0.010038533136901914,1.2029802091306718,0.026063486067027714,0.02032962851445648
0.9999999999999999,-0.0056,0.975,0.01010572488716603,1.2159132891828375,0.02636185410584498,0.02093962395104694
1.001,0.0002,-1.0249999999995558,0.010063276444758193,1.2205444973710613,0.026173359856740148,0.021158057290152722
1.0019999999999998,-0.0016,0.975,0.009990505595302767,1.2251581993008602,0.025850217572907164,0.02137566493748919
1.0030000000000001,-0.0096,0.9749999999997779,0.009991927441059024,1.2297545920082904,0.025856531343989585,0.021592456186364246
1.004,-0.002,-0.025,0.009780239569303975,1.2190765301323498,0.024916521671839612,0.0210888198530483
1.005,0.0045,-1.025000000000222,0.009622920842918546,1.2154963305460376,0.024217940675268692,0.020919957880422696
1.0059999999999998,-0.0067,-2.025,0.009522066340910773,1.2190765301323507,0.02377009164839163,0.021088819853048342
1.0070000000000001,0.0071,-1.025000000000222,0.009357544096817444,1.2180230292637453,0.023039523102119396,0.021039130937515353
1.008,0.0089,-2.025,0.00935085945438603,1.215913289182843,0.023009839641804468,0.020939623951047204
1.009,-0.006,-1.0249999999995558,0.009302556028342722,1.2312098278964234,0.022795346070197158,0.02166109314270746
1.0099999999999998,0.0038,0.975,0.00929279457235523,1.2312098278964236,0.022751999878625414,0.021661093142707474
1.0110000000000001,-0.0129,-0.024999999999777957,0.009426632920006265,1.2112643739333255,0.02334631517998629,0.02072035544920053
1.012,-0.0016,0.975,0.009680122017708867,1.200421848065979,0.024471945106960755,0.020208962086326544
1.013,-0.0114,-0.024999999999333868,0.009703935408776364,1.189480492933024,0.02457768955866009,0.019692907389819773
1.0139999999999998,-0.0023,2.975,0.00953719693332995,1.194214212911377,0.023837279735746217,0.01991617575073964
1.0150000000000001,-0.0203,2.974999999999778,0.009527014572721803,1.2083041074471232,0.023792064497964185,0.020580732943162403
1.016,-0.0083,1.975,0.009553978225336362,1.2257921122997524,0.023911797830082078,0.021405563773262252
1.017,-0.0105,0.975,0.009648120454499231,1.238486998651031,0.02432984070252995,0.02200432468026041
1.0179999999999998,0.0077,0.975,0.010212375537912904,1.2339231347925563,0.026835441196177468,0.021789067671438022
1.0190000000000001,0.0008,-0.024999999999555912,0.01024022293785756,1.2328823204481396,0.02695909884871646,0.021739977122406294
1.02,0.0029,1.975,0.01024002648247138,1.2328823204481396,0.026958226479592885,0.021739977122406294
1.021,0.0048,-0.025,0.010140749005478327,1.2479708849051285,0.026517380304389694,0.022451637100256897
1.0219999999999998,0.003,-0.025,0.01014022402817215,1.2628791878355545,0.02651504911866151,0.02315479494960039
1.0230000000000001,-0.0082,-0.025,0.010118882897433394,1.2663254320342936,0.026420282851974956,0.023317338846810334
1.024,-0.0039,-0.025,0.01019304220967863,1.2766083463861542,0.026749590668301702,0.023802337841959613
1.025,-0.0049,-0.025,0.010183889448011981,1.3065838601330153,0.02670894741168902,0.025216148513608407
1.0259999999999998,-0.0136,-1.025,0.010099106830726765,1.3065838601330153,0.02633246632367226,0.025216148513608407
1.0270000000000001,0.001,-1.025,0.010036678985858577,1.3099151271394422,0.02605525262455454,0.025373269451837235
1.028,0.0231,-1.025,0.010040808317254912,1.3056009716055634,0.026073589109398408,0.025169790065813723
1.029,0.0144,-2.025,0.010043892341891814,1.3065838601330153,0.026087283861789285,0.025216148513608407
1.0299999999999998,0.017,-0.025,0.010029552683184992,1.2921798907515898,0.0260236079517431,0.024536777817995414
1.0310000000000001,0.0101,0.975,0.010041957745734397,1.3052126645941036,0.02607869319910937,0.025151475363976945
1.032,-0.0101,1.975,0.010039774896589745,1.2907933941260854,0.02606900015769039,0.024471382984669218
1.033,-0.0021,1.975,0.010033256319047956,1.2907933941260854,0.02604005411610974,0.024471382984669218
1.0339999999999998,0.0098,-0.025,0.01003438309819573,1.2907933941260854,0.026045057630427797,0.024471382984669218
1.0350000000000001,0.012,-0.025,0.009979360269271379,1.2907933941260854,0.02580072624313985,0.024471382984669218
1.036,0.0023,-0.025,0.010009582827496508,1.291787549414469,0.025934930894607133,0.024518272835093884
1.037,-0.0104,-1.025,0.010074778334955554,1.3061958453155254,0.026224434525987318,0.02519784759325195
1.0379999999999998,-0.0151,0.975,0.010062423685976566,1.3042287427112393,0.026169573142385213,0.02510506817743764
1.0390000000000001,0.0049,-0.025,0.010016702761056099,1.299895715072094,0.02596654728507671,0.024900698678769265
1.04,0.0074,1.975,0.00999710153606359,1.3042287427112396,0.02587950714939871,0.02510506817743765
1.041,0.0006,0.975,0.009996671388138204,1.3042287427112396,0.02587759705787119,0.02510506817743765
1.0419999999999998,-0.0016,-0.025,0.010003991749297152,1.2921798907515898,0.025910103456258552,0.024536777817995414
1.0430000000000001,-0.0114,1.975,0.009982008700189124,1.2921798907515896,0.025812486721707006,0.024536777817995403
1.044,-0.0095,-0.025,0.009965984700970472,1.2931729801405107,0.02574133142061594,0.02458361739471842
1.045,0.0119,-0.025,0.009938354934818308,1.2931729801405107,0.025618640180881953,0.02458361739471842
1.0459999999999998,-0.0029,0.975,0.009604086504955612,1.3075660098300164,0.024134305936504886,0.025262472114081214
1.0470000000000002,-0.0054,-0.025,0.00905498613667643,1.2911860375484592,0.021696000648232114,0.024489902215578573
1.048,0.0015,0.975,0.008975414691055452,1.2868090924098807,0.021342660006226765,0.024283461325243824
1.049,0.0127,-2.025,0.00901690302055938,1.2901914187659873,0.02152689083008882,0.02444299050421455
1.0499999999999998,0.0069,-1.025,0.009011094397782114,1.2598259338337543,0.021501097375096655,0.02301078663910224
1.0510000000000002,0.0037,-1.025,0.009006453167060786,1.2608445066949336,0.02148048777789793,0.02305882815702745
1.052,-0.0017,-1.025,0.009007271503746344,1.2563618614123282,0.02148412163936161,0.02284740186451137
1.053,0.003,-1.025,0.009017171145935645,1.269762322864204,0.02152808145307987,0.023479441587522434
1.0539999999999998,-0.0046,-0.025,0.00896781095605392,1.266325432034299,0.02130889527333656,0.023317338846810587
1.0550000000000002,0.0077,0.975,0.00900179901203636,1.2707729313564258,0.021459820789740434,0.02352710746184999
1.056,-0.0035,0.975,0.008994650551437828,1.266325432034297,0.02142807772365029,0.023317338846810493
