time_sec,bts_raw,diy_raw,bts_rms,diy_rms,bts_norm_rms,diy_norm_rms
0.0,0.0013,0.804,0.007642794097231358,0.6920823688252609,0.01145676468550346,0.0
0.0010000000000000009,-0.002,-1.196,0.007630221188007687,0.7009047462843693,0.011419585773865143,0.0002706989748007442
0.0020000000000000018,-0.0045,-1.196,0.007647263738387746,0.7096174472834835,0.011469981705578298,0.0005380327223237164
0.0030000000000000027,-0.002,-0.196,0.007638577953936541,0.7182244632524704,0.011444297275119445,0.0008021237125015306
0.0040000000000000036,-0.0042,-0.196,0.007637879095245113,0.7267295492406173,0.011442230704441647,0.0010630871623487806
0.0050000000000000044,-0.005,-0.196,0.007713057330418362,0.7268106563457774,0.01166453764334555,0.0010655757897417538
0.006000000000000005,-0.0014,-1.196,0.007629827687365497,0.7510183028677553,0.01141842216683153,0.0018083444058218543
0.007000000000000006,-0.0105,-0.196,0.007588790561384599,0.7510967871590667,0.011297072711936727,0.0018107525568326714
0.008000000000000007,-0.0116,0.804,0.007596551338242246,0.7511752632501827,0.011320021834681677,0.0018131604562350641
0.009000000000000008,-0.008,2.803999999999998,0.007840050151352463,0.8049021502621934,0.012040063687812706,0.0034616745105018496
0.010000000000000009,-0.0026,1.804,0.008052646605279948,0.8049753809496359,0.012668725251701901,0.0034639214640137055
0.01100000000000001,-0.0,0.804,0.008058291171313943,0.8098960986981342,0.012685416601180464,0.003614904943917649
0.01200000000000001,0.0025,-0.196,0.008075534721663235,0.817447948686416,0.012736406902896813,0.0038466200410274816
0.013000000000000012,0.0079,-1.196,0.00827498788567662,0.8222940323041849,0.01332620290228856,0.003995313505256259
0.014000000000000012,0.0011,-1.196,0.008302233896696794,0.8271117229942533,0.013406771131820401,0.004143135782953319
0.015000000000000013,0.0149,-0.196,0.008360852129019604,0.8319015140423587,0.013580109063491866,0.004290102009714938
0.016000000000000014,0.0011,0.804,0.008738684359337502,0.8319723682336317,0.014697383582475196,0.00429227604466491
0.017000000000000015,0.0065,-0.196,0.009278310226806568,0.8393256100164281,0.01629309242658357,0.0045178972019199685
0.018000000000000016,0.0017,-1.1959999999999964,0.009303429545749984,0.8440460925689399,0.016367371889100785,0.004662736820656807
0.019000000000000017,0.0002,-0.196,0.009299926787096081,0.8649789404635695,0.016357014003573492,0.005305024060235967
0.020000000000000018,0.0012,-1.196,0.009282214110503896,0.8650470853565072,0.01630463646499562,0.005307114965180994
0.02100000000000002,-0.005,0.804,0.009256332073575636,0.8696279587474374,0.016228101595709848,0.005447670924882827
0.02200000000000002,-0.0039,0.804,0.009176876927308576,0.8766654120931234,0.015993147552081574,0.005663602675107194
0.02300000000000002,-0.0065,0.804,0.009149921743895539,0.8767326486442232,0.015913439318730044,0.005665665709197064
0.02400000000000002,-0.0003,0.804,0.009355750310916823,0.8767998800393529,0.016522087800142665,0.005667728585085158
0.025000000000000022,0.0037,1.804,0.009359238581403488,0.8813196675375344,0.016532402843215603,0.0058064102327187875
0.026000000000000023,0.0088,-0.19599999999999654,0.009363916945642103,0.8858163935827315,0.016546237071041876,0.005944384280648227
0.027000000000000024,0.0066,0.804,0.009356595870066268,0.8858829355948931,0.016524588173631644,0.0059464260040449895
0.028000000000000025,0.0106,-0.196,0.00929595609354184,0.8903566152557478,0.01634527240406222,0.00608369291462475
0.029000000000000026,0.0023,1.804,0.009284265309464664,0.8904228179735629,0.01631070199394825,0.006085724227377421
0.030000000000000027,-0.0064,0.804,0.009282758781250223,0.8904890157695884,0.016306247091875156,0.006087755389113724
0.031000000000000028,-0.0031,-0.196,0.009277047177422882,0.9103545728291115,0.016289357507274484,0.006697294706013689
0.03200000000000003,0.0016,0.804,0.009120309772311888,0.9297957890501859,0.01582587478968117,0.007293813878347571
0.03300000000000003,-0.0027,0.804,0.0091375608150899,0.92985918384117,0.01587688724699734,0.007295759034855171
0.03400000000000003,-0.0068,1.804,0.009259622136597895,0.9364441039906964,0.01623783052639828,0.00749780560811545
0.03500000000000003,-0.0061,0.804,0.009185318139244414,0.936507048738688,0.016018108765679776,0.007499736955853559
0.03600000000000003,-0.001,-0.19600000000000695,0.009121215569117125,0.943045550576651,0.015828553289842517,0.007700359265709732
0.03700000000000003,-0.0006,-1.196,0.008647881053972213,0.9431080547321858,0.014428872293116053,0.007702277094651251
0.038000000000000034,-0.0003,0.804,0.008522373789150292,0.9496011062682579,0.014057739134849371,0.007901504842759949
0.039000000000000035,0.0012,-0.196,0.008509266730390963,0.9560500610067816,0.014018980708236864,0.00809937955899672
0.040000000000000036,0.0055,0.804,0.008484856772751409,0.9561117150152381,0.013946798873306611,0.008101271302685866
0.041000000000000036,-0.0017,-0.196,0.008132546223132213,0.9625170490513668,0.012904993626762791,0.008297807595184463
0.04200000000000004,-0.0042,0.804,0.008026855447267127,0.9625782888434895,0.012592459117289408,0.008299686629381476
0.04300000000000004,0.002,-0.196,0.007804180740192488,0.9626395247397487,0.01193399550229487,0.00830156554404084
0.04400000000000004,0.0027,-0.196,0.0077824524013912575,0.9667580779815681,0.011869743388963972,0.00842793603151888
0.04500000000000004,0.0063,-1.196,0.00778064698463416,0.9668190491404918,0.011864404653999112,0.008429806823183547
0.04600000000000004,0.0042,-1.196,0.007781053089110848,0.9731539096700461,0.011865605531392409,0.008624180761365667
0.04700000000000004,-0.0038,-0.196,0.007735849220374225,0.973214480134983,0.011731934746725885,0.00862603925844739
0.04800000000000004,0.0016,-0.196,0.007690612142734195,0.9772884687214167,0.011598165761168589,0.008751042358667157
0.049000000000000044,0.0107,-0.196,0.007680567790774256,0.9835559004047625,0.01156846395808234,0.008943347362525705
0.050000000000000044,0.002,-1.196,0.007664990423826843,0.9836158303216415,0.011522400669229101,0.008945186205528538
0.051000000000000045,0.0053,-1.196,0.007695918604063105,0.9796283312288363,0.011613857313008336,0.008822836881727292
0.052000000000000046,0.0028,-1.196,0.0076934585481505165,0.991542722370351,0.011606582767414128,0.009188408801805744
0.05300000000000005,0.0053,-1.196,0.007681337067540236,1.0033156398786074,0.011570738759593989,0.00954963985484899
0.05400000000000005,0.010799999999999373,-0.196,0.007686728684780151,1.0209305274362668,0.011586682123010072,0.01009012137756664
0.05500000000000005,-0.0005000000000002553,1.804,0.0077233444920557625,1.0247573254992768,0.011694957450465922,0.010207539875837396
0.05600000000000005,-0.005099999999999922,-0.196,0.0077233444920557625,1.0247573254992768,0.011694957450465922,0.010207539875837396
0.05700000000000005,-0.003700000000000983,-0.196,0.007730496509134528,1.022636027524312,0.011716106430886981,0.01014245161706232
0.05800000000000005,-0.021399999999999877,2.804,0.007659499216485841,1.0264564672229617,0.011506162811396289,0.010259675020221612
0.05900000000000005,-0.01919999999999913,-0.19599999999999307,0.007575054864603709,1.022636027524312,0.011256455361741753,0.01014245161706232
0.06000000000000005,-0.0036000000000000996,0.804,0.007590842835549018,0.9849505450348413,0.0113031414203366,0.008986139554689725
0.061000000000000054,-0.0054000000000007055,-1.196,0.007653127316427735,0.9666802509300353,0.011487320687826152,0.008425548046742741
0.062000000000000055,-0.018099999999999374,0.804,0.007655515143383531,1.0050510316219923,0.011494381647689761,0.009602887266670728
0.06300000000000006,-0.006799999999999072,0.804,0.007674866453429732,1.0089380607735878,0.011551604732140166,0.009722153848862946
0.064,0.0099,0.804,0.007670858539879933,1.006783432076553,0.011539753070677327,0.009656042896110472
0.065,0.0255,-0.196,0.007679435202408512,1.0007203972224112,0.011565114820502207,0.009470009445739011
0.066,0.0313,-1.196,0.007569875736712117,1.006783432076553,0.011241140343171306,0.009656042896110472
0.067,0.0074,0.804,0.007571704130003377,1.0089380607735878,0.011246547021244498,0.009722153848862946
0.068,-0.0024,1.804,0.007548643070814421,1.0149520068281213,0.01117835396690684,0.009906681096650154
0.069,0.0063,-0.196,0.007579039827316909,1.014952006828121,0.011268239156085635,0.009906681096650147
0.07,-0.0016,0.804,0.007679591593801526,1.0188012615213855,0.011565577280039492,0.010024788636714405
0.07100000000000001,0.0005,-1.1959999999999862,0.007679591593801526,1.0593862099589988,0.011565577280039492,0.011270065659299795
0.07200000000000001,-0.0107,-0.196,0.007685806417607638,1.0556849471021905,0.011583954918899724,0.011156498985752897
0.07300000000000001,-0.0205,-0.196,0.00767798268227942,1.0577399675307158,0.011560819623855858,0.011219553635791933
0.07400000000000001,-0.0079,0.804,0.007726341076066472,1.059791003115994,0.011703818544598473,0.01128248601799708
0.07500000000000001,-0.0064,0.804,0.008191476034090123,1.056091158931116,0.013079252916756077,0.011168962873877353
0.07600000000000001,0.0012,-0.196,0.008265146014757828,1.0428327294726274,0.01329709984883164,0.01076215152642413
0.07700000000000001,-0.0053,0.804,0.008276659161498737,1.059791003115994,0.013331144973770057,0.01128248601799708
0.07800000000000001,0.006,-0.196,0.008255451031812154,1.056091158931116,0.013268431152680267,0.011168962873877353
0.07900000000000001,-0.0045,-0.196,0.008188447468147326,1.056091158931116,0.013070297249966877,0.011168962873877353
0.08000000000000002,-0.0056,1.804,0.008205689179222845,1.056091158931116,0.013121282112830859,0.011168962873877353
0.08100000000000002,0.0005,1.804,0.008183524802758076,1.0523783072922637,0.013055740607723142,0.01105504061914692
0.08200000000000002,0.006,-0.196,0.008178824587840748,1.0523783072922637,0.013041841766016447,0.01105504061914692
0.08300000000000002,0.015,-1.196,0.008179462078463198,1.0486523100371221,0.013043726867316446,0.01094071501454066
0.08400000000000002,-0.0038,-0.196,0.008343558014476074,1.050721085121983,0.013528969240159144,0.011004191701767073
0.08500000000000002,-0.0013,-1.196,0.00833379378010053,1.039485207100373,0.013500095763018251,0.010659438751042223
0.08600000000000002,0.0008,-0.19600000000001389,0.008344123094427187,1.039485207100373,0.013530640218386797,0.010659438751042223
0.08700000000000002,0.004,-1.196,0.008395312690898446,1.0564972145759688,0.013682011189905708,0.011181421969771083
0.08800000000000002,0.0019,-1.196,0.008399468875918085,1.067554058278171,0.013694301299764032,0.011520681570552289
0.08900000000000002,-0.004,-0.196,0.00844243083746068,1.063881211899644,0.013821342618808458,0.011407986806144826
0.09000000000000002,-0.0021,-1.196,0.008468236401249472,1.069586274556624,0.013897651352038964,0.011583036515769765
0.09100000000000003,-0.0007,-0.196,0.008452829194341878,1.0659204306170231,0.013852091237508569,0.011470556608757287
0.09200000000000003,0.0007,-0.196,0.008458389436684952,1.0716146369351454,0.013868533236339802,0.011645273210916293
0.09300000000000003,0.0018,0.804,0.008459936383228566,1.088518546995975,0.013873107658045317,0.012163939652564213
0.09400000000000003,0.0007,-0.196,0.008467963006148611,1.088518546995975,0.01389684290491536,0.012163939652564213
0.09500000000000003,-0.0026,-1.196,0.008464161384768524,1.088518546995975,0.013885601262837286,0.012163939652564213
0.09600000000000003,-0.0051,-0.196,0.008459249101068328,1.088518546995975,0.0138710753199244,0.012163939652564213
0.09700000000000003,0.001,0.804,0.00844985732987351,1.1031972592610497,0.01384330324067308,0.012614329854068058
0.09800000000000003,-0.0012,-1.196,0.008443595313172795,1.1067396383767183,0.013824786049349114,0.012723021462357504
0.09900000000000003,0.001,-0.196,0.008471805384668664,1.11027071539664,0.013908205068511438,0.012831366285922997
0.10000000000000003,-0.007,-0.196,0.008594465699789786,1.1137905978147347,0.01427091961104792,0.012939367623024445
0.10100000000000003,-0.0005,1.804,0.008654734645651408,1.1118391810000126,0.014449138810189615,0.012879491865769371
0.10200000000000004,-0.0013,1.804,0.008650339616333021,1.1223509555153373,0.014436142422180347,0.013202026987149517
0.10300000000000004,-0.0035,1.8039999999999863,0.008668855274062637,1.1223509555153375,0.014490894428291925,0.013202026987149524
0.10400000000000004,-0.0086,0.8039999999999862,0.008664467407400487,1.1169154406933983,0.014477919220723763,0.013035247873851205
0.10500000000000004,-0.005,-0.196,0.008646258063306737,1.1169154406933983,0.014424073003988284,0.013035247873851205
0.10600000000000004,-0.0036,0.804,0.008680432039531076,1.1008375143648828,0.014525127677952101,0.012541925275240591
0.10700000000000004,-0.0011,0.804,0.008666323893037488,1.104387462508603,0.01448340896969339,0.012650849125705495
0.10800000000000004,0.0025,-0.196,0.008689190455205985,1.1079260361862286,0.014551026883671016,0.01275942397089093
0.10900000000000004,0.0094,0.804,0.008425855641081169,1.0695862745566231,0.013772328683320765,0.011583036515769737
0.11000000000000004,0.0101,-0.196,0.00822738927644337,1.0901183101359417,0.013185450713967808,0.012213025541704663
0.11100000000000004,-0.0019,2.804,0.008235189960302074,1.0865217419732125,0.013208517844314635,0.012102671238801124
0.11200000000000004,0.006,0.804,0.008221226194489985,1.0865217419732125,0.013167226079136816,0.012102671238801124
0.11300000000000004,0.0075,0.804,0.008114355550491779,1.0885185469959753,0.012851202622731123,0.01216393965256422
0.11400000000000005,0.0038,-0.196,0.008112506478316347,1.0905116957318497,0.012845734795850305,0.012225095879661438
0.11500000000000005,0.0074,-1.196,0.008055937366168341,1.0925012081923202,0.012678456246025958,0.012286140534109615
0.11600000000000005,0.002000000000000039,-1.196,0.007741857641486868,1.1126104535170451,0.011749702039375401,0.012903156992388632
0.11700000000000005,0.0027000000000002387,-1.196,0.007160168307446316,1.1498891914654776,0.01002960878438475,0.014046988821312226
0.11800000000000005,0.0070000000000003,-1.1959999999999722,0.0071237207464598246,1.1878263405888003,0.009921830972166255,0.015211022827128188
0.11900000000000005,0.012399999999999379,0.8039999999999445,0.007185571868987183,1.1727210012489355,0.010104728770779652,0.014747542331958807
0.12000000000000005,0.0012000000000002608,-3.196,0.007204957376059811,1.1878263405888003,0.01016205297806497,0.015211022827128188
0.12100000000000005,0.005899999999999572,-0.196,0.00723817837081757,1.1878263405888003,0.010260289623749998,0.015211022827128188
0.12200000000000005,-0.0018000000000004996,-1.196,0.007246051257149138,1.1976713732639654,0.010283570261512722,0.015513100159955927
0.12300000000000005,-0.010800000000000911,-1.196,0.007196872813753025,1.2124659116702063,0.010138146400653868,0.015967044280776208
0.12400000000000005,-0.02719999999999913,-0.196,0.006898383839210328,1.2174749084269154,0.009255495057825264,0.01612073644517363
0.12500000000000006,-0.011599999999999899,0.804,0.006880958729304366,1.2174749084269154,0.009203967872672122,0.01612073644517363
0.12600000000000006,-0.009799999999999295,1.804,0.006862755938337237,1.217474908426915,0.009150141033958965,0.016120736445173617
0.127,0.0029,-0.196,0.006862438844872639,1.2224633811840695,0.009149203367927052,0.016273798867116246
0.128,0.0014,-0.196,0.006893366976401487,1.219257267365198,0.009240659867675294,0.01617542496190921
0.129,0.0058,1.804,0.006867370052553532,1.2242384774665893,0.009163785270283664,0.01632826454216562
0.13,0.0022,-0.196,0.006871572958938211,1.2387157536481028,0.009176213538262082,0.01677247403540113
0.131,-0.0014,-0.196,0.006848742318026653,1.2291995018696418,0.00910870184578132,0.01648048476013887
0.132,0.0019,-0.196,0.00684862899923503,1.2178271556684217,0.009108366754732321,0.016131544525829225
0.133,0.0167,-1.196,0.00683249141567026,1.2358989086722114,0.009060646868846167,0.016686044152902826
0.134,0.0055,-1.196,0.006750011943748596,1.2358989086722114,0.008816749697237112,0.016686044152902826
0.135,0.0074,0.804,0.006743204172535068,1.2408133131716574,0.008796618674265505,0.016836833921978364
0.136,-0.0093,1.804,0.0067430170248396525,1.239061962441871,0.0087960652663384,0.016783096837018317
0.137,-0.0027,1.804,0.0068118022683404614,1.2390619624418708,0.008999467712394566,0.01678309683701831
0.138,-0.0085,-0.196,0.006889923959127874,1.2341405840030697,0.00923047864130138,0.01663209308500648
0.139,-0.0067,-1.196,0.00695375515033846,1.2341405840030697,0.009419231632002931,0.01663209308500648
0.14,-0.002,-0.196,0.007126149292026542,1.2675126366324125,0.009929012339614978,0.017656055217167687
0.14100000000000001,-0.0035,-1.1960000000000277,0.00713977098141554,1.2657982274632578,0.009969292562525099,0.017603451618349766
0.14200000000000002,-0.0045,-2.1959999999999447,0.007147450534503069,1.279805462277529,0.009992001501290478,0.01803323872750387
0.14300000000000002,0.0042,-0.196,0.00716119685282592,1.279805462277529,0.010032650260076971,0.01803323872750387
0.14400000000000002,0.0009,-0.19600000000002776,0.007159397985661464,1.279805462277529,0.010027330892684224,0.01803323872750387
0.14500000000000002,0.0056,-1.196,0.00715913532972125,1.282860263469306,0.010026554201958252,0.01812696987363392
0.14600000000000002,0.0013,-2.196,0.007155084627437447,1.282860263469306,0.010014576011421483,0.01812696987363392
0.14700000000000002,0.002,0.804,0.0071572905328373074,1.2859078076991657,0.010021099017392884,0.01822047835278329
0.14800000000000002,0.0071,0.804,0.0071638126867300716,1.282860263469306,0.010040385451340412,0.01812696987363392
0.14900000000000002,0.018,0.804,0.007163502242626913,1.2781075423850978,0.010039467447903447,0.017981141072840455
0.15000000000000002,0.0104,0.804,0.007162888752308055,1.282860263469306,0.010037653317064674,0.01812696987363392
0.15100000000000002,-0.0045,1.804,0.007146620287708695,1.2966832011770693,0.00998954640743297,0.01855110215357427
0.15200000000000002,-0.0063,-1.196,0.0071835030555966834,1.2859078076991657,0.010098611154810807,0.01822047835278329
0.15300000000000002,-0.0045,-0.196,0.007185637001489388,1.2719677752503795,0.010104921371831738,0.017792753228794218
0.15400000000000003,-0.0092,-0.196,0.007189990990182746,1.2609812000828018,0.010117796400039196,0.01745564969312945
0.15500000000000003,-0.0077,-0.196,0.007161656697138401,1.257873265734321,0.010034010049665597,0.017360288250504573
0.15600000000000003,0.0013,0.804,0.007174629557763845,1.257873265734321,0.010072371643653849,0.017360288250504573
0.15700000000000003,-0.0073,0.804,0.007210184571887512,1.2547576333045312,0.010177510136653883,0.017264690605934364
0.15800000000000003,0.0028,-0.196,0.0072395840279409224,1.2516342453060523,0.010264446243435482,0.017168854995520726
0.15900000000000003,-0.0062,-2.196,0.007241573878277423,1.2547576333045312,0.010270330360509592,0.017264690605934364
0.16000000000000003,0.0051,-0.196,0.007210840358048636,1.2547576333045312,0.01017944933905361,0.017264690605934364
0.16100000000000003,-0.0025,-1.196,0.007140608864376064,1.257873265734321,0.009971770237023371,0.017360288250504573
0.16200000000000003,0.0124,-1.196,0.007139868570804028,1.2274315801798692,0.009969581140704332,0.016426239224718555
0.16300000000000003,0.0066,-1.196,0.007118469510460978,1.2242384774665895,0.009906302725225163,0.016328264542165627
0.16400000000000003,-0.0025,-1.196,0.007078984795000711,1.2260110036551215,0.009789543849371862,0.01638265135844809
0.16500000000000004,0.0124,-2.196,0.007069430651972492,1.229199501869642,0.00976129162603144,0.016480484760138876
0.16600000000000004,0.0106,-3.196,0.007037603344948385,1.2387157536481033,0.009667176205766802,0.016772474035401143
0.16700000000000004,0.0016,-3.196,0.007070653231885413,1.2387157536481033,0.009764906874479087,0.016772474035401143
0.16800000000000004,-0.0097,-0.196,0.007065566856664477,1.2369614330941217,0.009749866131598155,0.0167186458266631
0.16900000000000004,-0.0082,1.804,0.0071831973805593806,1.2320316640717481,0.01009770725381226,0.016567384624504577
0.17000000000000004,-0.0071,0.804,0.007274876752677214,1.243274087073538,0.010368809129630169,0.016912338396315695
0.17100000000000004,-0.0034,1.804,0.007359809593565993,1.2038337752895751,0.010619961073100046,0.015702182515406535
0.17200000000000004,-0.0066,1.8039999999999168,0.007450719242432287,1.2221124702340929,0.01088878682711942,0.01626303178819162
0.17300000000000004,-0.0001,-1.1959999999999444,0.007494749610137259,1.2171225592415966,0.011018987492787465,0.016109925236553305
0.17400000000000004,-0.0062,0.804,0.007463637182834962,1.2171225592415968,0.010926986018431159,0.016109925236553312
0.17500000000000004,-0.004,0.8039999999999445,0.006952189912831759,1.2171225592415968,0.009414603122728,0.016109925236553312
0.17600000000000005,0.001,-1.196,0.007137220137472176,1.2189054334067675,0.009961749550809485,0.016164629562110382
0.17700000000000005,-0.0084,-0.196,0.00775536192870891,1.2041900128145329,0.011789635096429654,0.01571311303081903
0.17800000000000005,0.0003,-1.196,0.007919295044774843,1.2041900128145329,0.012274396000082313,0.01571311303081903
0.17900000000000005,-0.0051,1.804,0.007987237176987568,1.2074361354851866,0.012475305311135011,0.01581271453654651
0.18000000000000005,-0.0004,-1.196,0.008013473914611602,1.1958568421689382,0.012552889053485209,0.01545742449776117
0.18100000000000005,0.0003,0.804,0.008010873797108402,1.1958568421689382,0.012545200336643228,0.01545742449776117
0.18200000000000005,-0.0037,-2.196,0.008025773763575435,1.1991255235693226,0.012589260508146639,0.01555771817802315
0.18300000000000005,-0.0106,-1.196,0.00807045341163325,1.1991255235693226,0.012721381138115497,0.01555771817802315
0.18400000000000005,-0.0023,-1.196,0.007900271534253342,1.1973131962446906,0.012218142240180987,0.01550211013460683
0.18500000000000005,-0.0012,0.804,0.007902412199403597,1.195498121507496,0.012224472326484222,0.015446417791718233
0.18600000000000005,0.0097,-0.196,0.00793872491539669,1.2106735545094467,0.012331851393272742,0.015912048986350954
0.18700000000000006,0.0111,-0.196,0.007890462245908399,1.200935115919726,0.012189135535517533,0.015613242303615363
0.18800000000000006,0.0096,-1.196,0.007990809333617928,1.1859967470540764,0.012485868410999627,0.015154885000737582
0.18900000000000006,0.0161,2.804,0.0079453727944778,1.200935115919725,0.012351509604792595,0.015613242303615337
0.19000000000000006,0.0049,0.804,0.007929682864965587,1.1958568421689366,0.012305113461102336,0.015457424497761123
0.19100000000000006,0.0034,1.804,0.007933235998400361,1.1958568421689366,0.012315620308138334,0.015457424497761123
0.19200000000000006,0.0045,-0.196,0.007928012025600178,1.2056363008393833,0.012300172680251758,0.015757489808780327
0.19300000000000006,0.0008,0.804,0.007935032309036149,1.2217614584964456,0.012320932115709267,0.016252261616776426
0.19400000000000006,-0.0003,0.804,0.007924000884338266,1.2249610180656767,0.012288311474233928,0.016350434416480274
0.19500000000000006,-0.001,-1.196,0.007978034179365441,1.2281522422296172,0.012448091447635819,0.016448351459084947
0.19600000000000006,-0.0054,0.804,0.008026260387119039,1.223186970338866,0.012590699485666233,0.01629600091449953
0.19700000000000006,-0.0032,-0.196,0.008056678265889771,1.2049245756615012,0.012680647134768241,0.015735651786446148
0.19800000000000006,-0.001,-0.196,0.00809179075344124,1.2164175546851443,0.012784477047865828,0.01608829342454503
0.19900000000000007,-0.0003,-1.196,0.00809845299824625,1.218201460645944,0.012804177739767112,0.016143029408917455
0.20000000000000007,0.0051,1.804,0.007898716605132444,1.2149841004748885,0.012213544213474418,0.016044310429378636
0.20100000000000007,0.0073,0.804,0.007907163958374944,1.2117581978652492,0.012238523587316493,0.01594532934029195
0.20200000000000007,0.0022,-0.196,0.007919474246345457,1.2020285467301617,0.012274925910800729,0.015646792284986305
0.20300000000000007,-0.0043,0.804,0.007929714499185258,1.1969549120444603,0.012305207005550718,0.01549111682060058
0.20400000000000007,0.0058,-0.196,0.007919620801166542,1.2020285467301617,0.012275359282954009,0.015646792284986305
0.20500000000000007,-0.0066,-0.196,0.007888048201685269,1.2052804907851788,0.012181997049486493,0.015746572409548274
0.20600000000000007,-0.008,-0.196,0.007852073382344072,1.2103192253096802,0.012075617165109954,0.015901177024505823
0.20700000000000007,-0.0066,-0.19599999999997225,0.00786574950211044,1.2070808559666113,0.012116058342191831,0.015801813415857468
0.20800000000000007,-0.003,0.804,0.007841335136674845,1.2221124702340922,0.012043863473121537,0.016263031788191603
0.20900000000000007,-0.0066,0.804,0.007869274709660696,1.2270820899958312,0.012126482610568074,0.016415515739472034
0.21000000000000008,0.0009999999999997114,0.804,0.007884276276901674,1.2270820899958312,0.012170843222178837,0.016415515739472034
0.21100000000000008,-0.0016000000000000777,0.804,0.007876018736567916,1.230267812267587,0.012146425137473299,0.016513263966291988
0.21200000000000008,-0.002299999999999756,-0.196,0.007893262074438013,1.2253111132340277,0.012197414810874822,0.016361176464595374
0.21300000000000008,-0.00010000000000008883,-1.196,0.007804163427276283,1.2235375731219238,0.0119339443068738,0.016306758537869864
0.21400000000000008,-0.0009000000000002442,0.804,0.007788677226231021,1.2217614584964456,0.011888150601532234,0.016252261616776426
0.21500000000000008,-0.003100000000000444,1.804,0.007798872935827509,1.231335195796325,0.011918299979009974,0.01654601473311055
0.21600000000000008,-0.00709999999999919,-1.196,0.007700521002390356,1.2278029571797437,0.011627466904685902,0.016437634268015738
0.21700000000000008,0.0001999999999983458,0.804,0.007630305429064322,1.191139722665596,0.011419834880157508,0.015312688068211898
0.21800000000000008,-0.014700000000000244,-0.196,0.007635735353069814,1.149912667054018,0.011435891519174905,0.014047709128030024
0.21900000000000008,-0.016899999999999367,1.804,0.007578140458610841,1.165313696168358,0.011265579664232294,0.014520262338482836
0.22000000000000008,-0.0112000000000002,-0.196,0.0075551383130959705,1.149912667054018,0.011197560821466846,0.014047709128030024
0.22100000000000009,-0.012999999999999477,-2.196,0.0075254561931363114,1.149912667054018,0.011109788859100292,0.014047709128030024
0.2220000000000001,-0.008299999999998146,-0.196,0.007551283055073559,1.1343025492455752,0.011186160572343255,0.013568740402553233
0.2230000000000001,0.008399999999999267,-1.196,0.007528212265671926,1.1239025626296977,0.011117938745132833,0.01324963529421841
0.22399999999999998,0.0018,-0.196,0.007530828486790623,1.1219687334823005,0.011125675081414911,0.013190299183281583
0.22499999999999998,0.0199,-1.196,0.007561487628368233,1.118474588266868,0.011216336160353954,0.013083087546508327
0.22599999999999998,0.0319,-0.196,0.0075667965739088325,1.1149694929842715,0.011232035058169505,0.012975539926382618
0.22699999999999998,0.0163,-0.196,0.007578292762143653,1.1094978164010691,0.011266030035700654,0.012807651253700073
0.22799999999999998,0.0105,0.804,0.0075338878873830286,1.1094978164010691,0.011134721928271732,0.012807651253700073
0.22899999999999998,0.0087,0.804,0.007535111388179353,1.1200315654204362,0.011138339899831593,0.013130860623687648
0.22999999999999998,0.0008,-0.196,0.007542362039041287,1.1200315654204362,0.011159780546774993,0.013130860623687648
0.23099999999999998,0.0051,0.804,0.007614822280875816,1.1180910410894223,0.011374050202312249,0.013071319082939008
0.23199999999999998,0.0087,-0.196,0.007617167748191963,1.1343025492455776,0.011380985901961889,0.013568740402553308
0.23299999999999998,0.0026,0.804,0.007747164078728685,1.1180910410894218,0.01176539351998805,0.013071319082938994
0.23399999999999999,0.0058,0.804,0.007736611657632069,1.1126347156535987,0.011734189323366413,0.012903901432934501
0.235,0.0106,-2.1959999999999726,0.007733380011335062,1.1071515003786527,0.011724633134740115,0.012735658716000277
0.236,-0.0032,-1.1959999999999722,0.007778051703051193,1.1071515003786532,0.011856730237288296,0.01273565871600029
0.237,-0.0129,-0.1959999999999445,0.007720942825935985,1.1231390445608092,0.01168785556729287,0.013226208099060647
0.238,-0.0002,1.8039999999999445,0.007704932207160116,1.165313696168356,0.011640511124558632,0.014520262338482776
0.239,0.0045,-0.196,0.0076606529964573,1.200957593693996,0.01150957461393505,0.015613931994175411
0.24,-0.0031,-0.196,0.007593211789482804,1.1708908593881515,0.011310146571444638,0.014691387681157433
0.241,-0.002,1.804,0.007718505139512372,1.1863810946147582,0.011680647169734822,0.015166678022644198
0.242,-0.0056,2.804,0.007818027221944678,1.2117581978652443,0.01197494045086708,0.015945329340291796
0.243,-0.0002,0.804,0.007840022710539574,1.2167701080238975,0.012039982543541357,0.016099110897250704
0.244,-0.0093,0.804,0.007839865490862307,1.2167701080238975,0.012039517634713582,0.016099110897250704
0.245,-0.0104,-0.196,0.007882694984391647,1.2281522422296125,0.012166167237213166,0.016448351459084805
0.246,-0.0071,-0.196,0.007970060417611937,1.237676546207868,0.012424512514678888,0.01674058780178885
0.247,0.0078,1.804,0.007972153711892126,1.2488681545087832,0.012430702522233354,0.01708398241480231
0.248,-0.0078,-1.196,0.007965741727218105,1.251998443153709,0.01241174186584264,0.017180029759289592
0.249,-0.002,-0.196,0.007965741727218105,1.2568498984947145,0.01241174186584264,0.017328888045300233
0.25,-0.011,-0.196,0.007965741727218105,1.2551209248404906,0.01241174186584264,0.017275837561139335
0.251,-0.0063,-1.196,0.007953443205381704,1.258576496967864,0.012375374335583481,0.017381865651250605
0.252,0.0075,-0.196,0.007967491701168882,1.2603007300218565,0.012416916652817382,0.017434770678517543
0.253,0.0021,-1.196,0.007964876572881238,1.2603007300218565,0.012409183548107923,0.017434770678517543
0.254,-0.0059,0.804,0.007956205397809321,1.2603007300218565,0.012383542318535355,0.017434770678517543
0.255,0.0017,-1.196,0.00793637991956982,1.2603007300218565,0.012324917087847607,0.017434770678517543
0.256,-0.0048,-0.196,0.007911815321951017,1.265120348338642,0.012252277972424671,0.017582652102014987
0.257,0.0039,-2.196,0.007911815321951017,1.2682105227814602,0.012252277972424671,0.017677468613494295
0.258,0.0072,-1.196,0.007914378903888148,1.273000194729163,0.01225985865121767,0.0178244311858717
0.259,0.0079,-2.196,0.007949125058467604,1.2699216753277935,0.012362605293852203,0.01772997228862802
0.26,0.0036,0.804,0.007967995612585401,1.2668356748821894,0.01241840675170341,0.01763528384883595
0.261,0.0058,-0.196,0.007969171015586345,1.2811663920876164,0.012421882494948994,0.01807499644032833
0.262,0.0037,0.804,0.007977021457833048,1.2781075423850932,0.012445096764090648,0.017981141072840313
0.263,0.0044,0.804,0.007976403893308238,1.2781075423850932,0.012443270585559458,0.017981141072840313
0.264,-0.0047,1.804,0.007985866418899364,1.2781075423850932,0.012471251890169966,0.017981141072840313
0.265,-0.001,1.804,0.008071884862158965,1.2798054622775243,0.012725614030572081,0.018033238727503724
0.266,-0.0021,0.804,0.008068149617189033,1.2688867510389767,0.012714568667862936,0.017698217475905758
0.267,0.0033,-0.196,0.008044308747950334,1.2640814931306399,0.012644069664407355,0.017550776676022842
0.268,0.0026,1.804,0.008082129450194842,1.2657982274632529,0.012755907944779285,0.017603451618349617
0.269,-0.0057,-0.196,0.007954421036768838,1.2688867510389767,0.012378265846696197,0.017698217475905758
0.27,-0.0024,0.804,0.007772581587097769,1.254757633304526,0.011840554748062553,0.017264690605934208
0.271,-0.0071,-0.196,0.0076923686291006385,1.257873265734316,0.011603359805780714,0.017360288250504417
0.272,0.003,-1.196,0.007584970408497149,1.2401217767926616,0.011285776270984144,0.016815615357062132
0.273,0.002,0.804,0.007551045992038619,1.2401217767926613,0.011185459561505432,0.016815615357062125
0.274,-0.0092,-0.196,0.007506264784218263,1.2401217767926613,0.011053038612702614,0.016815615357062125
0.275,-0.0049,-0.196,0.00751432459893514,1.2401217767926616,0.011076872009878174,0.016815615357062132
0.276,0.0043,-0.196,0.007253474932284439,1.238369448065343,0.01030552255250416,0.016761848263985732
0.277,-0.0019,-0.196,0.0065365583493140035,1.238369448065343,0.008185553513029863,0.016761848263985732
0.278,0.0014,1.804,0.006341694131389986,1.238369448065343,0.007609327326171906,0.016761848263985732
0.279,0.0061,1.804,0.006260139762260008,1.238369448065343,0.007368165743783819,0.016761848263985732
0.28,0.0105,0.804,0.0062615354289352896,1.2401217767926613,0.007372292821063526,0.016815615357062125
0.281,-0.0019,-2.196,0.006270881459742399,1.2432740870735322,0.007399929643008629,0.016912338396315518
0.28200000000000003,-0.0146,0.8039999999999445,0.006251334815509587,1.2401217767926613,0.007342128942643339,0.016815615357062125
0.28300000000000003,-0.0098,-0.196,0.006196075032134185,1.2401217767926613,0.0071787221632959855,0.016815615357062125
0.28400000000000003,0.0006,-0.1959999999999445,0.006191666227023549,1.2369614330941163,0.007165685039371611,0.016718645826662937
0.28500000000000003,-0.0084,0.8040000000000556,0.006164553329272731,1.2337929942454338,0.007085510434448941,0.01662142791096701
0.28600000000000003,-0.0023,1.8039999999997225,0.006081968592865677,1.2156899363223292,0.006841301988899117,0.016065967748073673
0.28700000000000003,-0.0099,-3.196,0.006101226414438765,1.210673554509442,0.00689824862184421,0.01591204898635081
0.28800000000000003,0.0049,-3.195999999999889,0.005964950747953603,1.2156899363223295,0.006495272598350299,0.01606596774807368
0.28900000000000003,0.0125,-1.196,0.005970099807763214,1.205992005917112,0.006510498703643539,0.015768403986995767
0.29000000000000004,0.0147,-2.196,0.005982489356214343,1.2110277800376184,0.006547135405532388,0.015922917767217423
0.29100000000000004,0.0129,-3.196,0.006043476963655534,1.216042700611169,0.0067274797337821745,0.01607679169340789
0.29200000000000004,0.0074,-1.196,0.006040137367735351,1.216042700611169,0.006717604331087753,0.01607679169340789
0.29300000000000004,-0.0006,0.804,0.006024704077475752,1.1812174002994928,0.006671967086386274,0.015008239238562973
0.29400000000000004,-0.0082,1.804,0.006062786913290455,1.1812174002994928,0.006784580512801998,0.015008239238562973
0.29500000000000004,-0.0118,1.804,0.006037463656165323,1.1812174002994926,0.006709697991795868,0.015008239238562966
0.29600000000000004,-0.0057,1.804,0.0059477050577433875,1.1812174002994926,0.006444275968925799,0.015008239238562966
0.29700000000000004,-0.0003,0.804,0.0059084579864666495,1.184526479688583,0.006328219822404556,0.015109772459320398
0.29800000000000004,-0.001,-1.196,0.0059595278201069685,1.1745712741864645,0.006479236647430411,0.014804314669076795
0.29900000000000004,-0.0003,0.804,0.005959214802705448,1.1745712741864636,0.006478311034582553,0.014804314669076769
0.30000000000000004,-0.0025,-2.196,0.0060457320134026,1.1778990247288388,0.00673414806278978,0.01490642078099375
0.30100000000000005,0.0087,-1.196,0.006000723611051019,1.1812174002994906,0.006601055284957511,0.015008239238562905
0.30200000000000005,0.0008,-0.196,0.0059750309333145395,1.1793775542194114,0.006525080363137668,0.014951786831037038
0.30300000000000005,0.0022,0.804,0.005934477118437865,1.1793775542194114,0.0064051600906634195,0.014951786831037038
0.30400000000000005,-0.0014,-0.196,0.005931625556004787,1.1742060507890846,0.006396727834783375,0.014793108438137095
0.30500000000000005,0.0022,-1.196,0.005970135540280687,1.1742060507890846,0.006510604367025505,0.014793108438137095
0.30600000000000005,-0.008,0.804,0.005969663613325727,1.16901166975477,0.0065092088482759415,0.014633728086612728
0.30700000000000005,-0.0069,-1.196,0.005950380776615819,1.1723552014368226,0.00645218824394166,0.014736318414757322
0.30800000000000005,-0.008,-0.196,0.005951203297557449,1.1585530426567057,0.0064546204919492985,0.014312823699287245
0.30900000000000005,0.0086,-0.196,0.005914806516342803,1.1532881630200875,0.0063469928388242055,0.014151280223428542
0.31000000000000005,0.0017,-2.196,0.0058730900193783245,1.1532881630200875,0.006223634439673234,0.014151280223428542
0.31100000000000005,0.0039,-0.196,0.005893895668551156,1.155169562590693,0.0062851580996642125,0.014209007625969869
0.31200000000000006,0.0021,-0.196,0.0058657255924268485,1.155169562590693,0.0062018573494210995,0.014209007625969869
0.31300000000000006,0.0039,-1.196,0.005861740708370679,1.1517761431905227,0.006190073787671178,0.014104886581846247
0.31400000000000006,0.0118,-1.196,0.005897263923942925,1.1536600085798938,0.0062951182502831386,0.014162689643654589
0.31500000000000006,-0.0019,0.804,0.005950151088283536,1.1415353612934744,0.006451509040580018,0.013790666387398894
0.31600000000000006,0.0035,-0.196,0.005949301029234372,1.1258090923674176,0.006448995360594425,0.013308133771280855
0.31700000000000006,-0.0078,-1.196,0.005978962048345961,1.1419110339767002,0.006536704926378619,0.013802193236106198
0.31800000000000006,-0.0034,0.804,0.005982561632299293,1.1453336823087295,0.006547349130624019,0.013907211118063543
0.31900000000000006,0.0002,-0.196,0.0059826655660784964,1.1350347751903735,0.006547656469579905,0.013591207454489985
0.32000000000000006,0.0013,0.804,0.006059516944763473,1.1350347751903735,0.006774911002845157,0.013591207454489985
0.32100000000000006,0.0023,-0.196,0.006127064844464663,1.1350347751903733,0.006974654542678915,0.01359120745448998
0.32200000000000006,-0.0042,-0.196,0.0060874680204183835,1.1384780960583294,0.006857564154433446,0.01369685963647675
0.32300000000000006,-0.0017,-1.196,0.006087099300768548,1.1331199448945095,0.00685647382640859,0.013532454289551134
0.32400000000000007,-0.0039,-0.196,0.006096416069726327,1.1331199448945095,0.0068840241191589525,0.013532454289551134
0.32500000000000007,-0.0032,0.804,0.006109016305179832,1.1487461330267934,0.0069212838362390635,0.014011916104357716
0.32600000000000007,-0.0053,-0.196,0.006126117097383812,1.152148476741235,0.006971851992819724,0.014116310975206079
0.32700000000000007,0.0038,-0.196,0.006114402452368222,1.1675200131404273,0.006937211024356443,0.014587959254103701
0.32800000000000007,0.0027,0.804,0.006224061452524667,1.1675200131404273,0.0072614798315699,0.014587959254103701
0.32900000000000007,0.0088,-1.196,0.006371287106473684,1.1555408027284393,0.007696835681332888,0.01422039846989585
0.33000000000000007,-0.0035,0.804,0.006358707268098772,1.1434360989828634,0.00765963627974295,0.013848987145750885
0.33100000000000007,0.0012,-0.196,0.006340019329937065,1.1400077535455675,0.0076043748291704455,0.013743794458242298
0.3320000000000001,0.0026,-0.196,0.006356736187227344,1.1238785437419043,0.007653807665199798,0.013248898317328488
0.3330000000000001,-0.0011,-0.196,0.006188365055536423,1.1238785437419045,0.007155923260228904,0.013248898317328495
0.3340000000000001,0.0,-0.196,0.006286491781368443,1.127355939974843,0.007446090380993418,0.013355596041337181
0.3350000000000001,-0.0033000000000002775,-0.196,0.006286741105712115,1.127355939974843,0.007446827649319924,0.013355596041337181
0.3360000000000001,-0.0057999999999995226,-0.196,0.006230992352736156,1.1273559399748425,0.007281974955009731,0.013355596041337167
0.3370000000000001,-0.001499999999999556,-1.196,0.006233395712496898,1.1114290561121283,0.0072890818463894535,0.012866907912384344
0.3380000000000001,0.0024999999999990676,-1.196,0.006169005280251175,1.0671269135907446,0.0070986751435151655,0.011507575394862815
0.3390000000000001,-0.0059000000000003555,-1.196,0.006158521510521606,1.0209040859204785,0.007067673953458191,0.010089310066641752
0.3400000000000001,-0.009099999999999001,-1.196,0.006034633603827986,1.01877476474214,0.006701329342670208,0.010023975630128532
0.3410000000000001,-9.999999999958923e-05,1.804,0.005886025909966237,1.01877476474214,0.006261886710852088,0.010023975630128532
0.3420000000000001,0.003600000000000355,-0.196,0.005748581407213206,0.9884554581978339,0.005855454362370086,0.009093681586799017
0.3430000000000001,0.006800000000000078,0.804,0.005708340517409932,1.0045973116268787,0.00573645942972343,0.009588965674889701
0.3440000000000001,0.007499999999999067,0.8039999999999445,0.0057080977319114825,1.000693421690587,0.005735741497188219,0.009469181749481014
0.3450000000000001,-0.0009000000000001221,-0.1959999999999445,0.005648851476928275,0.9888892866622646,0.005560546461597338,0.009106992842308669
0.3460000000000001,-0.0020000000000009992,0.803999999999889,0.005621244363604678,0.9706931300102664,0.005478910429030214,0.008548676110357431
0.3470000000000001,-0.010999999999997912,-1.196,0.005625449658136244,0.9562513886714049,0.005491345758914553,0.008105556940622611
0.3480000000000001,0.0078000000000002885,-1.195999999999889,0.0056332934109689,0.9521492971287921,0.005514540247023089,0.007979691551131976
0.3490000000000001,0.010399999999999755,0.804,0.005641535321952585,0.9644032284072183,0.0055389121147222855,0.00835568165694229
0.3500000000000001,0.008199999999998757,0.804,0.005796380747245907,0.9603359582193763,0.005996800124741451,0.008230884698844592
0.351,-0.003,0.8039999999999445,0.005871809913703261,0.936964258269974,0.006219849083799409,0.007513765617851066
0.352,0.0028,-0.196,0.0059578026998545665,0.9304463743755144,0.006474135354460859,0.007313775932952818
0.353,0.001,-0.196,0.005958140941963321,0.9304463743755144,0.006475135558411276,0.007313775932952818
0.354,0.009,0.804,0.005959005251237792,0.9304463743755144,0.006477691377241433,0.007313775932952818
0.355,-0.0015,-0.196,0.0059798800305658675,0.9304463743755144,0.006539419459604962,0.007313775932952818
0.356,-0.0004,0.804,0.005977985335484035,0.9304463743755144,0.0065338167228178095,0.007313775932952818
0.357,-0.004,-1.196,0.005927815590372371,0.9304463743755144,0.00638546151820758,0.007313775932952818
0.358,-0.0029,-0.196,0.005911295545816537,0.9238825087107545,0.006336610670255375,0.007112375379143384
0.359,-0.0036,-2.196,0.0059099484866429654,0.9238825087107543,0.006332627328524765,0.007112375379143377
0.36,-0.0061,-1.196,0.005871295881654275,0.9429823744524325,0.006218329057543868,0.007698420818603259
0.361,-0.0006,-0.196,0.005900608503947119,0.9191695312368782,0.0063050083912386725,0.0069677660404078075
0.362,0.003,-0.196,0.005900766569165034,0.9234181401008742,0.0063054758003852265,0.00709812705354103
0.363,-0.0078,-1.196,0.005922552911236772,0.9299852832998059,0.0063698994331656475,0.007299628172662286
0.364,-0.0092,0.804,0.005912792173815878,0.9299852832998047,0.0063410362967474656,0.007299628172662249
0.365,-0.0001,-0.196,0.0058397506347019085,0.9276472906123818,0.006125047707286211,0.007227891021706007
0.366,-0.0063,-2.196,0.0058423549439193005,0.9276472906123818,0.0061327488193001255,0.007227891021706007
0.367,0.0039,0.804,0.005843107843531746,0.9318572477014004,0.006134975192501878,0.007357066073808985
0.368,-0.0026,-1.196,0.005792372458436783,0.9253033904654011,0.005984947353612338,0.0071559726108509
0.369,0.0112,-0.196,0.005808300116466766,0.9253033904654011,0.0060320464760165,0.0071559726108509
0.37,0.0094,0.804,0.0059227378726577785,0.9253033904654012,0.006370446376136901,0.007155972610850904
0.371,0.0015,0.804,0.0059697585587313775,0.9253033904654012,0.006509489608025681,0.007155972610850904
0.372,-0.0029,-0.196,0.005965797072148468,0.9318572477014004,0.006497775234128422,0.007357066073808985
0.373,-0.0039,0.804,0.005964418402126171,0.9507969282238474,0.006493698417058839,0.007938196514468929
0.374,-0.01,1.804,0.005997419012044701,0.9675672402509123,0.0065912833704172644,0.008452763737857015
0.375,-0.0067,0.804,0.0060097576303575935,0.9738367060722395,0.006627769468569499,0.008645131155624819
0.376,-0.002,1.804,0.006014404781856675,0.9698089996388423,0.006641511398291614,0.008521548141026715
0.377,0.0118,-0.196,0.005990982316713396,0.9738367060722395,0.006572249643003182,0.008645131155624819
0.378,0.0137,0.804,0.0060109313050446395,0.99197520065771,0.006631240101078294,0.009201678629531241
0.379,0.0046,0.804,0.006251598165035324,0.9919752006577099,0.007342907684346885,0.009201678629531237
0.38,0.0093,-0.196,0.006326385323606513,0.9919752006577099,0.007564058184261759,0.009201678629531237
0.381,0.005,0.804,0.00638749107901839,0.9941619234780766,0.007744751883757634,0.009268774333426282
0.382,-0.0015,0.804,0.0063868723132224385,0.9941619234780767,0.007742922152989421,0.009268774333426285
0.383,0.0148,0.804,0.006418949282477485,0.9980913607514929,0.007837775840735226,0.00938934213347653
0.384,-0.0008,-0.196,0.006418118297795666,1.0020053885682971,0.007835318564896476,0.009509437121733537
0.385,0.001,0.804,0.006419081363550867,1.0080606948030295,0.007838166413073656,0.009695233433152326
0.386,0.0029,-0.196,0.006411454849122775,1.0255940878500818,0.007815614313079445,0.010233214441629286
0.387,0.0043,-0.196,0.006402245089385407,1.03151093000506,0.007788380453564965,0.010414762228814115
0.388,-0.0033,-0.196,0.006423098320482846,1.0294035493168745,0.00785004481640674,0.010350100997252577
0.389,-0.0022,0.804,0.00642900262700529,1.0449130265400282,0.007867504235430476,0.010825981745209996
0.39,-0.0062,-2.196,0.006443384948230105,1.042832729472621,0.007910033696230574,0.010762151526423932
0.391,0.0025,1.804,0.0064338590429507975,1.0407482742169651,0.007881864973753237,0.010698193721020639
0.392,-0.0029,-2.196,0.00644089556861866,1.0272918455689473,0.007902672438548551,0.010285307120285022
0.393,-0.0003,-0.196,0.0064544722488050505,1.031095034555783,0.00794281956631443,0.010402001216007147
0.394,0.0004,-1.196,0.00644866815620085,1.0272918455689473,0.00792565648637539,0.010285307120285022
0.395,-0.0104,-0.196,0.006433914500662595,1.0234745241867613,0.007882028965819823,0.01016817939712511
0.396,-0.0061,0.804,0.006433636075996614,1.0234745241867613,0.007881205645944502,0.01016817939712511
0.397,0.003,-0.196,0.006431001957375039,1.0196429116833903,0.00787341638558048,0.010050613176307227
0.398,-0.0032,1.804,0.006372278185009171,1.0136567967805077,0.0076997663651262715,0.00986693987795194
0.399,-0.0133,-0.196,0.006332537356156987,1.0115122195433908,0.007582250145288529,0.009801137336385416
0.4,-0.0097,-0.196,0.006250241141758546,1.0115122195433908,0.007338894878113983,0.009801137336385416
0.401,-0.0133,-0.196,0.00622084324789288,1.0076351204540557,0.007251963390823316,0.009682175440507751
0.402,-0.001,-0.196,0.006264988944579413,1.0097879318679668,0.007382505091802957,0.009748230633156918
0.403,-0.0024,0.804,0.00630019666339059,1.0272918455689506,0.007486616609939356,0.010285307120285124
0.404,0.0052,-0.196,0.006348913800935327,1.0272918455689506,0.007630676359343859,0.010285307120285124
0.405,0.0016,-1.196,0.006365797220941441,1.0449130265400313,0.007680601732174687,0.010825981745210092
0.406,-0.0021,0.804,0.006367504829165621,1.0507210851219797,0.007685651240935964,0.011004191701766971
0.40700000000000003,-0.0053,-0.196,0.0063675585990625085,1.0469891902053112,0.007685810242023907,0.010889685137897015
0.40800000000000003,-0.0079,-0.19599999999988899,0.006366329765419082,1.0469891902053112,0.0076821765008877555,0.010889685137897015
0.40900000000000003,-0.0053,1.803999999999889,0.0064160601888797715,1.0469891902053112,0.007829232602756383,0.010889685137897015
0.41000000000000003,-0.0061,-0.1959999999999445,0.0065568299710411565,1.0469891902053112,0.008245498019074676,0.010889685137897015
0.41100000000000003,-0.0039,0.803999999999889,0.006556607477398253,1.0622419357630521,0.008244840090878232,0.01135768853091828
0.41200000000000003,0.0055,-1.196,0.006601522520833987,1.106739638376716,0.008377656800314463,0.012723021462357436
0.41300000000000003,0.0019,-1.195999999999889,0.006655724204026258,1.1067396383767159,0.008537934708490213,0.01272302146235743
0.41400000000000003,0.0073,0.804,0.006703739313908236,1.1067396383767159,0.008679918516362246,0.01272302146235743
0.41500000000000004,0.0026,0.804,0.006644894165395171,1.1031972592610473,0.008505909578733713,0.012614329854067984
0.41600000000000004,-0.0036,0.8039999999999445,0.006658860481224617,1.1031972592610473,0.008547208884478977,0.012614329854067984
0.41700000000000004,-0.0014,-0.196,0.006634838798028286,1.1506584196536827,0.008476175202371527,0.014070591221334226
0.41800000000000004,0.0055,0.804,0.006625108289003917,1.1830772026145147,0.008447401453291101,0.015065303967695447
0.41900000000000004,0.0116,-0.196,0.006640255601564279,1.1929614286663244,0.008492193043305877,0.01536858387963815
0.42000000000000004,0.0076,0.804,0.006558078410213585,1.1929614286663244,0.00824918973503729,0.01536858387963815
0.42100000000000004,-0.0007,-1.196,0.006610032516336284,1.2045685553752152,0.008402821411399596,0.01572472793661626
0.42200000000000004,-0.004,1.804,0.0066883295270660755,1.2045685553752148,0.008634350772797268,0.015724727936616247
0.42300000000000004,-0.0065,-2.196,0.0067981208965015825,1.2045685553752148,0.008959011004592126,0.015724727936616247
0.42400000000000004,0.0055,-1.196,0.006792272133892161,1.2013146841213564,0.00894171583253761,0.015624888679382507
0.42500000000000004,0.004,-0.196,0.006723860467995862,1.1863810946147615,0.008739418079794744,0.0151666780226443
0.42600000000000005,-0.0003,0.804,0.006703371751173379,1.1882100963352586,0.00867883160941035,0.015222797690267026
0.42700000000000005,0.0062,1.804,0.006706149782402367,1.1782860137053446,0.008687046428729698,0.014918294850051084
0.42800000000000005,0.0174,0.804,0.006602231306259409,1.1782860137053446,0.008379752724991361,0.014918294850051084
0.42900000000000005,0.0131,-1.196,0.006464794272055388,1.1749593592037528,0.00797334246149532,0.014816222368197856
0.43000000000000005,0.0095,-1.196,0.006533226919539812,1.18674257111373,0.008175702258161121,0.01517776928666456
0.43100000000000005,0.0008,-0.196,0.006516016028220012,1.1867425711137303,0.008124808531322558,0.015177769286664566
0.43200000000000005,-0.0069,0.804,0.006519200044418967,1.198409931703991,0.008134223874646048,0.015535761513255758
0.43300000000000005,-0.0004,0.804,0.006561470333272049,1.209964792347241,0.008259219872488469,0.01589030187888747
0.43400000000000005,-0.0011,-1.196,0.006405082027409213,1.209964792347241,0.0077967694641140825,0.01589030187888747
0.43500000000000005,0.0011,1.804,0.006412497108705957,1.213195463654987,0.00781869634256506,0.0159894292870015
0.43600000000000005,0.0047,-1.196,0.00643893386510005,1.213195463654987,0.007896871553448571,0.0159894292870015
0.43700000000000006,0.0054,0.804,0.006432722547189663,1.21820146064594,0.007878504281750385,0.01614302940891733
0.43800000000000006,-0.0037,-2.196,0.006432063687832951,1.21820146064594,0.007876555991711104,0.01614302940891733
0.43900000000000006,-0.0073,0.804,0.006432586353835927,1.221410345884232,0.007878101549131055,0.016241488350204423
0.44000000000000006,-0.0084,0.804,0.006684498302003389,1.21820146064594,0.008623021590701213,0.01614302940891733
0.44100000000000006,-0.003,0.804,0.006759575193873929,1.2049245756614972,0.008845028850856985,0.015735651786446026
0.44200000000000006,-0.0055,0.804,0.006760436405507969,1.1900362870126122,0.008847575509762593,0.015278831106026165
0.44300000000000006,-0.0062,-0.196,0.006754777723106688,1.1764415832160566,0.008830842417266352,0.014861701778075229
0.44400000000000006,0.0061,-0.196,0.006769599261268311,1.1816033024694728,0.00887467067116144,0.015020079960893336
0.44500000000000006,0.0007,-0.196,0.006802681246285789,1.1816033024694728,0.008972496255988647,0.015020079960893336
0.44600000000000006,-0.0008,-0.196,0.006759791932863094,1.1849113041573627,0.008845669762167437,0.015121580114304525
0.44700000000000006,0.0068,-0.196,0.006733976945601708,1.1849113041573625,0.008769333163114576,0.015121580114304518
0.44800000000000006,0.0032,0.804,0.006734538167694178,1.1882100963352562,0.008770992733402901,0.015222797690266951
0.44900000000000007,0.0021,0.804,0.006729052355560575,1.1731096983687264,0.00875477082954984,0.014759468812357438
0.45000000000000007,-0.0055,-0.196,0.006598487281651368,1.213548953057664,0.008368681400320379,0.01600027548116527
0.45100000000000007,-0.008,-1.196,0.0065294233297583226,1.2167701080238984,0.00816445479539187,0.016099110897250732
0.45200000000000007,-0.0072,1.804,0.006392799044008241,1.2217614584964416,0.007760447882020741,0.016252261616776304
0.45300000000000007,-0.0079,-0.196,0.0063920331894739895,1.2217614584964416,0.007758183200271261,0.016252261616776304
0.45400000000000007,-0.0101,-2.196,0.006387667395383489,1.2217614584964416,0.007745273262735384,0.016252261616776304
0.45500000000000007,-0.0021,-1.196,0.0063688652760138745,1.2267325002437226,0.007689674170892748,0.016404789199156198
0.45600000000000007,0.0005,-0.196,0.006367689274741361,1.2217614584964416,0.0076861966585191595,0.016252261616776304
0.4570000000000001,-0.0038,-1.196,0.006372286070716119,1.2330975207908292,0.007699789683675433,0.016600088543881987
0.4580000000000001,0.0085,-0.196,0.006353875677550745,1.2330975207908292,0.007645348951737793,0.016600088543881987
0.4590000000000001,0.014,-2.196,0.006311144140718314,1.2362677420743564,0.007518989013572373,0.016697361150423695
0.4600000000000001,0.006099999999998469,-2.196,0.006298977052713716,1.2249610180656747,0.007483010141716133,0.016350434416480212
0.4610000000000001,-0.007699999999998146,-3.196,0.006283902030430654,1.2281522422296152,0.00743843231876069,0.016448351459084888
0.4620000000000001,0.009000000000000244,-0.196,0.0062722391022923246,1.2249610180656754,0.007403944280472571,0.016350434416480233
0.4630000000000001,0.011199999999998479,-1.196,0.006254400776028241,1.2249610180656754,0.0073511951876294255,0.016350434416480233
0.4640000000000001,-0.0025000000000002,-0.196,0.006252877142442861,1.2199827581132594,0.007346689703860134,0.01619768535630266
0.4650000000000001,-0.0042999999999998335,-0.196,0.006221947215106102,1.2217614584964454,0.00725522789379091,0.01625226161677642
0.4660000000000001,-0.0027999999999995225,3.804,0.006224346577347144,1.2185534978630292,0.0072623229642444585,0.016153831045346907
0.4670000000000001,0.0015000000000004107,2.804,0.006242643226559184,1.2203342814687907,0.007316427347902224,0.016208471225803472
0.4680000000000001,0.0051999999999998775,1.804,0.006273897529841644,1.2203342814687907,0.0074088483587744025,0.016208471225803472
0.4690000000000001,0.004099999999998157,-0.19599999999988899,0.006299729744522798,1.2221124702340922,0.007485235900429801,0.016263031788191603
0.4700000000000001,-0.012499999999999756,1.8039999999999445,0.006220165433603177,1.2221124702340922,0.0072499590498123585,0.016263031788191603
0.4710000000000001,-0.010300000000000245,0.8039999999999445,0.006186575706253198,1.2189054334067666,0.007150632037830999,0.016164629562110355
0.4720000000000001,-0.012499999999998913,-0.196,0.006199161892656282,1.2139023395239317,0.0071878502109537865,0.016011118516908243
0.4730000000000001,-0.0026999999999993895,-0.196,0.006186194608339576,1.199125523569322,0.007149505106473742,0.015557718178023129
0.4740000000000001,0.0028000000000001552,-0.19600000000005552,0.006161279279542844,1.18049095290971,0.007075828856109239,0.014985949491318273
0.4750000000000001,0.0041999999999998445,-1.196,0.006136817568334804,1.1753243485161076,0.0070034939825054775,0.014827421416654534
0.4760000000000001,0.0027999999999996,-1.1959999999999444,0.006131747536178134,1.1753243485161076,0.006988501567130254,0.014827421416654534
0.4770000000000001,-0.0007999999999996004,-0.196,0.006181231389351021,1.1719892874517561,0.007134828544594992,0.014725090994361647
0.4780000000000001,0.0028000000000008548,-0.19599999999988899,0.006152561319551226,1.1619266702173003,0.007050049280481305,0.014416337465983961
0.4790000000000001,0.010499999999999723,1.803999999999889,0.005902610540325182,1.158553042656712,0.006310928543231544,0.014312823699287443
0.48,0.008,-0.196,0.005756707480564975,1.153288163020094,0.0058794836906454475,0.01415128022342874
0.481,0.0054,1.804,0.005692135765341677,1.1634254982170862,0.005688540922196768,0.01446232633971162
0.482,0.0076,1.804,0.005714287463608455,1.163425498217086,0.0057540449370471,0.014462326339711612
0.483,0.004,0.804,0.005844660727637821,1.1600562294943024,0.006139567171966394,0.014358946316207395
0.484,0.0032,0.804,0.00589750574888948,1.1566771465172987,0.006295833342403823,0.014255265159752544
0.485,-0.0059,0.804,0.005901704254736425,1.1547982031080908,0.006308248597705489,0.01419761312015906
0.486,0.0006,-1.196,0.005908776083592514,1.1547982031080908,0.00632916045632822,0.01419761312015906
0.487,0.0042,-0.196,0.005890442710860543,1.1547982031080908,0.00627494747882966,0.01419761312015906
0.488,-0.0034,0.804,0.0058828930439778285,1.1667850377060944,0.006252622622033371,0.014565407838966477
0.489,-0.0183,-0.196,0.005871489520995253,1.1630567748254435,0.006218901661689801,0.01445101271766752
0.49,-0.0118,-1.196,0.005832564874083614,1.159686434840998,0.006103798945020536,0.014347599824402861
0.491,-0.0027,-0.196,0.005893229169393253,1.159686434840998,0.006283187218235111,0.014347599824402861
0.492,-0.0009,-1.196,0.005984013321334613,1.159686434840998,0.006551641869671946,0.014347599824402861
0.493,0.0045,-1.196,0.005977175261624378,1.1563062712106542,0.006531421281642427,0.01424388551002061
0.494,-0.0067,-1.196,0.006030195419854631,1.1563062712106542,0.006688205343534882,0.01424388551002061
0.495,0.0071,0.804,0.006006820970643407,1.1615574710396166,0.006619085574485543,0.014405009245290673
0.496,0.0016,0.804,0.006124891489148629,1.1667850377060944,0.006968227789425868,0.014565407838966477
0.497,-0.0031,0.804,0.006442276103111256,1.1719892874517561,0.007906754768978268,0.014725090994361647
0.498,-0.0017,-0.196,0.006975180787878646,1.1719892874517561,0.009482588637985404,0.014725090994361647
0.499,0.0018,-3.196,0.007133635348287689,1.1874651940003391,0.009951149095659367,0.01519994168582559
0.5,-0.0019,0.804,0.007207297996067268,1.184164326708555,0.010168974343907039,0.015098660438680953
0.501,-0.0008,-1.196,0.0071861901635833884,1.2027419856406654,0.010106557108179518,0.015668682890160643
0.502,-0.0002,-0.196,0.007171015990703709,1.2124659116702057,0.0100616860904507,0.01596704428077619
0.503,0.0005,0.804,0.007247019088967609,1.2124659116702057,0.01028643220324948,0.01596704428077619
0.504,-0.0017,-1.196,0.00720381787905477,1.215689936322334,0.010158683411188375,0.016065967748073815
0.505,-0.001,-0.196,0.007180763299307669,1.2005779125966014,0.010090509516982385,0.015602282154402366
0.506,-0.0032,1.804,0.007188860545997963,1.2103192253096804,0.01011445360294185,0.01590117702450583
0.507,0.0022,-0.196,0.007206145383402887,1.2103192253096804,0.010165565993171352,0.01590117702450583
0.508,-0.0029,0.804,0.007221965199080424,1.205280490785179,0.010212346218713926,0.01574657240954828
0.509,0.0036,0.804,0.007189402610162954,1.2103192253096804,0.010116056521990574,0.01590117702450583
0.51,0.0043,0.804,0.007098240689693351,1.1951392931761706,0.009846484784405942,0.01543540778201626
0.511,-0.0008,-0.196,0.007175052157183571,1.191499755495647,0.010073621297668279,0.01532373503581685
0.512,0.0028,-1.196,0.007197953031760285,1.1555641635030316,0.01014134067567229,0.014221115253751675
0.513,0.0013,-0.196,0.007179975622730757,1.1608187204121596,0.010088180306031156,0.014382341995061027
0.514,-0.0038,-1.196,0.007092858639805252,1.1608187204121587,0.009830569712272443,0.014382341995060999
0.515,-0.0031,-0.196,0.00709359510507147,1.1608187204121587,0.009832747488041783,0.014382341995060999
0.516,0.006,-1.196,0.0070810647785002935,1.1608187204121585,0.009795694496080943,0.014382341995060992
0.517,-0.0064,-0.196,0.007097700192554784,1.0972760813577906,0.009844886499156439,0.01243264903215194
0.518,-0.0079,-1.196,0.007182245621152507,1.0622419357630513,0.010094892839243636,0.011357688530918253
0.519,0.0059,-0.196,0.007285685625251125,1.0490612450093162,0.010400771669976733,0.010953262457477238
0.52,0.004,-0.196,0.007283051187934616,1.052785794971434,0.01039298146721103,0.011067543654468935
0.521,-0.004,-0.196,0.007286096895554081,1.039485207100371,0.010401987823054836,0.010659438751042161
0.522,0.0002,-0.196,0.007227974867752327,1.0527857949714365,0.010230117200477448,0.01106754365446901
0.523,-0.0034,-0.196,0.007176935806559999,1.0695862745566203,0.010079191371584978,0.011583036515769649
0.524,0.0002,-0.196,0.007180899860632765,1.0732395972163185,0.010090913337717,0.011695132229558864
0.525,-0.0031,-0.196,0.007192967968464636,1.0732395972163185,0.010126599518754413,0.011695132229558864
0.526,-0.0078,-0.196,0.00721023211301638,1.0675540582781662,0.01017765071886902,0.01152068157055214
0.527,-0.0017,-1.196,0.007204845094409074,1.065517966048654,0.010161720953909138,0.01145820769866405
0.528,-0.001,-0.196,0.007212942433243754,1.0821207902072372,0.010185665312345556,0.011967635854436892
0.529,0.0011,-0.196,0.007219136212004027,1.0821207902072372,0.010203980719634263,0.011967635854436892
0.53,-0.004,1.804,0.007158574635696301,1.065517966048656,0.010024896193199987,0.01145820769866411
0.531,0.0051,-0.196,0.007117545502643517,1.069185189892566,0.009903570373914315,0.011570729945588195
0.532,0.0141,-0.196,0.007103941636559402,1.0560911589311146,0.009863342855677835,0.011168962873877312
0.533,0.0079,-0.196,0.007063468323426261,1.0560911589311146,0.009743660632103511,0.011168962873877312
0.534,0.0025,0.804,0.007053377238380492,1.0581453904573748,0.00971382063623803,0.011231993317852238
0.535,0.0031,1.804,0.007046728355548696,1.0581453904573748,0.00969415945656201,0.011231993317852238
0.536,0.0006,-1.196,0.007027119981183712,1.060195641718978,0.00963617621617447,0.011294901634479174
0.537,0.0045,1.804,0.007045999938260804,1.0544397721221694,0.009692005479188867,0.011118293004190496
0.538,-0.0006,1.804,0.007050673117845856,1.071214311731937,0.0097058243756568,0.01163298994344132
0.539,-0.0028,-0.196,0.0070548546305523145,1.088124440824631,0.009718189381135028,0.012151847205030654
0.54,-0.0119,0.804,0.006816023450507012,1.0937030512926158,0.009011950023050557,0.012323016953944213
0.541,-0.0108,0.804,0.006719648140994392,1.088124440824631,0.00872696195443877,0.012151847205030654
0.542,-0.0047,-0.196,0.006822544918808735,1.0937030512926158,0.009031234429660712,0.012323016953944213
0.543,-0.0101,-0.196,0.006830846719083718,1.088124440824631,0.009055783393895773,0.012151847205030654
0.544,0.003,-1.196,0.00682026899170208,1.088124440824631,0.009024504364940745,0.012151847205030654
0.545,0.012,-1.196,0.006810954678477185,1.0825170820975774,0.008996961333952499,0.011979795366873778
0.546,0.02,-1.196,0.0067814700711373455,1.0825170820975774,0.008909773429269739,0.011979795366873778
0.547,0.0276,-0.196,0.006783814929963517,1.0845212604678518,0.008916707329574882,0.01204129001870269
0.548,0.0153,-2.196,0.006792186947684105,1.11885800396344,0.008941463931370923,0.013094851975820674
0.549,0.0105,-0.196,0.006886526462858597,1.122350955515337,0.009220432023502761,0.01320202698714951
0.55,-0.0,-2.196,0.006884328061504971,1.0821207902072392,0.009213931207484925,0.011967635854436953
0.551,-0.0065,1.804,0.006884328061504973,1.0821207902072392,0.009213931207484932,0.011967635854436953
0.552,-0.0127,1.804,0.0069492556063437405,1.0929184359036825,0.009405926187287125,0.012298942425011216
0.553,-0.0004,0.804,0.0069557474873930495,1.0929184359036825,0.009425123102464426,0.012298942425011216
0.554,-0.0083,0.804,0.006986932165749054,1.0949035751662688,0.00951733822789335,0.012359852895653571
0.555,-0.004,1.804,0.007127952755938991,1.1055763844489848,0.009934345299890996,0.012687329082709283
0.556,-0.005,-0.196,0.007222822815154248,1.1055763844489848,0.010214882245313743,0.012687329082709283
0.557,-0.0061,-0.196,0.007393372334875316,1.126999368307022,0.010719208285601174,0.01334465527334471
0.558,-0.005,-1.196,0.007399450349850327,1.1304671647056204,0.010737181371835413,0.013451058443495758
0.559,0.0081,0.804,0.007395645027982355,1.1304671647056204,0.010725928787173598,0.013451058443495758
0.56,-0.0121,1.804,0.007414505765986385,1.126999368307022,0.010781701218136918,0.01334465527334471
0.561,-0.0096,-1.196,0.007444006636619482,1.1289245800929981,0.010868937214437317,0.013403726975859544
0.562,-0.0074,-1.196,0.0075813455067723625,1.1289245800929981,0.011275057200439222,0.013403726975859544
0.5630000000000001,-0.0009,-1.195999999999889,0.0075982946926628735,1.1235208684538482,0.01132517704727454,0.013237923686710255
0.5640000000000001,-0.0027,-0.196,0.0076283643715018765,1.1289245800929981,0.01141409504649489,0.013403726975859544
0.5650000000000001,-0.0009,-0.19599999999988899,0.007618888531833498,1.1430845433409615,0.0113860743712906,0.013838200285600169
0.5660000000000001,-0.0056,0.804,0.007618006796235259,1.1430845433409615,0.01138346702168582,0.013838200285600169
0.5670000000000001,0.0111,0.804,0.0076197995514288505,1.141183220105908,0.011388768315582555,0.013779861560819985
0.5680000000000001,0.0133,0.804,0.007627900133123658,1.14460804477534,0.011412722263367625,0.01388494621982314
0.5690000000000001,0.0036,0.804,0.0075868554406882255,1.142709256456209,0.011291350433973842,0.013826685274433443
0.5700000000000001,0.0127,0.8040000000001111,0.007595270655199257,1.1461295210855704,0.011316234771493284,0.013931630016710314
0.5710000000000001,0.0047,1.804,0.007597475940393831,1.1461295210855704,0.01132275594347725,0.013931630016710314
0.5720000000000001,-0.0091,1.803999999999889,0.0076154255069474435,1.1653136961683597,0.011375833981103298,0.014520262338482892
0.5730000000000001,-0.0036,0.803999999999889,0.007621262101895652,1.1705244876398044,0.011393093172590942,0.014680146215108944
0.5740000000000001,-0.005,-0.196,0.007617058018580691,1.1757121849548424,0.01138066142435301,0.014839321488584408
0.5750000000000001,-0.0065,-0.19599999999988899,0.0076474340091047125,1.1790367153589523,0.011470485207180676,0.014941328796280965
0.5760000000000001,0.0001,0.8040000000001111,0.007647434009104712,1.1823518979041578,0.011470485207180674,0.015043049281538368
0.5770000000000001,-0.0035,1.804,0.00761329521824683,1.1973357420138426,0.01136953457863763,0.015502801911469003
0.5780000000000001,0.0041,-0.196,0.007622340650849749,1.1955207015062992,0.01139628251211043,0.015447110618856423
0.5790000000000001,0.0048,-0.196,0.007623323107540156,1.1987902994449244,0.01139918770054624,0.015547432421465618
0.5800000000000001,0.0023,0.804,0.007634043085431864,1.2020510040578098,0.011430887373526474,0.015647481348178092
0.5810000000000001,-0.0031,0.804,0.00765021088909754,1.1904193303383692,0.011478696622219701,0.015290584109801768
0.5820000000000001,0.0005,1.804,0.007648424298778492,1.1955207015062992,0.011473413558258603,0.015447110618856423
0.5830000000000001,0.0013,-1.196,0.0075248492012727885,1.1987902994449244,0.011107993944617285,0.015547432421465618
0.5840000000000001,0.0009,0.804,0.0076004515708068335,1.2020510040578098,0.011331555076456357,0.015647481348178092
0.5850000000000001,-0.0026999999999991232,-1.196,0.007626646427221531,1.2020510040578098,0.011409014973342188,0.015647481348178092
0.5860000000000001,0.005199999999998878,-0.196,0.007772704556701673,1.1871266772042965,0.011840918377192169,0.015189554899489787
0.5870000000000001,-0.004899999999998989,1.804,0.007800554981627386,1.1819890786480438,0.011923273898017318,0.015031916817401205
0.5880000000000001,0.004199999999999311,-2.196,0.007797960683078181,1.166808173358833,0.011915602388201382,0.014566117715358264
0.5890000000000001,-0.002000000000000111,-1.196,0.007799825497883694,1.1514271339475641,0.0119211167670649,0.014094177853422105
0.5900000000000001,-0.0030000000000010105,-0.196,0.007809446858833723,1.166808173358833,0.011949567758179038,0.014566117715358264
0.5910000000000001,-0.012099999999998268,-1.196,0.00771872745226178,1.1686678077155637,0.011681304563017414,0.01462317729098904
0.5920000000000001,0.0034999999999998778,-0.196,0.0076694785489466975,1.1653136961683597,0.011535672347588047,0.014520262338482892
0.5930000000000001,0.0024000000000003663,-1.196,0.007656687262845982,1.1686678077155637,0.011497847681298114,0.01462317729098904
0.5940000000000001,0.005699999999999723,-0.196,0.007595594898401571,1.1738637103503815,0.011317193579765395,0.01478260433012094
0.5950000000000001,0.0031999999999999112,0.804,0.007614093543482265,1.1686678077155637,0.01137189527836582,0.01462317729098904
0.5960000000000001,0.002400000000000244,-1.196,0.007581284227549335,1.1686678077155637,0.011274875993784687,0.01462317729098904
0.5970000000000001,0.004600000000000766,2.804,0.0073177097085030994,1.1634487006756418,0.010495468970366188,0.014463038265921189
0.5980000000000001,0.011499999999998678,0.804,0.006789612108690658,1.1686678077155637,0.008933849964729053,0.01462317729098904
0.5990000000000001,-0.00040000000000016655,0.804,0.006620408855222915,1.1649455704208893,0.00843350492145541,0.014508967054088195
0.6000000000000001,-0.0019000000000008437,0.804,0.006537710718646697,1.1701580011819404,0.0081889611442179,0.01466890122940277
0.6010000000000001,-0.009499999999999278,1.804,0.006542926198296048,1.1544501074838731,0.008204383657304179,0.014186932424502464
0.6020000000000001,-0.0030000000000004,-0.196,0.006512195288495343,1.1389021828248689,0.008113510355054091,0.013709871985297791
0.6030000000000001,-0.006600000000000844,-1.196,0.006390749281400458,1.1389021828248689,0.007754386600457457,0.013709871985297791
0.6040000000000001,-0.014199999999999723,1.804,0.006390734312736277,1.1389021828248689,0.007754342337142339,0.013709871985297791
0.6050000000000001,-0.01170000000000049,-0.196,0.006339040192874838,1.135460148014942,0.007601479457091421,0.013604259263716296
0.6060000000000001,-0.016099999999998622,2.804,0.006349438194038908,1.1231390445608131,0.007632227023912809,0.01322620809906077
0.607,-0.0037,0.804,0.006330561314108388,1.1231390445608131,0.007576406860221288,0.01322620809906077
0.608,0.0017,0.804,0.006303815775728951,1.1266187233177487,0.007497318560891466,0.01333297585826222
0.609,0.0064,-0.196,0.006303815775728958,1.1266187233177487,0.007497318560891487,0.01333297585826222
0.61,0.0079,-1.196,0.006320684660863864,1.1285445844555009,0.007547200953161278,0.013392067484982393
0.611,0.0144,-0.196,0.006205848393422103,1.1126347156535985,0.007207622629311343,0.012903901432934496
0.612,0.0058,-0.196,0.006136953978332384,1.1126347156535985,0.007003897355754772,0.012903901432934496
0.613,0.0069,-1.196,0.006212754360961479,1.1106812680079912,0.007228044025215495,0.012843963363242533
0.614,0.0003,-2.196,0.0062458744002414175,1.1051883610575073,0.007325982138975849,0.01267542327446672
0.615,0.0029,-0.196,0.00625756959989551,1.1106812680079923,0.007360565606238412,0.012843963363242568
0.616,-0.0062,0.804,0.006384256012099637,1.1106812680079923,0.007735185580129996,0.012843963363242568
0.617,-0.0073,0.804,0.006363305700742946,1.1231390445608145,0.0076732341446373075,0.013226208099060811
0.618,0.0004,0.804,0.006281470074730592,1.1196485516017254,0.007431240867325515,0.013119108525283323
0.619,0.0069,0.804,0.006148238465263912,1.1161471429837126,0.007037266318740773,0.013011674023909094
0.62,0.0044,-0.196,0.006141744321309235,1.1161471429837126,0.007018062712004879,0.013011674023909094
0.621,0.0066,-2.196,0.006027701432228092,1.128544584455501,0.006680830459652036,0.0133920674849824
0.622,0.003,-1.196,0.00600952413398369,1.1161471429837118,0.006627079004580712,0.013011674023909067
0.623,0.0023,-1.196,0.005968407753729033,1.1036104432622813,0.00650549518963537,0.012627007670910047
0.624,-0.0068,0.804,0.005958461806504753,1.1055763844489879,0.0064760843757630535,0.012687329082709378
0.625,-0.0031,0.804,0.0060126782213184475,1.1055763844489879,0.006636405846303049,0.012687329082709378
0.626,0.003,1.804,0.005977734713964287,1.105576384448988,0.00653307561865714,0.012687329082709385
0.627,0.0041,0.804,0.006021076159738516,1.1020302661624848,0.00666123909729606,0.012578522744607454
0.628,0.0016,0.804,0.006021667712236243,1.0893311127591188,0.006662988356568608,0.012188871789061513
0.629,0.0042,0.804,0.006074990940734792,1.0893311127591188,0.0068206686169879705,0.012188871789061513
0.63,0.0064,0.804,0.006069209689221937,1.094903575166271,0.006803573079644023,0.01235985289565364
0.631,-0.0048,-1.196,0.006092451823293474,1.0913227774580465,0.0068723015842056204,0.012249982481122183
0.632,-0.0033,0.804,0.0061268104223817345,1.0877301918608344,0.006973902200005334,0.012139750376164443
0.633,0.0133,0.804,0.0061329565383928366,1.0712143117319395,0.006992076665439747,0.011632989943441396
0.634,0.0068,0.804,0.006164790039064644,1.0712143117319395,0.007086210400724119,0.011632989943441396
0.635,-0.0153,-0.196,0.006168484539389984,1.0712143117319395,0.00709713527886489,0.011632989943441396
0.636,-0.0066,-0.196,0.006185166796080505,1.0655179660486584,0.007146465798666696,0.011458207698664185
0.637,-0.004,-0.196,0.006237870449716511,1.0691851898925684,0.007302313935855228,0.01157072994558827
0.638,-0.0018,-0.196,0.006329690189686741,1.056091158931117,0.007573830888556956,0.011168962873877386
0.639,0.0048,1.804,0.006556782092971611,1.0386596357382336,0.008245356440504007,0.010634107560850935
0.64,-0.001,-1.196,0.006666500638779146,1.0327837494969687,0.008569801328086846,0.010453816433098966
0.641,-0.0064,-0.196,0.006701925615194915,1.0327837494969687,0.008674555291113302,0.010453816433098966
0.642,-0.0016,0.804,0.0065993922824224525,1.0306789712860598,0.008371357546556877,0.010389235053928008
0.643,-0.003,-1.196,0.006615536897887202,1.03067897128606,0.008419098226229365,0.010389235053928015
0.644,0.0061,-0.196,0.00700607979416307,1.0306789712860565,0.009573959012488517,0.010389235053927906
0.645,0.0097,-1.196,0.007015867089305038,1.0478339613114043,0.009602900681818021,0.010915605438113209
0.646,-0.0026,-0.196,0.007066017544006671,1.04409174700522,0.009751198843429114,0.010800782242113711
0.647,-0.004,-1.196,0.007097462921143942,1.044091747005219,0.0098441848721375,0.010800782242113676
0.6480000000000001,-0.0025999999999991785,1.804,0.007102331484132117,1.0033156398785967,0.009858581530056748,0.009549639854848663
0.649,0.0011,-1.196,0.007008975901254037,0.9994067434792806,0.009582522989823808,0.009429702315018653
0.6500000000000001,-0.0025999999999997557,0.804,0.0070553674880135435,0.9954824983889587,0.009719705934058053,0.009309293827880047
0.651,-0.0015,-0.196,0.007065945397193887,0.9976615337740805,0.009750985500603696,0.00937615365648532
0.6520000000000001,-0.002199999999999423,1.804,0.007035429074373839,1.0020053885682911,0.009660746746034711,0.009509437121733353
0.653,0.0004,0.804,0.007033380902781541,1.0020053885682911,0.009654690169207862,0.009509437121733353
0.6540000000000001,-0.0018000000000007992,-0.196,0.007072039035933805,1.0020053885682911,0.009769004787328579,0.009509437121733353
0.655,-0.0054,0.804,0.007021130001623445,0.9902168933019069,0.00961846345639671,0.009147728092863924
0.6560000000000001,0.0011000000000001777,-0.196,0.007179074613801875,0.9941619234780708,0.010085515963932102,0.009268774333426101
0.657,0.0019,0.804,0.007029024697307445,0.9512479314848497,0.009641808585835349,0.007952034748091436
0.6580000000000001,-0.005000000000000955,-1.196,0.007068259212517466,0.9512479314848497,0.009757827603249341,0.007952034748091436
0.659,-0.0093,-1.196,0.007077623291946567,0.947124169705888,0.009785517796145452,0.007825504445906857
0.6600000000000001,0.0016999999999990228,-0.196,0.007048856481547742,0.9535280585949898,0.009700452463778254,0.008021996396636985
0.661,-0.0027,-1.196,0.007006213365852595,0.9512479314848497,0.009574353992675987,0.007952034748091436
0.6620000000000001,0.012199999999998734,0.804,0.006861857716007682,0.974277044032102,0.009147484932015651,0.008658642143434299
0.663,0.0065,-0.196,0.006847887967765922,0.9805036074460884,0.00910617547640357,0.008849693177071244
0.6640000000000001,0.0047000000000017765,-1.196,0.006862183232853291,0.9805036074460884,0.00914844750653396,0.008849693177071244
0.665,0.0127,-0.196,0.006867385583760817,0.9617029828144473,0.009163831197075386,0.008272829419315725
0.6660000000000001,0.0021999999999985347,1.804,0.00689006325360438,0.9617029828144473,0.009230890544142766,0.008272829419315725
0.667,-0.0044,-0.196,0.006869516298995197,0.9617029828144473,0.009170131860829189,0.008272829419315725
0.6680000000000001,-0.003299999999999756,-0.196,0.006836593803205737,0.9576242440754451,0.009072777896039181,0.008147680569105505
0.669,-0.0022,0.804,0.006848105860909326,0.9535280585949898,0.009106819800623295,0.008021996396636985
0.6700000000000002,-0.0046999999999990235,1.804,0.006818381466875518,0.949414200554633,0.009018922831065534,0.007895769973072364
0.671,-0.0003,0.804,0.006806932678269986,0.949414200554633,0.008985068017326047,0.007895769973072364
0.6719999999999999,-0.0058,0.804,0.006775002808883922,0.9299852832997978,0.008890649313475664,0.007299628172662037
0.673,0.0011,-1.196,0.0067862104566926455,0.923418140100866,0.008923791058169837,0.007098127053540778
0.6739999999999999,0.0095,-0.196,0.006782357886258852,0.923418140100866,0.008912398756420872,0.007098127053540778
0.675,-0.0007,-0.196,0.006748239228603251,0.9429823744524233,0.008811507663068553,0.007698420818602976
0.6759999999999999,-0.0072,-0.196,0.00674870777272781,0.9452824392220854,0.008812893178568246,0.00776899421880136
0.677,-0.0036,0.804,0.0067470550807403815,0.9304463743755027,0.00880800606069657,0.00731377593295246
0.6779999999999999,-0.009,-0.196,0.0068011661383051755,0.9262300045212208,0.008968015982988051,0.007184404116542985
0.679,0.004,-1.196,0.006818322653573638,0.9219943529991077,0.009018748916300473,0.007054440676419997
0.6799999999999999,0.0058,-0.196,0.006830017654791541,0.9177391528365267,0.009053331796774299,0.006923877421002558
0.681,0.0072,-0.196,0.006809538221556505,0.9327773512270991,0.008992772778562764,0.007385297815453642
0.6819999999999999,0.0028,-0.196,0.006888977617213966,0.9262300045212207,0.009227680246612378,0.007184404116542982
0.683,0.0064,-1.196,0.006881262959443833,0.9262300045212207,0.00920486750101364,0.007184404116542982
0.6839999999999999,-0.0023,0.804,0.006754671149399487,0.9285715657121457,0.008830527271871398,0.007256250760687888
0.685,0.0053,-0.196,0.00675800314824481,0.9243466440334862,0.008840380209520549,0.007126616546744139
0.6859999999999999,-0.0096,0.804,0.00660965070457659,0.9434371134115105,0.008401692369153,0.007712373675482816
0.687,-0.0118,0.804,0.0065948143171602296,0.9434371134115105,0.008357820205044298,0.007712373675482816
0.688,-0.0176,0.803999999999889,0.006584514911948486,0.9475769210335278,0.008327364192876984,0.00783939631584779
0.6890000000000001,-0.0122,-0.196,0.006598159307848421,0.9516987210186415,0.008367711560419166,0.007965866423874292
0.69,-0.0075,-0.19599999999988899,0.006609793600310782,0.9327773512270991,0.00840211492114797,0.007385297815453642
0.6910000000000001,-0.0032,0.803999999999889,0.006610526991063359,0.9327773512270993,0.008404283605380184,0.007385297815453645
0.692,0.0058,-0.19600000000011103,0.006599001200911179,0.9392790600503697,0.008370201093050983,0.00758479119703586
0.6930000000000001,0.0232,-1.1959999999996669,0.006606912679456746,0.9351025175540747,0.008393595850504594,0.007456641412332243
0.694,0.0068,1.803999999999778,0.0066001173810098625,0.9475769210335279,0.008373501710316497,0.007839396315847794
0.6950000000000001,0.009,-0.19600000000011103,0.006572093472438976,0.9539777706855875,0.008290633187050955,0.008035795012990067
0.696,0.0071,-1.195999999999889,0.006500369538124018,0.9475769210335279,0.008078540840815928,0.007839396315847794
0.6970000000000001,0.0053,-0.196,0.006499975401257586,0.9516987210186415,0.008077375352425786,0.007965866423874292
0.698,0.0005,-0.196,0.006489840534786946,0.9452824392220853,0.008047405892034815,0.007768994218801357
0.6990000000000001,0.0081,-0.19600000000011103,0.006529997465513843,0.9304463743755026,0.008166152552223098,0.007313775932952456
0.7,-0.0043,-1.196000000000111,0.006530786418093106,0.9281095432193297,0.008168485536396406,0.007242074421518557
0.7010000000000001,0.0069,-2.195999999999778,0.006537276354612052,0.9281095432193297,0.008187676701470747,0.007242074421518557
0.702,0.0025,-0.19600000000011103,0.006540649938092897,0.9323174129704594,0.008197652607596171,0.007371185427367654
0.7030000000000001,-0.0099,-1.196,0.006574154045404978,0.9172716741591843,0.008296726435547736,0.0069095336685067775
0.704,-0.0114,-1.196,0.00658082666669422,0.9196360451768505,0.00831645781138887,0.006982080191651743
0.7050000000000001,-0.019,0.804,0.006578803677070237,0.9262300045212207,0.00831047569928281,0.007184404116542982
0.706,-0.0068,-0.196,0.006558428451713558,0.9262300045212207,0.008250224830556215,0.007184404116542982
0.7070000000000001,-0.0083,0.804,0.006558838138073911,0.9262300045212208,0.008251436299812853,0.007184404116542985
0.708,-0.004,-0.196,0.006599015513835892,0.9285715657121458,0.008370243417301774,0.007256250760687892
0.7090000000000001,-0.0004,-1.196,0.006600564641171283,0.9219943529991077,0.008374824287750644,0.007054440676419997
0.71,-0.0015,0.804,0.006534558392295579,0.9153698822199585,0.008179639509838903,0.006851180562371963
0.7110000000000001,-0.0026,-2.196,0.006535714017722379,0.9196360451768505,0.008183056769509329,0.006982080191651743
0.712,0.0038,-1.196,0.006532532551521634,0.9172716741591843,0.008173648966696668,0.0069095336685067775
0.7130000000000001,0.0082,-1.196,0.006426243847769799,0.9172716741591843,0.00785934634551007,0.0069095336685067775
0.714,0.0027,0.804,0.006393483887971584,0.9172716741591843,0.007762473010234602,0.0069095336685067775
0.7150000000000001,0.0063,-0.196,0.0063929304971139045,0.9106128477722738,0.0077608365974177205,0.006705219413685155
0.716,-0.0032,0.804,0.0062945319513447485,0.9106128477722738,0.007469865687391347,0.006705219413685155
0.7170000000000001,0.0029,-0.196,0.006294192275559823,0.890819224030137,0.007468861243967096,0.00609788724280232
0.718,0.004,-0.196,0.006287439330469155,0.8952023928781652,0.007448892345412442,0.006232376989929926
0.7190000000000001,-0.0026,-0.196,0.00627911391349843,0.8952023928781652,0.007424273545069558,0.006232376989929926
0.72,-0.0019,-0.196,0.006275216761508443,0.890819224030137,0.007412749412754658,0.00609788724280232
0.7210000000000001,0.0002,0.804,0.00625780032279885,0.8750602582614057,0.007361247868894065,0.005614351382169724
0.722,-0.0049,-0.196,0.006264037257268295,0.8705756838296028,0.007379690890426179,0.0054767501849036365
0.7230000000000001,0.0001,-1.196,0.0062468962461733986,0.8705756838296028,0.007329003803965012,0.0054767501849036365
0.724,0.0005,-2.196,0.006246158447712212,0.8680776980787235,0.0073268220858513,0.00540010393110594
0.7250000000000001,-0.0032,-1.196,0.00623624661464167,0.8680776980787235,0.007297512149753961,0.00540010393110594
0.726,0.0026,0.804,0.006255758041297877,0.8750602582614057,0.007355208709450973,0.005614351382169724
0.7270000000000001,0.0095,-0.196,0.006214183971891241,0.8750602582614057,0.007232271477867005,0.005614351382169724
0.728,0.0051,-0.196,0.006251134298428874,0.8750602582614057,0.0073415360005729575,0.005614351382169724
0.7290000000000001,0.0058,-0.196,0.006217710268965536,0.881987540317538,0.00724269896803681,0.005826902722150605
0.73,0.0036,1.804,0.006284782102490263,0.881987540317538,0.007441034749173371,0.005826902722150605
0.7310000000000001,0.0115,-0.196,0.006290591592567442,0.881987540317538,0.0074582137897916305,0.005826902722150605
0.732,0.0006,0.804,0.00625056409156042,0.8888608366680598,0.007339849861716734,0.00603779760668845
0.7330000000000001,0.002,-1.196,0.006245885547761977,0.9086971198306496,0.00732601510292035,0.006646438706081286
0.734,-0.0071,-0.196,0.006225918425497467,0.901974994055631,0.007266971021623231,0.0064401822220197785
0.7350000000000001,-0.006,1.804,0.006224193097667651,0.901974994055631,0.007261869114833744,0.0064401822220197785
0.736,-0.0049,-0.196,0.006202643320082639,0.9063042117384167,0.007198145018651599,0.006573016573514163
0.7370000000000001,0.0016,0.804,0.006132861173690618,0.9019749940556309,0.00699179466580274,0.006440182222019775
0.738,-0.0046,0.804,0.006043008261059061,0.9043793569489413,0.00672609374967071,0.006513955824802564
0.7390000000000001,0.0062,-0.196,0.005820667143875928,0.9067773445830613,0.006068616581717118,0.006587533814086047
0.74,-0.0014,-1.196,0.005692359911383374,0.9262300045212218,0.0056892037366440915,0.007184404116543016
0.7410000000000001,0.0051,-1.196,0.005651151129741483,0.9327773512271004,0.005567346684777197,0.007385297815453679
0.742,-0.0036,-0.196,0.005652179286510588,0.928571565712148,0.005570387011322855,0.007256250760687959
0.7430000000000001,-0.0003,1.804,0.0056411539306655,0.94757692103353,0.005537784315840586,0.007839396315847858
0.744,0.0004,-1.196,0.0051513574382201005,0.9475769210335339,0.004089424179818774,0.007839396315847978
0.7450000000000001,-0.0003,-0.196,0.005207547315501625,0.9351025175540852,0.004255581307437628,0.0074566414123325665
0.746,-0.0025,0.804,0.005137519622485393,0.9585196136280745,0.00404850485722481,0.008175153392739267
0.7470000000000001,-0.0017,-0.196,0.005095088580924501,0.9706931300102664,0.003923033503153137,0.008548676110357431
0.748,0.0077,0.804,0.0051186342953551955,0.9769425358412799,0.003992659714613547,0.008740428022969446
0.7490000000000001,0.0015,0.804,0.0051606257586994265,0.9769425358412799,0.00411683120726217,0.008740428022969446
0.75,-0.0039,0.804,0.005098235809701431,0.9809409526822334,0.0039323400636731756,0.008863112338471575
0.7510000000000001,0.0026,0.804,0.0050920935821709284,0.9747171830650481,0.003914177096729209,0.008672147027524843
0.752,0.007,0.804,0.005046072924820227,0.9558027463350814,0.003778091014921048,0.00809179114777846
0.7530000000000001,0.003,-1.196,0.005039979927882807,0.9558027463350813,0.0037600736260479627,0.008091791147778459
0.754,0.0008,-1.196,0.0049562323235727394,0.949414200554648,0.0035124265043537375,0.007895769973072824
0.7550000000000001,0.0016,0.804,0.0048233320522828365,0.949414200554648,0.003119431744342798,0.007895769973072824
0.756,-0.0013,-0.196,0.004443051389739478,0.9452824392221004,0.001994917051765322,0.00776899421880182
0.7570000000000001,-0.0075,-1.196,0.004452645184962265,0.9452824392221004,0.0020232865292282316,0.00776899421880182
0.758,-0.0052,-0.196,0.004476598722888967,0.9411325388002194,0.002094118701334055,0.0076416618988081235
0.7590000000000001,-0.0001,-0.196,0.004519773140672842,0.9475769210335429,0.002221788267324438,0.007839396315848254
0.76,0.0021,0.804,0.004519967930304161,0.9452824392221004,0.002222364272953846,0.00776899421880182
0.7610000000000001,0.0018,0.804,0.004631424264181949,0.9411325388002194,0.002551947913068871,0.0076416618988081235
0.762,0.0033,0.804,0.004624142858256172,0.9215290329273185,0.002530416321398145,0.007040163156899733
0.7630000000000001,-0.0003,-0.196,0.00462497278460583,0.9149011929389402,0.0025328704676797495,0.006836799664653655
0.764,-0.0046,-0.196,0.004552006432386072,0.9082249870787708,0.0023171042107627414,0.006631952151578734
0.7650000000000001,-0.006,-0.196,0.0045446205207762625,0.9039049689215655,0.002295263588976293,0.006499400071179053
0.766,0.0021,-0.196,0.0045379725929037395,0.9106128477722881,0.0022756052331770545,0.006705219413685594
0.7670000000000001,-0.0033,0.804,0.004538517463318094,0.9063042117384311,0.0022772164504879593,0.006573016573514606
0.768,-0.0007,-0.196,0.004534240457418545,0.9063042117384311,0.0022645690654168483,0.006573016573514606
0.7690000000000001,0.0,-0.196,0.004526541248885367,0.9063042117384311,0.0022418020042182293,0.006573016573514606
0.77,-0.0006,0.804,0.004519559855642862,0.9063042117384311,0.002221157569596306,0.006573016573514606
0.7710000000000001,-0.0028,-0.196,0.004592761481003776,0.9063042117384312,0.0024376195445186136,0.006573016573514609
0.772,-0.0035,0.804,0.004650189247868099,0.9086971198306628,0.0026074371922762945,0.0066464387060816916
0.7730000000000001,-0.0005000000000018429,0.804,0.004638073656977298,0.9086971198306627,0.0025716106007403366,0.006646438706081688
0.774,-0.0088,-0.196,0.00464160334762342,0.9063042117384298,0.0025820481259231096,0.006573016573514565
0.7750000000000001,0.004999999999998801,-1.196,0.004767893452186405,0.8859303737620856,0.0029554961923023205,0.005947881559906771
0.776,-0.0004,-0.196,0.004780341692772217,0.8834758037323364,0.0029923064506569333,0.005872567440361391
0.7770000000000001,0.00769999999999969,0.804,0.004997862337780703,0.9039049689215569,0.0036355291683597643,0.006499400071178791
0.778,0.0063,-1.196,0.004937568688746017,0.9106128477722797,0.003457236920326026,0.006705219413685335
0.7790000000000001,0.0099999999999992,-1.196,0.005112113875036628,0.9106128477722795,0.0039733784069578525,0.006705219413685328
0.78,0.0064,-0.196,0.005346363391380513,0.9149011929389316,0.004666069487004111,0.00683679966465339
0.7810000000000001,-0.0011999999999994227,-1.196,0.005334309932925174,0.9149011929389316,0.004630426625127444,0.00683679966465339
0.782,0.0014,1.804,0.005213730581424508,0.9341847041497494,0.004273865627581314,0.007428479938992341
0.7830000000000001,0.003999999999999512,-0.196,0.005228630170350989,0.9489623257961785,0.004317924682672716,0.0078819049990992
0.784,0.0018,0.804,0.005229019940972463,0.961256884875164,0.004319077259792075,0.008259141696773312
0.7850000000000001,0.0010999999999992008,0.804,0.005224712942155836,0.961256884875164,0.004306341183711273,0.008259141696773312
0.786,-0.0025,-0.196,0.005195968873510442,0.9489623257961785,0.004221343100190484,0.0078819049990992
0.7870000000000001,0.005499999999997268,-1.196,0.005174302831400387,0.9489623257961785,0.004157275202233719,0.0078819049990992
0.788,-0.0068,-1.196,0.005194202572572934,0.9489623257961785,0.004216120033252351,0.0078819049990992
0.7890000000000001,0.0011999999999990451,1.804,0.0051761977269434555,0.9489623257961785,0.0041628785317978055,0.0078819049990992
0.79,-0.0031,-1.196,0.00513984342319037,0.9489623257961783,0.0040553764872937464,0.007881904999099196
0.7910000000000001,0.003400000000000266,-0.196,0.005165290224989744,0.942527416096545,0.004130624337949946,0.007684461229922475
0.792,0.0046,1.804,0.005250600128809444,0.942527416096545,0.0043828912810703734,0.007684461229922475
0.7930000000000001,-0.0030000000000015986,-1.196,0.005243711922870121,0.9466712018471709,0.00436252240737466,0.007811605932094595
0.794,-0.0102,-1.196,0.005252125810363904,0.9318572477014007,0.004387402820817649,0.007357066073808992
0.7950000000000002,0.0028999999999987786,-2.196,0.005281626826708694,0.9295239634995455,0.004474639247997014,0.007285473394365326
0.796,-0.0026,1.804,0.0052890150138785634,0.9295239634995455,0.0044964865987628016,0.007285473394365326
0.7970000000000002,-0.007199999999996935,-1.196,0.005438544566296792,0.9253033904654013,0.004938655226387035,0.007155972610850907
0.798,0.0066,-0.196,0.005515032597916812,0.9295239634995455,0.005164835318710916,0.007285473394365326
0.7990000000000002,0.0011999999999989562,0.804,0.005470620743090617,0.9253033904654013,0.0050335065707733835,0.007155972610850907
0.8,-0.0035,-0.196,0.005472972127483808,0.9253033904654013,0.005040459767605314,0.007155972610850907
0.8009999999999999,0.0009,0.804,0.005461001051684478,0.9253033904654013,0.005005060516609294,0.007155972610850907
0.802,-0.0002,-0.196,0.0054592516105567805,0.9276472906123815,0.004999887305227106,0.007227891021705997
0.8029999999999999,-0.0038,-0.196,0.005414342269616298,0.942527416096545,0.004867087458440825,0.007684461229922475
0.804,-0.0005,-1.196,0.005469253578510971,0.94022061172892,0.005029463776047245,0.0076136810371369955
0.8049999999999999,-0.003,-0.196,0.005491386916521444,0.9379081337456133,0.005094913498423602,0.0075427267595364455
0.806,-0.0074,-0.196,0.0054947261105527615,0.9526279975201845,0.005104787712706469,0.007994379621982177
0.8069999999999999,-0.0095,-0.196,0.005496486015746062,0.9526279975201845,0.005109991867012327,0.007994379621982177
0.808,-0.0074,-1.196,0.005474541233076407,0.9526279975201846,0.005045099715062231,0.00799437962198218
0.8089999999999999,0.0006,0.804,0.0054735982495463424,0.958995134161889,0.0050423112513330376,0.008189743895310362
0.81,-0.0102,-0.196,0.0055133775751837425,0.9630680669917971,0.005159941308672543,0.008314714601517241
0.8109999999999999,0.0003,0.804,0.005563135444854881,0.958995134161889,0.0053070785707734535,0.008189743895310362
0.812,0.0039,-0.196,0.0055994361194699836,0.958995134161889,0.00541442203042282,0.008189743895310362
0.813,0.0003,-0.196,0.0057173808587691125,0.9589951341618889,0.005763192308056824,0.008189743895310358
0.8140000000000001,-0.0007,-0.19600000000011103,0.005763863109877472,0.9630680669917971,0.00590064335267697,0.008314714601517241
0.815,0.0058,-1.195999999999889,0.005953717210556077,0.967123847277304,0.006462054296455455,0.008439159012379564
0.8160000000000001,0.0033,-0.196,0.005924284821214094,0.967123847277304,0.006375020803794106,0.008439159012379564
0.817,-0.0021,-0.196,0.006179176309915625,0.9733961689154712,0.0071287515408260905,0.008631614055812264
0.8180000000000001,0.003,-0.196,0.006817301170840664,0.9919752006577103,0.009015728325314436,0.009201678629531248
0.819,-0.0007,-0.196,0.00747994398111404,0.9959132658183855,0.01097520628325104,0.009322511160970118
0.8200000000000001,0.0084,-0.19600000000011103,0.007511591829341778,0.9959132658183855,0.011068791032163945,0.009322511160970118
0.821,0.0073,-1.195999999999889,0.007516984891605421,1.0097879318679637,0.011084738668609331,0.009748230633156822
0.8220000000000001,0.0036,-0.19599999999988899,0.007511723652701115,1.0136567967805064,0.011069180842425155,0.0098669398779519
0.823,-0.0018,0.804,0.00754616249621703,1.0136567967805064,0.011171018746224975,0.0098669398779519
0.8240000000000001,-0.0109,0.804,0.007614774336469676,1.0097879318679637,0.01137390842757995,0.009748230633156822
0.825,-0.0047,0.803999999999667,0.007664779784388305,1.0097879318679637,0.011521777794687209,0.009748230633156822
0.8260000000000001,-0.0148,-2.195999999999889,0.007720431076163819,1.003743045634348,0.011686342289878563,0.009562754040955758
0.827,0.0055,-1.195999999999889,0.007723144315715724,1.0076351204540532,0.011694365515987912,0.009682175440507675
0.8280000000000001,0.0142,-0.19599999999988899,0.007715591321675081,1.0097879318679637,0.011672030820568884,0.009748230633156822
0.829,0.0167,0.8040000000001111,0.007698403539019406,1.0213505618961551,0.011621205427555556,0.010103009388559115
0.8300000000000001,0.0,1.804,0.007652327564183767,1.0153745144520465,0.011484955768340768,0.009919644992286243
0.831,0.0022,1.804,0.007653168836132503,1.0213505618961551,0.011487443464297958,0.010103009388559115
0.8320000000000001,0.004,1.804,0.007780811924610141,1.019222173479299,0.011864892392253126,0.010037703572174452
0.833,0.0021,1.804,0.007780201145666042,1.00547769970235,0.011863086279126142,0.009615978818519237
0.8340000000000001,0.0068,-0.196,0.007797014299499477,1.00547769970235,0.01191280387030686,0.009615978818519237
0.835,0.0025,-1.196,0.007797014299499477,1.0015772412977402,0.01191280387030686,0.009496300183562314
0.8360000000000001,0.0013,-0.196,0.007800629259849922,0.9976615337740822,0.011923493543560223,0.009376153656485371
0.837,-0.0048,0.804,0.007821291562948803,0.9976615337740822,0.011984593319872228,0.009376153656485371
0.8380000000000001,-0.0016,0.804,0.0078063844925309635,0.9954824983889616,0.011940512141523496,0.009309293827880136
0.839,0.0009,-0.196,0.007784990273486878,0.9893502104471734,0.011877248042080757,0.009121135469578292
0.8400000000000001,-0.0053,-0.196,0.0077847414660384435,0.9711626899163659,0.011876512302247138,0.00856308372165924
0.841,-0.0107,-1.196,0.007786900491796665,0.9689240625105078,0.011882896682064232,0.008494395417793824
0.8420000000000001,-0.0024,0.804,0.007816677679360225,0.9689240625105078,0.011970949765528713,0.008494395417793824
0.843,0.003,0.804,0.0079060664856515,0.9544555540195305,0.012235278288978257,0.008050454945562066
0.8440000000000001,0.0056,0.804,0.00792471151288704,0.9544555540195305,0.012290412849146646,0.008050454945562066
0.845,-0.0028,-0.196,0.007882964573490324,0.9521776479339367,0.012166964429740372,0.007980561445207916
0.8460000000000001,-0.0129,-0.196,0.0078833372724809,0.9286006363616593,0.012168066524935033,0.007257142741909119
0.847,-0.0093,0.804,0.007923533042640851,0.9332659881291769,0.012286928035857058,0.00740029077047686
0.8480000000000001,-0.0032,-0.196,0.007998451168118715,0.9332659881291769,0.012508465813446829,0.00740029077047686
0.849,0.0022,0.804,0.00801956949929399,0.9397643163504302,0.012570914094488746,0.007599680424293574
0.8500000000000001,0.0015,0.804,0.008035455080163675,0.9355899400765564,0.01261788879198878,0.007471597106275531
0.851,0.0022,-1.196,0.00805236577994729,0.9397643163504303,0.012667894832898825,0.007599680424293578
0.8520000000000001,-0.0,1.804,0.008074289120661713,0.979190399724112,0.012732723579590462,0.008809399731717415
0.853,0.0083,0.804,0.008145008035712201,0.9972315215325582,0.012941844018388332,0.009362959494994114
0.8540000000000001,0.005,0.804,0.008160530239037183,1.014952006828114,0.012987744184816404,0.00990668109664993
0.855,0.0025,1.804,0.008193062920360933,1.0128101721402145,0.01308394544283679,0.00984096270533258
0.8560000000000001,-0.0019,-0.196,0.008195934810838353,1.0166675361709099,0.013092437810068228,0.00995931906600546
0.857,0.0057,-1.196,0.008175940417631119,1.022636027524305,0.013033313086816902,0.010142451617062101
0.8580000000000001,-0.0051,-1.196,0.008138434811974527,1.0399237055750608,0.012922406567582454,0.010672893297517912
0.859,-0.0066,0.804,0.008104995998824948,1.0399237055750608,0.012823525818723007,0.010672893297517912
0.8600000000000001,-0.0077,-0.196,0.008106148586351957,1.0532187558765287,0.012826934095125846,0.011080828290462025
0.861,-0.0066,0.804,0.008050019918538018,1.0569286551339405,0.012660957967890142,0.011194659956614396
0.8620000000000001,-0.012,0.804,0.00805551208663987,1.0589812620707533,0.012677198666755372,0.011257640552949056
0.863,-0.0073,0.804,0.008046760020258581,1.0626710439877916,0.012651318236311318,0.011370854954260958
0.8640000000000001,-0.0156,0.804,0.008046856466546296,1.0683825688473982,0.012651603434267099,0.011546102945090037
0.865,0.0011,-0.196,0.008048756251592978,1.0683825688473982,0.012657221222411898,0.011546102945090037
0.8660000000000001,0.0177,-1.196,0.008028408873692716,1.06634805858277,0.012597052700428055,0.01148367761298323
0.867,0.029,-2.196,0.008049505321807754,1.070012437477425,0.012659436271835274,0.01159611256769495
0.8680000000000001,0.0308,0.804,0.008059240505251858,1.0736643100473804,0.012688223843479373,0.011708163788057247
0.869,0.0069,-0.196,0.00808225517682087,1.0736643100473804,0.01275627972660293,0.011708163788057247
0.8700000000000001,-0.0029,1.804,0.00808674914354676,1.0793176623943388,0.012769568678971473,0.01188162685870937
0.871,-0.0,0.804,0.00804645081006953,1.0793176623943388,0.012650403881638754,0.01188162685870937
0.8720000000000001,-0.008,0.804,0.008013385075292674,1.0736643100473815,0.01255262634983169,0.01170816378805728
0.873,-0.0102,-0.196,0.008024994739243346,1.0736643100473817,0.012586956882447002,0.011708163788057287
0.8740000000000001,-0.0124,-0.196,0.008037971257513243,1.070012437477426,0.012625329292328178,0.011596112567694985
0.875,-0.0105,-0.196,0.00796817550564862,1.0663480585827712,0.012418938707210505,0.011483677612983264
0.8760000000000001,0.0021,0.804,0.007965375152039848,1.066348058582774,0.012410657879159941,0.011483677612983353
0.877,0.0069,-1.196,0.007828970785249183,1.0453492481795406,0.012007301280478458,0.010839366431044311
0.8780000000000001,-0.0036,1.804,0.00791371832613768,1.0432698209455729,0.012257905279776105,0.010775562901551627
0.879,0.0054,-0.196,0.007831628241484263,1.043269820945573,0.012015159551685948,0.010775562901551634
0.8800000000000001,0.0065,-1.196,0.007746657409024482,1.060625577834324,0.011763895264665654,0.011308093460173942
0.881,0.0141,0.804,0.007747058131384987,1.0436808648864457,0.01176508022679078,0.010788175054444437
0.8820000000000001,0.001,0.804,0.007773870468472212,1.0264564672229624,0.011844366054251142,0.010259675020221633
0.883,0.0065,-0.196,0.007763696955375931,1.0089380607735885,0.011814282313270509,0.009722153848862967
0.8840000000000001,0.0018,-0.196,0.007845804157919033,0.9972315215325663,0.012057078660075615,0.009362959494994362
0.885,-0.0026,-0.196,0.007881521715765633,0.9972315215325663,0.012162697805453294,0.009362959494994362
0.8860000000000001,-0.0062,-0.196,0.007885869855908074,0.9972315215325663,0.012175555539114686,0.009362959494994362
0.887,-0.0026,0.804,0.007980363140473354,1.0033156398786076,0.012454978337352414,0.009549639854848998
0.8880000000000001,-0.0036,-0.196,0.008213369038756455,0.9994067434792915,0.013143991957777261,0.009429702315018986
0.889,-0.001,-0.196,0.008227683027401858,1.0015772412977493,0.013186319354688504,0.009496300183562593
0.8900000000000001,-0.0036,0.804,0.008292526518123757,1.0234745241867655,0.013378065780991402,0.01016817939712524
0.891,-0.0076,-0.196,0.008621742345070602,1.0234745241867653,0.014351578428084153,0.010168179397125233
0.8920000000000001,-0.0127,0.804,0.00875667802257216,1.0213505618961605,0.014750592016859777,0.01010300938855928
0.893,-0.0062,-1.196,0.00877397691692933,1.0348842469565107,0.014801745974412814,0.010518266465021206
0.8940000000000001,0.0062,0.804,0.008821410559323561,1.0708138368666171,0.0149420103450438,0.011620702083850406
0.895,0.003,-0.196,0.0088270127496328,1.0708138368666154,0.014958576386743689,0.011620702083850352
0.8960000000000001,0.0084,-2.196,0.008829519890044912,1.0764821591238098,0.014965990164270315,0.011794624479596255
0.897,0.0131,-1.196,0.008755957700557128,1.0801121577063177,0.01474846197773585,0.011906004535524213
0.8980000000000001,0.0087999999999992,-1.196,0.008706657212560575,1.0801121577063166,0.014602677223042879,0.011906004535524178
0.899,0.0052,-0.196,0.008701876196724925,1.0801121577063166,0.014588539447756921,0.011906004535524178
0.9000000000000001,0.006299999999997269,0.804,0.00870968697046982,1.0764821591238092,0.01461163641455452,0.011794624479596234
0.901,-0.006,2.804,0.008721700165807124,1.0784975522853915,0.014647160215768212,0.011856463237367531
0.9020000000000001,-0.010699999999999023,1.804,0.008741056152460317,1.072839878359636,0.014704397129250153,0.011682867566749548
0.903,-0.0063,1.804,0.008851072639834189,1.0618380769492592,0.015029723049454095,0.011345296840881813
0.9040000000000001,-0.0072999999999992,0.804,0.008835306517871552,1.0618380769492586,0.014983101599724366,0.011345296840881793
0.905,-0.0037,0.804,0.00882451194065702,1.0581453904573614,0.014951181331686755,0.01123199331785183
0.9060000000000001,-0.0047000000000001554,-1.196,0.008835230875991305,1.0411603136500578,0.014982877921756774,0.010710836418823203
0.907,-0.0054,1.804,0.008835179446611467,1.0411603136500578,0.014982725841730217,0.010710836418823203
0.9080000000000001,0.0008000000000001555,-1.196,0.008825865533335184,1.0352986202217331,0.01495518399341607,0.010530980772315408
0.909,0.0015,1.804,0.008813765177361836,1.029403549316866,0.014919402452523507,0.010350100997252318
0.9100000000000001,0.003699999999999845,0.804,0.00879797258399222,1.0255940878500736,0.014872702725118855,0.010233214441629035
0.911,0.003,-1.196,0.008780654229341765,1.0255940878500736,0.01482149122221083,0.010233214441629035
0.9120000000000001,-0.000999999999999667,0.804,0.008764801976214865,1.021770423686205,0.014774615077017349,0.010115892101484437
0.913,0.0005,-1.196,0.008696418118707114,1.021770423686205,0.014572399555491002,0.010115892101484437
0.9140000000000001,0.001899999999999778,-0.196,0.008666337482000462,1.0238935150168753,0.01448344915314216,0.01018103538619251
0.915,0.0009,0.804,0.008527113952476814,1.0200634763486411,0.014071756106604496,0.010063517455709067
0.9160000000000001,0.006699999999999512,0.804,0.008530976837375453,1.0238935150168753,0.014083178908897947,0.01018103538619251
0.917,0.0045,0.804,0.008375637337709525,1.021770423686205,0.013623829888772443,0.010115892101484437
0.9180000000000001,0.0067999999999991114,-0.196,0.007858171275929032,1.0059041868055945,0.012093649033688807,0.009629064817406626
0.919,0.0028,-1.196,0.007229949782552077,1.0059041868055945,0.010235957152196407,0.009629064817406626
0.9200000000000002,-0.0022999999999995116,-0.196,0.007211672753821739,1.0059041868055945,0.010181910787581214,0.009629064817406626
0.921,-0.0001,-0.196,0.007236762262737874,1.0102125992980264,0.01025610209990578,0.009761260798606224
0.9220000000000002,-0.005599999999999845,-0.196,0.007250665615143478,1.0063304931618327,0.01029721521870498,0.009642145270393318
0.923,-0.0049,-0.196,0.007214816399456115,1.0024333529737526,0.010191206752515294,0.009522568449014076
0.9240000000000002,-0.002700000000000333,-0.196,0.007143168018682456,1.0024333529737526,0.009979337823023834,0.009522568449014076
0.925,-0.0042,0.804,0.007035729866477653,1.0200634763486411,0.009661636207880832,0.010063517455709067
0.9260000000000002,0.0020000000000023983,-0.196,0.0069687590812403605,1.02601221311802,0.00946359923311302,0.010246043872459445
0.927,0.0128,0.804,0.00698901055366871,1.0221901130191975,0.009523484156368644,0.010128769522871409
0.9279999999999999,0.0085,-0.196,0.0069632324068557485,1.0221901130191977,0.00944725649692175,0.010128769522871416
0.929,0.0121,-2.196,0.006959541237046479,1.0045973116268654,0.00943634146733397,0.009588965674889292
0.9299999999999999,0.0008,-0.196,0.006955153321203795,1.0045973116268654,0.009423366114335762,0.009588965674889292
0.931,-0.0068,-0.196,0.006937623270952851,0.9985210027040305,0.009371528613746153,0.009402524933308254
0.9319999999999999,-0.0003,-0.196,0.006795699692168221,0.9945932628607159,0.008951851345648682,0.009282009215884308
0.933,-0.0115,-1.196,0.00687428982811085,1.0084860895624999,0.009184247497396396,0.009708285915412122
0.9339999999999999,-0.0101,-0.196,0.00684405755442156,1.0084860895624999,0.00909484869461148,0.009708285915412122
0.935,-0.0036,-1.196,0.006860614739662566,1.0084860895624999,0.009143809369989276,0.009708285915412122
0.9359999999999999,-0.0123,-1.196,0.006857094692613759,1.0084860895625,0.009133400361552,0.009708285915412129
0.937,-0.02,-0.196,0.006833517597873323,1.0123599296466648,0.009063681356471407,0.009827147814507454
0.938,-0.0051,-1.196000000000111,0.0068289786676389505,1.0145027148943098,0.009050259444079126,0.009892895372061433
0.9390000000000001,0.0104,-2.195999999999778,0.0068441417122851065,1.0145027148943098,0.009095097554896465,0.009892895372061433
0.94,0.0242,-0.19599999999988899,0.0068482855394639075,1.0145027148943098,0.00910735112181438,0.009892895372061433
0.9410000000000001,0.0187,0.8040000000001111,0.006840372442635392,1.010637088283815,0.009083951578992663,0.00977428548881017
0.942,-0.006,1.804000000000111,0.006845833803482487,1.0166409837802381,0.009100101178798637,0.009958504353081798
0.9430000000000001,-0.0096,2.803999999999778,0.006729783171595436,1.0127835186201013,0.008756931900174039,0.009840144889431718
0.944,-0.0064,0.803999999999778,0.006701672480074689,1.0127835186201013,0.00867380675407227,0.009840144889431718
0.9450000000000001,-0.0035,-1.195999999999778,0.00679447095996968,1.0089113049596459,0.008948217904491665,0.009721332894257726
0.946,-0.0061,0.804,0.006876257878273237,1.0127835186201013,0.009190067149935477,0.009840144889431718
0.9470000000000001,0.0008,0.803999999999889,0.006854958924794834,0.9945932628607159,0.009127084756976546,0.009282009215884308
0.948,-0.0014,-0.196,0.0067740504973736555,0.9884554581978201,0.00888783326630134,0.009093681586798595
0.9490000000000001,0.0043,-0.19600000000011103,0.006716837984535172,0.9884554581978201,0.008718652138720822,0.009093681586798595
0.95,-0.0048,-1.195999999999889,0.006707612457500851,0.9945932628607159,0.00869137165428209,0.009282009215884308
0.9510000000000001,-0.0062,-0.19600000000011103,0.006695939044903137,0.996774242194114,0.00865685261276456,0.009348928691088007
0.952,-0.0139,-1.195999999999778,0.0066744071265468045,0.9603359582193571,0.008593181327485062,0.008230884698844003
0.9530000000000001,0.0064,0.803999999999889,0.006591194834256422,0.9457360722400058,0.00834711715830602,0.007782913141841773
0.954,-0.0024,-0.196,0.006577630171213894,0.926692964098508,0.0083070055660174,0.007198609208484095
0.9550000000000001,-0.005,-0.196,0.006537250206695801,0.9224594383475846,0.008187599380378982,0.007068710993872529
0.956,0.0019,-0.196,0.006526703256768833,0.924810546420323,0.008156411362362415,0.00714085056712089
0.9570000000000001,0.004,-0.196,0.006528937673738948,0.9224594383475792,0.008163018678904451,0.007068710993872362
0.958,0.0022,-0.196,0.006633349138168402,0.9072502306879784,0.00847177018112175,0.006602043483887856
0.9590000000000001,0.004,-0.196,0.006702164424378365,0.9005173043293101,0.00867526146542602,0.0063954556031099
0.96,0.0054,-0.196,0.006738149944907819,0.884931060073824,0.008781672993913367,0.005917219395181833
0.9610000000000001,0.004,-0.196,0.006796362659828895,0.8873816047547455,0.008953811784210416,0.005992410004051553
0.962,0.005,0.804,0.0067955127278484595,0.887381604754737,0.00895129847997533,0.005992410004051293
0.9630000000000001,-0.0011,-1.196,0.006795477535097242,0.9029255488523015,0.008951194412717344,0.006469348306801718
0.964,0.0021,-0.196,0.0067954951314956324,0.9029255488522988,0.008951246446413704,0.006469348306801637
0.9650000000000001,0.0028,0.804,0.0068039896956007895,0.9029255488522988,0.008976365425852216,0.006469348306801637
0.966,0.0071,0.804,0.0068091204563232345,0.9182063935103882,0.008991537419552609,0.006938213870784462
0.9670000000000001,-0.0005,-1.196,0.00678734049645326,0.9182063935103882,0.008927132659358572,0.006938213870784462
0.968,0.0002,0.804,0.006774173449787936,0.9205683638150287,0.008888196844600118,0.007010686732316347
0.9690000000000001,0.0046,-0.196,0.006740567000208559,0.9271556925047388,0.008788820383897061,0.007212807207352139
0.97,0.0067,-2.196,0.006737171708994077,0.9271556925047335,0.008778780286589117,0.007212807207351976
0.9710000000000001,0.0045,-0.196,0.006744419907821494,0.9313678717118544,0.008800213682706712,0.007342050441200176
0.972,-0.0035,-0.196,0.006786962385435272,0.9313678717118546,0.008926014560446288,0.007342050441200183
0.9730000000000001,0.0012,-0.196,0.006771824596910588,0.9378793515926942,0.008881251133625452,0.007541843630320554
0.974,-0.0013,1.804,0.006756416727792745,0.9378793515926936,0.00883568906089621,0.0075418436303205365
0.9750000000000001,0.0041,-1.196,0.0067726296746873325,0.9566998206178395,0.008883631801058191,0.008119316278026886
0.976,-0.0057,-0.196,0.006761687276858604,0.9525996601180734,0.00885127441783461,0.007993510139154501
0.9770000000000001,0.0034,-1.196,0.006764611057588259,0.9525996601180734,0.008859920227922303,0.007993510139154501
0.978,-0.0028,-0.196,0.006652866979369769,0.967095934626036,0.008529485709046677,0.008438302562276716
0.9790000000000001,0.0048,-0.196,0.0068263084222486255,0.967095934626036,0.009042363354506425,0.008438302562276716
0.98,-0.0042,-0.196,0.006729098872707253,0.9480294561402712,0.008754908383782933,0.00785328155143475
0.9810000000000001,0.0019,-0.196,0.006791079646156837,0.9480294561402712,0.008938189568619477,0.00785328155143475
0.982,-0.0104,1.804,0.006771717680244023,0.9544272708784474,0.008880934974077319,0.008049587127637607
0.9830000000000001,0.0008,-0.196,0.006771671932753735,0.9585196136280251,0.008880799695768313,0.008175153392737751
0.984,0.0051,-0.196,0.006674344882988457,0.9562513886713542,0.008592997269228162,0.008105556940621053
0.9850000000000001,-0.0014,-0.196,0.0066388051565184816,0.9747171830649997,0.00848790398281601,0.008672147027523357
0.986,-0.0025,0.804,0.006641713143632525,0.9724867380013174,0.008496503090153462,0.008603709784287428
0.9870000000000001,0.0008,-1.196,0.006530967611725571,0.9724867380013174,0.008169021337771488,0.008603709784287428
0.988,-0.0058,-0.196,0.006218840105561949,0.9765033998412808,0.007246039968455765,0.00872695391516247
0.9890000000000001,0.0026,-0.196,0.006209505725959621,0.9702511655312326,0.007218437599882222,0.008535115215697537
0.99,0.0015,-0.196,0.006186523821791834,0.9512479314848137,0.007150478612098727,0.007952034748090333
0.9910000000000001,0.0081,-1.196,0.0057334951643510995,0.969808999638801,0.005810843359431443,0.008521548141025447
0.992,-0.002,-0.196,0.00542191184430252,0.9657644958618392,0.004889471183908981,0.008397449729789262
0.9930000000000001,-0.0009,-1.196,0.005507500957751846,0.9535280585949508,0.005142563768093363,0.00802199639663579
0.994,0.0128,-0.196,0.005427800741443965,0.915369882219925,0.00490688503638926,0.006851180562370935
0.9950000000000001,0.011,0.804,0.005391333732678213,0.9110837431115681,0.004799049715820562,0.006719668000381456
0.996,-0.0064,0.804,0.005396345691635469,0.9086971198306208,0.0048138704049619325,0.0066464387060804035
0.9970000000000001,-0.0078,-0.196,0.005373111298678989,0.9043793569489124,0.0047451647913818555,0.006513955824801675
0.998,-0.0002,-1.196,0.00541400166514484,0.9067773445830323,0.004866080268829998,0.006587533814085158
0.9990000000000001,-0.0038,-1.196,0.005417532019504884,0.9134641308425405,0.004876519756658075,0.006792705967912219
1.0,0.0049,-1.196,0.005411942217844105,0.9201023225830811,0.004859990348998743,0.0069963870852781385
1.0010000000000001,-0.0027,-1.1959999999995559,0.005465320027994294,0.9201023225830826,0.005017832010917733,0.006996387085278183
1.002,0.0021,0.804,0.0054688110914573014,0.9243466440334599,0.005028155313003662,0.007126616546743332
1.0030000000000001,0.0047,-0.196,0.005320738447008358,0.9243466440334626,0.004590294857155075,0.007126616546743413
1.004,-0.0007,-0.196,0.005402017272730128,0.9201023225830861,0.00483064163973478,0.006996387085278292
1.0050000000000001,0.0,-1.1959999999995559,0.0057419425312511775,0.9266929640984937,0.005835822773659868,0.0071986092084836565
1.006,-0.005,0.804,0.005727951267936211,0.9309072370665025,0.005794449696574712,0.007327916685664049
1.0070000000000001,-0.0129,0.803999999999778,0.005738026439771162,0.9351025175540524,0.0058242426360391375,0.007456641412331559
1.008,-0.0096,-0.196,0.00604679589244458,0.9392790600503474,0.006737294022423463,0.0075847911970351786
1.0090000000000001,-0.0071,0.803999999999556,0.006120003833627303,0.9457360722399917,0.006953774673642308,0.007782913141841341
1.01,-0.0096,-1.196,0.0062906193919621866,0.9457360722399917,0.007458295994412886,0.007782913141841341
1.0110000000000001,0.0028,-1.1959999999993338,0.006307454777946684,0.9498658603450617,0.007508079327512611,0.00790962835113366
1.012,0.001,1.804,0.006353147698256545,0.9539777706855657,0.007643196269540533,0.008035795012989396
1.0130000000000001,-0.0005,-1.195999999999778,0.006377647512636499,0.9562513886713717,0.0077156438167058795,0.008105556940621591
1.014,0.0039,-0.196,0.006408595333937601,0.9729276869443019,0.007807158540393369,0.008617239519028277
1.0150000000000001,0.0028,1.803999999999778,0.006406339310115127,0.9954553809169524,0.007800487330981326,0.009308461776439795
1.016,0.0039,0.804,0.006411024711029317,0.9954553809169524,0.007814342366715684,0.009308461776439795
1.0170000000000001,-0.0015,-1.196,0.006371992807162506,0.9954553809169524,0.0076989224842427045,0.009308461776439795
1.018,-0.0008,-1.196,0.006478531534138725,1.0114855318210823,0.0080139644403916,0.009800318471050966
1.0190000000000001,0.0018,-1.1959999999995559,0.006484178003426618,1.011485531821082,0.008030661417915929,0.00980031847105096
1.02,0.0039,0.804,0.006480983336191879,1.011485531821082,0.008021214578785765,0.00980031847105096
1.0210000000000001,0.0076,-0.19600000000022205,0.006553706532881511,0.9893229248883562,0.008236261808959791,0.00912029826069294
1.022,-0.0033,-1.196,0.006625488995697691,0.9932715056935789,0.008448527227785779,0.009241453445998252
1.0230000000000001,-0.0018000000000007992,-0.19599999999955592,0.006631541569219088,0.9993797324889334,0.008466425081984297,0.009428873530778892
1.024,-0.0054,1.804,0.006704155291560821,1.0032887341253212,0.008681148589379864,0.009548814299621436
1.0250000000000001,-0.001700000000000244,-0.196,0.006711549775790912,1.0032887341253212,0.00870301456096295,0.009548814299621436
1.026,-0.0028,-0.196,0.006704575051982944,0.9972044516225983,0.008682389848293432,0.009362128902910737
1.0270000000000001,0.0037000000000030646,1.804,0.006681440904661593,1.0011219469420618,0.008613980667586948,0.009482330285325025
1.028,0.0175,-0.196,0.006683724594723066,0.9950244152593452,0.00862073368787003,0.00929523836107026
1.0290000000000001,0.003800000000001199,0.804,0.006679048879459619,0.9989504598704276,0.008606907293235893,0.009415702063305623
1.03,0.0092,-0.196,0.006661898355203164,1.0028611347482144,0.008556192075736263,0.009535694172587114
1.0310000000000001,0.004499999999999045,-1.196,0.006657197018157861,1.0204838676896129,0.008542289915824045,0.0100764164169634
1.032,0.0002,0.804,0.00669216172453178,1.0264301680589936,0.008645682830352395,0.010258868077109363
1.0330000000000001,0.0012999999999980681,0.804,0.006616131471930319,1.0089113049596279,0.008420856420408473,0.009721332894257174
1.034,-0.0074,1.804,0.006673775725667616,1.0127835186200833,0.008591314233952603,0.009840144889431166
1.0350000000000001,-0.004099999999998557,0.804,0.006776115477528748,1.0187747647421088,0.008893939547143369,0.010023975630127578
1.036,0.0024,-1.196,0.006800183464728494,1.036126869597355,0.008965110153205398,0.01055639413259152
1.0370000000000001,0.001599999999998801,0.804,0.006797171363537083,1.036126869597355,0.008956203173758642,0.01055639413259152
1.038,-0.0038,-0.196,0.006818835276650376,1.03023653799249,0.00902026477613329,0.01037565977452717
1.0390000000000001,-0.00889999999999951,0.804,0.006822143702976126,1.0473987745080793,0.009030048008306427,0.010902252504388381
1.04,-0.0067,1.804,0.006818101160316644,1.0511292152509908,0.009018093946310334,0.011016714449520699
1.0410000000000001,0.0013000000000022425,-0.196,0.006830101793889653,1.0548464634567918,0.009053580601568667,0.011130771605095171
1.042,0.0114,-1.196,0.006793759713059468,1.0490612450092884,0.008946114701043891,0.010953262457476387
1.0430000000000001,0.002299999999999778,-1.196,0.006800378936666777,1.0527857949714061,0.008965688176460948,0.011067543654468076
1.044,0.0013,-0.196,0.006800520391666958,1.050721085121951,0.00896610646811159,0.011004191701766091
1.0450000000000002,-0.0041999999999998445,0.804,0.006688961032406977,1.0544397721221388,0.008636218175229816,0.011118293004189556
1.046,-0.0035,-0.196,0.006638221490436004,1.050721085121951,0.008486178044187116,0.011004191701766091
1.0470000000000002,0.006699999999997979,-1.196,0.006632485725549486,1.050721085121951,0.00846921701376048,0.011004191701766091
1.048,-0.0024,-1.196,0.006622239150221402,1.0544397721221388,0.008438917223000759,0.011118293004189556
1.0490000000000002,-0.0035000000000012213,-1.196,0.006704744024532982,1.0486523100370901,0.008682889511131634,0.01094071501453968
1.05,-0.009,-1.196,0.006729244646042851,1.0638812118996124,0.00875533944503272,0.011407986806143858
1.0510000000000002,-0.0064999999999998444,0.804,0.006711959227652004,1.0581453904573443,0.008704225336789996,0.011231993317851305
1.052,-0.0058,-1.196,0.006729091045582433,1.0523783072922364,0.008754885238464943,0.011055040619146082
1.0530000000000002,-0.011300000000001842,-0.196,0.006732591326955949,1.0523783072922364,0.008765235798512747,0.011055040619146082
1.054,-0.0196,-1.196,0.006824588173087895,1.0581453904573488,0.009037276465672274,0.011231993317851442
1.055,-0.003,0.804,0.006912493544271684,1.0581453904573488,0.009297218374870395,0.011231993317851442
1.056,0.0039,0.804,0.006935236567828618,1.0581453904573537,0.00936447097712569,0.011231993317851591
1.057,0.0195,0.804,0.006964506272771454,1.0544397721221481,0.009451023401420665,0.01111829300418984
1.058,0.0097,-1.196,0.006883787641011328,1.0956867690085803,0.009212333148879454,0.012383883806954595
1.059,0.0151,-0.196,0.006825269181000775,1.0956867690085803,0.009039290250435017,0.012383883806954595
1.06,0.0071,0.804,0.006806416505905824,1.0976669017302996,0.0089835416620191,0.012444640660787166
1.061,0.0086,0.804,0.00681071783276316,1.0921085392337762,0.008996260965746778,0.012274092184896874
1.062,0.0075,-1.196,0.006817420886778821,1.092108539233783,0.009016082333142475,0.012274092184897086
1.063,0.0064,-2.196,0.006820624366555286,1.0792926513018655,0.00902555523153262,0.01188085943778201
1.064,-0.0012,-2.196,0.006824611579302953,1.0901183101359353,0.009037345679375003,0.012213025541704465
1.065,-0.0037,0.804,0.0068164972094292235,1.0937030512926096,0.009013350959046627,0.012323016953944022
1.066,0.0006,0.804,0.006825564273191495,1.0829132289649808,0.009040162857266797,0.011991950429539558
1.067,-0.0117,-2.196,0.006837354831276484,1.0829132289649808,0.009075028305621659,0.011991950429539558
