time_sec,bts_raw,diy_raw,bts_rms,diy_rms,bts_norm_rms,diy_norm_rms
0.0,-0.0072,-1.38,0.004670384226183918,0.6798702450402001,0.008155036580087247,0.0037595633822020006
0.0010000000000000009,-0.008,-0.38,0.004644803306750457,0.6816330317546715,0.008006693155288864,0.004051974689375391
0.0020000000000000018,0.0,-0.38,0.004641597502205157,0.6833912714302899,0.007988102735709888,0.004343631733106779
0.0030000000000000027,-0.0054,0.62,0.004602415304231599,0.6852923677987591,0.007760885670520157,0.004658985865063338
0.0040000000000000036,-0.0145,-1.38,0.0046149634170255015,0.7017332744479412,0.007833652016211749,0.007386205763498222
0.0050000000000000044,-0.0058,1.62,0.004684692951340794,0.703584812203583,0.008238012694366133,0.007693339105815515
0.006000000000000005,-0.0025,0.62,0.004726758126821588,0.7052883295869813,0.008481948109267745,0.007975918808046508
0.007000000000000006,-0.005,-0.38,0.004687828223309979,0.7069877422838656,0.008256194096437823,0.008257817624303483
0.008000000000000007,0.0012,0.62,0.0046577181334114415,0.7086830798231892,0.008081586070008025,0.00853904045285333
0.009000000000000008,-0.0097,-0.3799999999999983,0.0046158975374174715,0.7105165072845263,0.007839068968424092,0.00884316965701399
0.010000000000000009,-0.002,0.62,0.004625803319066064,0.7528810183526267,0.007896512469580468,0.015870600688509817
0.01100000000000001,-0.0057,0.62,0.004653839566788845,0.7544732385470881,0.008059094311742602,0.016134718397446582
0.01200000000000001,0.0005,0.62,0.0045269630635820955,0.7560621056313922,0.0073233390914860036,0.016398279892000645
0.013000000000000012,0.0038,0.62,0.004518090152954715,0.7576476407010172,0.00727188519617863,0.01666128867149291
0.014000000000000012,0.0012,0.62,0.004540074217804349,0.7593628559232664,0.007399370507223345,0.016945808812871426
0.015000000000000013,0.0056,-0.38,0.004538937537261223,0.7609415134187268,0.007392778911283739,0.017207676739397694
0.016000000000000014,0.0001,1.62,0.004582463754700061,0.7626493206842212,0.007645186889823814,0.017490968047871827
0.017000000000000015,0.0052,1.62,0.004558971870175314,0.7770663206059499,0.007508957751757305,0.01988246201479541
0.018000000000000016,0.0103,-0.37999999999999656,0.004541430045765353,0.7787387662857106,0.007407232936237905,0.020159887538473673
0.019000000000000017,0.0012,0.62,0.004395930149305934,0.7804076278537468,0.006563480896568535,0.020436718529196932
0.020000000000000018,0.0001,-0.38,0.004388373126138383,0.7819437994513131,0.006519657815819963,0.020691538889027975
0.02100000000000002,-0.0035,-2.38,0.004387633199452048,0.7834769590666968,0.006515366990424255,0.02094585962083258
0.02200000000000002,0.0019,-0.38,0.004381335814252196,0.7850071243475705,0.006478848534148648,0.02119968365200914
0.02300000000000002,0.0045,-0.38,0.004385052645135778,0.8235486056987329,0.006500402388930962,0.02759294997843016
0.02400000000000002,0.007,0.62,0.004366149920115824,0.8250044520100303,0.00639078572817036,0.02783444596852087
0.025000000000000022,0.0077,-0.38,0.00438935225236177,0.8264577337797823,0.006525335756273394,0.02807551655210073
0.026000000000000023,0.0041,-0.38000000000000345,0.004381990820305601,0.8280304252988141,0.006482646905879519,0.028336394841621145
0.027000000000000024,-0.0053,-1.38,0.0043843445556338186,0.8294784054504241,0.0064962961869604804,0.028576585992040816
0.028000000000000025,0.0008,-2.38,0.004384344555633817,0.8310453805928408,0.006496296186960471,0.028836516048207424
0.029000000000000026,0.0019,0.62,0.0043783349819891,0.8442952711490599,0.006461446746214046,0.031034409750061318
0.030000000000000027,0.0084,-0.38,0.00440313919505143,0.8576936889058148,0.006605286060694742,0.033256941164749636
0.031000000000000028,0.0001,-1.38,0.004399554202702343,0.8590916737327325,0.006584496735888691,0.03348883908370472
0.03200000000000003,-0.001,-0.38,0.004398129737617407,0.8944465465016868,0.006576236281069828,0.039353510332046274
0.03300000000000003,-0.0017,0.62,0.00439288884715601,0.895899896218833,0.006545844424277537,0.03959459218674942
0.03400000000000003,-0.001,0.62,0.004396429874207549,0.8972383540247033,0.006566378794885105,0.039816615755113055
0.03500000000000003,-0.0064,0.62,0.004437968598908201,0.8985748181542826,0.006807261328442202,0.04003830861217423
0.03600000000000003,-0.0043,-0.38,0.004455442292831006,0.8999092974900555,0.0069085910561374865,0.04025967223136071
0.03700000000000003,-0.0036,-0.38,0.00439037888258014,0.9013538390694117,0.006531289171786493,0.040499292990933154
0.038000000000000034,-0.0021,-0.38,0.00439068800641975,0.9027960692766047,0.006533081776980918,0.04073853033976734
0.039000000000000035,0.003,-1.38,0.00439410154323697,0.9365024630897532,0.006552876833349353,0.04632975166795815
0.040000000000000036,0.0051,-0.38,0.004415763069420147,0.9378906454748848,0.006678491746790234,0.04656002355649637
0.041000000000000036,-0.004,-0.38,0.004369966180311748,0.9391692620381797,0.006412916172263957,0.04677212065115751
0.04200000000000004,0.0051,-2.38,0.004351165768991342,0.9404461402150484,0.006303892827339173,0.04698392938203468
0.04300000000000004,-0.0036,-0.37999999999999307,0.0043421679738823065,0.9417212870767154,0.006251714728519061,0.04719545092210366
0.04400000000000004,0.0065,0.62,0.004342569232199364,0.9534343516012995,0.006254041620370466,0.0491384157065115
0.04500000000000004,-0.0026,-0.38,0.004320200503619429,0.9547979170010332,0.0061243256492708245,0.04936460412606292
0.04600000000000004,0.0036,-0.38,0.004326630140453123,0.986729538922089,0.006161611031080533,0.05466142604413734
0.04700000000000004,0.0003,-0.38,0.004330474474710206,0.9979144568856407,0.006183904276295931,0.05651678180300466
0.04800000000000004,0.0029,0.62,0.004336035186402932,1.0289991166048889,0.006216150772320482,0.06167310951237878
0.049000000000000044,0.0003,-0.38,0.004324632736810168,1.03016465764541,0.006150028112887485,0.06186644962347964
0.050000000000000044,0.0043,-0.38,0.004321991429418697,1.0598279778027995,0.006134711205087699,0.06678700532719455
0.051000000000000045,-0.0008,-0.37999999999999307,0.004262708671831525,1.0784402546852063,0.005790931251640433,0.06987441242413861
0.052000000000000046,-0.0015,0.6200000000000069,0.00418863344158095,1.0785338856677482,0.005361369938307593,0.06988994394464092
0.05300000000000005,-0.0044,1.62,0.0042160831640875585,1.0786275085225898,0.005520550528238586,0.06990547411691916
0.05400000000000005,-0.0081,0.62,0.004239558895218541,1.0785338856677482,0.005656685992981137,0.06988994394464092
0.05500000000000005,-0.0066,-0.38,0.003985017920209015,1.0693162778811747,0.004180606132652041,0.06836092587356256
0.05600000000000005,-0.0037,-0.38,0.003965882191094579,1.0597326940910585,0.004069638284125982,0.06677119965174115
0.05700000000000005,0.0028,-0.38,0.003961609875718504,1.0596374018113057,0.0040448631818723576,0.06675539255502475
0.05800000000000005,-0.0034,0.62,0.003930710376145721,1.0596374018113057,0.003865677378832489,0.06675539255502475
0.05900000000000005,-0.0055,-2.379999999999986,0.003940349325553559,1.0688440036325495,0.003921573523235599,0.06828258495503219
0.06000000000000005,-0.0063,-0.38,0.003819644923351354,1.068938475174945,0.003221610237807504,0.06829825590772076
0.061000000000000054,0.0003,-0.38,0.003825420882591362,1.0780656494356824,0.0032551049516072713,0.06981227285286316
0.062000000000000055,0.001,-0.38,0.0037856539966979715,1.0779719777828647,0.003024497288644394,0.06979673458596981
0.06300000000000006,0.0046,0.62,0.0038476443006882723,1.0779719777828647,0.0033839782690733297,0.06979673458596981
0.06400000000000006,0.0024,-0.38,0.003843032482066763,1.0778782979896306,0.0033572343918392383,0.06978119496874305
0.06500000000000006,0.0064,0.62,0.0038474452135173628,1.0778782979896306,0.00338282376511412,0.06978119496874305
0.06600000000000006,-0.0008,-1.38,0.0038182981860698517,1.0779719777828647,0.0032138005255271723,0.06979673458596981
0.06700000000000006,-0.0001,0.62,0.003836140076146217,1.068560538891935,0.0033172654180103674,0.06823556378414397
0.06800000000000006,-0.0026,0.62,0.0038665821763421222,1.0589701157543898,0.003493798767910574,0.0666447030504128
0.06900000000000006,-0.0019,-0.38,0.003770342361331068,1.0685605388919346,0.002935705310877579,0.0682355637841439
0.07000000000000006,0.0032,-0.38,0.003783720490443487,1.0684660339332006,0.0030132849105902987,0.06821988728834841
0.07100000000000006,-0.0005,-0.38000000000002776,0.003790672760600191,1.0685605388919346,0.003053601036359416,0.0682355637841439
0.07200000000000006,-0.0019,-2.3799999999999724,0.003789704271609938,1.0403006990736756,0.003047984781084959,0.06354781759571988
0.07300000000000006,-0.0034,-0.38,0.0037871972783718043,1.0403006990736756,0.0030334467593434605,0.06354781759571988
0.07400000000000007,0.0046,-0.38,0.0037731356730696,1.0497731111459752,0.0029519036899429297,0.06511910263741406
0.07500000000000007,-0.0008999999999997114,0.62,0.0037349415872567297,1.0497731111459752,0.00273041667454217,0.06511910263741406
0.07600000000000007,0.0017000000000000775,-0.38,0.0036548281169213707,1.0497731111459752,0.002265839684143393,0.06511910263741406
0.07700000000000007,0.0023999999999997556,0.62,0.003639090282245742,1.0497731111459752,0.0021745761820333104,0.06511910263741406
0.07800000000000007,0.00019999999999943378,-1.38,0.0036042378073481056,1.0403977624453336,0.001972467125614785,0.06356391848140966
0.07900000000000007,-0.0048999999999996,1.62,0.0036047354097737835,1.0113512858138924,0.0019753527157205294,0.0587456848682025
0.08000000000000007,-0.0012999999999999665,-0.38,0.0036139084370129856,1.0209933908215356,0.002028546983423518,0.06034511859778647
0.08100000000000007,-0.0009999999999998335,-2.38,0.0035323572481285323,1.021092289516151,0.0015556326815366383,0.06036152392710555
0.08200000000000007,0.0005000000000001555,0.62,0.003532359059587047,1.0113512858138924,0.0015556431861614105,0.0587456848682025
0.08300000000000007,0.001900000000000555,-0.38,0.003539750919293296,1.0113512858138924,0.0015985084861091443,0.0587456848682025
0.08400000000000007,0.00689999999999879,-0.38,0.0035474980238903533,1.0112514344658976,0.001643433846637646,0.058729121512607355
0.08500000000000008,-0.003999999999999512,-0.38,0.0035506609834322408,1.011151573257569,0.0016617758085895132,0.058712556521378675
0.08600000000000008,0.00040000000000012215,0.62,0.0035071054532505607,1.011151573257569,0.0014091978458283976,0.058712556521378675
0.08700000000000008,0.0015000000000006772,0.6199999999999584,0.003517724716420511,1.011151573257569,0.0014707788172068222,0.058712556521378675
0.08800000000000008,0.0075999999999986235,-2.38,0.003500960898454789,1.0208944825461534,0.0013735656511124467,0.06032871167920844
0.08900000000000008,-0.004799999999999111,0.62,0.0035210322327912584,1.0209933908215354,0.0014899590623614048,0.06034511859778643
0.09000000000000008,0.0031999999999995227,-0.38,0.0035128870068545158,1.0112514344658974,0.0014427250012731812,0.05872912151260731
0.09099999999999997,-0.0011,-0.38,0.003564436414997545,1.0112514344658974,0.0017416593601478666,0.05872912151260731
0.09199999999999997,-0.0,-0.38,0.0035420149920505815,1.0209933908215345,0.0016116378150874114,0.06034511859778628
0.09299999999999997,0.001,-1.38,0.003559508367455858,1.0016163649489593,0.001713081675447964,0.05713085483120723
0.09399999999999997,-0.0001,0.62,0.003541237504791058,1.0017171767228739,0.0016071291764079131,0.0571475775023885
0.09499999999999997,-0.0026,-2.38,0.003481654401929773,1.0017171767228739,0.001261607524555326,0.0571475775023885
0.09599999999999997,0.0057,-1.38,0.0034719223218600465,1.0018179783522174,0.0012051713166343968,0.05716429849078691
0.09699999999999998,-0.0023,2.62,0.0034541603571920662,1.0018179783522174,0.0011021699105727535,0.05716429849078691
0.09799999999999998,0.001,-0.38,0.003528342908110891,1.0019187698400516,0.0015323535750889172,0.05718101779691033
0.09899999999999998,-0.0016,-2.38,0.003569002600452885,1.0019187698400516,0.0017681386112346623,0.05718101779691033
0.09999999999999998,0.001,-2.38,0.0036095490423450464,1.0019187698400516,0.0020032669094694902,0.05718101779691033
0.10099999999999998,-0.0012,0.62,0.0035852870765487673,1.0019187698400516,0.0018625720799531785,0.05718101779691033
0.10199999999999998,-0.0048,0.6199999999999861,0.0037240540412635534,1.0117505926609205,0.002667279934501268,0.058811921943932775
0.10299999999999998,-0.007,-0.38,0.0037722653407192474,1.0213889281432253,0.0029468566437685357,0.060410730384125484
0.10399999999999998,0.001,-0.38,0.003779738640847173,1.0113512858138907,0.0029901942156805353,0.058745684868202204
0.10499999999999998,0.0043,-0.38,0.003692716440103472,1.0112514344658958,0.00248555358595683,0.058729121512607056
0.10599999999999998,0.0017,-0.38,0.0036345833844714753,1.0113512858138907,0.0021484407394511944,0.058745684868202204
0.10699999999999998,-0.0008,-0.38,0.0037567016060050004,1.0113512858138909,0.0028566027451090168,0.058745684868202246
0.10799999999999998,-0.003,-1.38,0.003746398979939067,1.0113512858138909,0.002796857948249271,0.058745684868202246
0.10899999999999999,0.0007,0.62,0.003746340908661554,1.0112514344658958,0.0027965211936532867,0.058729121512607056
0.10999999999999999,-0.0029,-1.38,0.0037162881264057243,0.9814455372222992,0.0026222454935109986,0.053784915101856214
0.11099999999999999,-0.0015,-0.38,0.0036723591264527953,0.9914803996678347,0.002367501784320407,0.05544949949026541
0.11199999999999999,0.0069,0.62,0.003691880808093841,0.9914803996678347,0.0024807077666147118,0.05544949949026541
0.11299999999999999,0.0033,-0.38,0.003690869260048764,0.9914803996678347,0.002474841812431747,0.05544949949026541
0.11399999999999999,0.0022,0.62,0.0036644272475437898,0.9913785469322053,0.002321504919918854,0.05543260414420902
0.11499999999999999,0.003,0.62,0.0036723239325172274,0.9913785469322053,0.0023672976951379264,0.05543260414420902
0.11599999999999999,0.0037,0.62,0.0036911849166269242,0.9912766837313043,0.002476672300893517,0.05541570706217193
0.11699999999999999,-0.0071,-0.38,0.0037033354235472644,0.9812397379424718,0.0025471329352068422,0.05375077708848474
0.118,-0.0057,1.6199999999999724,0.0038182314989528778,0.9811368221146999,0.0032134138077882894,0.053733705396554816
0.119,0.0034,-0.3799999999999861,0.0038883192143507614,0.9913785469322053,0.0036198515734620555,0.05543260414420902
0.12,0.0023,0.62,0.0038837085291720786,0.9913785469322053,0.003593114269048427,0.05543260414420902
0.121,0.0034,-0.38,0.003889107037257064,0.9913785469322053,0.0036244201484251066,0.05543260414420902
0.122,-0.0013,-0.38,0.0038888312841007418,1.0013138687291474,0.003622821059396497,0.057080676715883315
0.123,0.0031,-1.38,0.0038863355487081187,0.9710990592753604,0.0036083483217572094,0.05206863989041507
0.124,-0.0045,0.62,0.0038770803535055033,0.9712030387790023,0.0035546775630847247,0.05208588802504732
0.125,0.0002,-0.38,0.00393409007332202,0.9712030387790023,0.0038852761995557894,0.05208588802504732
0.126,-0.0023,-0.38,0.003957624118106699,0.9710990592753603,0.0040217498244307145,0.05206863989041505
0.127,0.0017,0.62,0.0039677586363377265,0.9710990592753602,0.004080519766104735,0.05206863989041503
0.128,0.001,-0.38,0.004018411010902365,0.9710990592753603,0.004374252238724953,0.05206863989041505
0.129,0.0032,-1.38,0.0040310588051942,0.9608513633926781,0.004447596636148841,0.050368750661632725
0.13,0.0035,0.62,0.004038796043780283,0.9502806863898107,0.004492464783805818,0.04861528527938252
0.131,-0.0001,-0.38,0.004042700962443002,0.9502806863898107,0.004515109357215057,0.04861528527938252
0.132,0.0025,-0.38,0.004044250618512515,0.9291045918159957,0.00452409579295319,0.04510259174458161
0.133,0.0029,-0.38,0.004044743038649326,0.9289959003814224,0.00452695133103204,0.045084561994186284
0.134,-0.0018,-0.38,0.0040675013318418225,0.9291045918159957,0.0046589263823401915,0.04510259174458161
0.135,-0.0032,0.62,0.004065817689377553,0.9396985596059461,0.004649162961211587,0.046859920605856316
0.136,0.0051,-0.38,0.004050049673458415,0.939806013246121,0.004557724438456197,0.04687774503074343
0.137,-0.0011,-1.38,0.004049964043815806,0.9396985596059461,0.004557227873253293,0.046859920605856316
0.138,-0.0043,0.62,0.0040471971458040795,0.9396985596059463,0.004541182667052049,0.04685992060585635
0.139,-0.0018,-0.38,0.003983774266505446,0.9075457353487622,0.0041733942007224425,0.04152640561327321
0.14,-0.0079,-0.38,0.00397798631507548,0.9075457353487622,0.004139829944366403,0.04152640561327321
0.14100000000000001,-0.0003,-1.3799999999999166,0.003971236665551632,0.9183884266156923,0.004100688813057158,0.043324992759756965
0.14200000000000002,0.0062,1.6199999999999724,0.00413283370280845,0.9184983732972668,0.00503778796644381,0.04334323073070072
0.14300000000000002,0.0001,0.62,0.004138702113817209,0.9186083068195082,0.00507181880686877,0.043361466518772464
0.14400000000000002,-0.0006,0.62,0.004137698003600385,0.9078794746958213,0.005065995984556765,0.04158176634292225
0.14500000000000002,0.0001,0.62,0.004138885645083203,0.9077682418799867,0.005072883102334221,0.04156331502784723
0.14600000000000002,0.0008,-0.38,0.004130887750984063,0.874442142048356,0.005026503416688938,0.036035176918592024
0.14700000000000002,-0.0072,0.62,0.004091852874427821,0.8744421420483559,0.0048001406665150416,0.03603517691859201
0.14800000000000002,-0.0061,0.62,0.0040888878680092194,0.8391931485504158,0.004782946632194711,0.030188068938560592
0.14900000000000002,-0.0054,-0.38,0.004098690028041059,0.8393134695583283,0.004839789232920116,0.030208027804210804
0.15000000000000002,-0.001,-0.38,0.004121269613275423,0.8030261635826043,0.004970727959063445,0.024188684404890845
0.15100000000000002,-0.0101,-1.38,0.004120114077298154,0.7650195674715465,0.004964027020702271,0.01788414491703899
0.15200000000000002,0.0062,-1.38,0.004127218917231584,0.7650195674715465,0.005005227896656351,0.01788414491703899
0.15300000000000002,-0.005,-0.38,0.004099482997377017,0.7650195674715465,0.004844387651962949,0.01788414491703899
0.15400000000000003,0.0008,-0.38,0.004048257118910833,0.7651515524537806,0.004547329437548668,0.01790603860438386
0.15500000000000003,-0.001,0.62,0.004051984410436437,0.7652835146731627,0.004568943953460356,0.017927928515823647
0.15600000000000003,0.0102,-0.38,0.0040443388535828535,0.7652835146731625,0.004524607466998191,0.017927928515823612
0.15700000000000003,-0.0003,-0.38,0.0040457401690233855,0.7654154541414662,0.004532733677325075,0.01794981465331133
0.15800000000000003,0.0034,-0.38,0.004166797594977814,0.7655473708704545,0.005234744142979675,0.01797169701879824
0.15900000000000003,-0.0028,0.62,0.004250256430147239,0.7526398184143741,0.005718720861288008,0.015830590408958938
0.16000000000000003,0.0027,-1.38,0.004297654480195689,0.7526398184143742,0.005993581547638289,0.01583059040895896
0.16100000000000003,-0.0038,-0.38,0.004304670907238825,0.7395070084042333,0.006034269718371717,0.013652118044492192
0.16200000000000003,0.0005,-0.38,0.0043178998235455825,0.7395070084042333,0.006110984034931766,0.013652118044492192
0.16300000000000003,0.0013,-0.38,0.004263644495625216,0.7395070084042333,0.005796358081857581,0.013652118044492192
0.16400000000000003,0.0034,-0.38,0.004285081221369952,0.7527739739595812,0.005920669380429529,0.015852844149593884
0.16500000000000004,-0.0074,-0.38,0.004279457377619595,0.7527739739595812,0.005888056782409781,0.015852844149593884
0.16600000000000004,-0.0031,-0.38,0.004350748201857798,0.7526398184143741,0.006301471360869435,0.015830590408958938
0.16700000000000004,0.0093,-0.38,0.004344681933781904,0.7525056389521234,0.006266293149841332,0.015808332700961457
0.16800000000000004,0.0078,1.62,0.004301341319928225,0.7525056389521234,0.006014961484119058,0.015808332700961457
0.16900000000000004,0.0002,-0.38,0.004264791062806022,0.7781111091755668,0.005803007010282716,0.020055771689104537
0.17000000000000004,0.0038,-0.38,0.004264055759913,0.7782408739140533,0.005798742998205324,0.02007729708210548
0.17100000000000004,0.0002,-1.38,0.004261655020910128,0.7781111091755669,0.005784821143415883,0.020055771689104555
0.17200000000000004,0.0013,-0.37999999999997225,0.004249265476118744,0.7781111091755669,0.005712974331543949,0.020055771689104555
0.17300000000000004,0.0021,0.6199999999999722,0.004257871048397192,0.7911136564606807,0.005762877935183203,0.022212636054493237
0.17400000000000004,-0.0081,-0.38,0.004269361283470655,0.778630038371719,0.005829509661496621,0.020141851736867313
0.17500000000000004,-0.0044,-0.38,0.0042561543425954805,0.778630038371719,0.005752922780183414,0.020141851736867313
0.17600000000000005,-0.0033,-0.38,0.004296852349095786,0.778630038371719,0.005988929999643444,0.020141851736867313
0.17700000000000005,0.0068,0.62,0.004291090135040576,0.7786300383717191,0.005955514993994621,0.020141851736867333
0.17800000000000005,0.0032,-0.38,0.004298902762910434,0.7785003385013177,0.006000820323144521,0.020120337104193437
0.17900000000000005,-0.0055,0.62,0.004428864898491953,0.7785003385013175,0.00675446908609933,0.0201203371041934
0.18000000000000005,-0.0022,-0.38,0.004437204108658016,0.7656792648718812,0.006802828059253717,0.017993575614234026
0.18100000000000005,-0.0015,-1.38,0.004450425903192637,0.765547370870455,0.006879501076748182,0.017971697018798312
0.18200000000000005,-0.0008,-0.38,0.004469230579591665,0.765547370870455,0.006988549154809375,0.017971697018798312
0.18300000000000005,0.0047,0.62,0.004475160822258228,0.7656792648718812,0.007022938556227558,0.017993575614234026
0.18400000000000005,0.0068,-1.38,0.004473910725809742,0.7656792648718812,0.0070156892629025455,0.017993575614234026
0.18500000000000005,0.0018,0.62,0.004472174548126915,0.8042826713780296,0.007005621190713075,0.02439711409404019
0.18600000000000005,0.0003,-0.38,0.0044665975036150395,0.8041571089475621,0.006973279980879057,0.024376285780482208
0.18700000000000006,-0.0,0.62,0.004492245728320662,0.8041571089475616,0.007122013708090355,0.024376285780482135
0.18800000000000006,-0.0026,0.62,0.004495813126767815,0.8045337374499183,0.00714270100608399,0.02443876096922094
0.18900000000000006,0.0043,0.62,0.004486620697684949,0.804408214209089,0.0070893942273376025,0.024417939156445634
0.19000000000000006,-0.0022,-1.38,0.004503601364785895,0.8044082142090893,0.0071878648987952,0.02441793915644567
0.19100000000000006,0.0115,0.62,0.004434848784479998,0.8166214640082501,0.006789169564453074,0.026443874744279224
0.19200000000000006,-0.0022,0.62,0.004437270395664334,0.8044082142090908,0.00680321245675602,0.02441793915644593
0.19300000000000006,-0.0004,0.62,0.004394509539770387,0.7917516122364268,0.0065552428000312905,0.02231846024795539
0.19400000000000006,0.001,-0.38,0.004585507852081345,0.7916240622106573,0.0076628395716257305,0.022297302231810236
0.19500000000000006,-0.0004,0.62,0.0046476184833136504,0.8039059252516715,0.008023018328192931,0.024334619393815548
0.19600000000000006,0.0006,-1.38,0.004688738342507829,0.8037803039678614,0.008261471866032266,0.024313781317656838
0.19700000000000006,0.0017,0.62,0.004691503304624276,0.8400350336923519,0.008277505846001534,0.03032772096385805
0.19800000000000006,-0.003,0.62,0.00463938117925297,0.8400350336923519,0.00797525030724101,0.03032772096385805
0.19900000000000007,0.0046,-0.38,0.004631869960834948,0.8399148160512663,0.007931692847649446,0.030307779244711563
0.20000000000000007,-0.00020000000000027757,-0.38,0.004645986409795875,0.8399148160512663,0.00801355395472585,0.030307779244711563
0.20100000000000007,-0.002699999999999756,0.62,0.0046621220148785935,0.8399148160512663,0.008107124122342022,0.030307779244711563
0.20200000000000007,-0.0005000000000002443,0.62,0.004556631940262913,0.8281671434188809,0.007495388528106191,0.02835907366253284
0.20300000000000007,-0.0026999999999999225,0.62,0.004514298545696777,0.8161266917866781,0.007249897714157277,0.026361801858844333
0.20400000000000007,-0.0020000000000001666,0.6199999999999722,0.004500933434033039,0.8281671434188809,0.007172393602463062,0.02835907366253284
0.20500000000000007,-0.0034999999999998335,-0.37999999999997225,0.004502415190699551,0.8282890661156089,0.007180986290431137,0.028379298216548186
0.20600000000000007,-0.0020000000000008882,0.62,0.004570151426499973,0.8282890661156089,0.007573787855977762,0.028379298216548186
0.20700000000000007,-0.009999999999999879,0.62,0.004458593041259815,0.8282890661156089,0.006926862206000703,0.028379298216548186
0.20800000000000007,-0.008899999999999722,0.62,0.004458666517752663,0.8284109708681713,0.006927288295243489,0.028399519793982808
0.20900000000000007,-0.0063999999999997115,0.62,0.004479561668668407,0.8284109708681712,0.0070484590083049635,0.028399519793982787
0.21000000000000008,-0.0037999999999991673,0.62,0.00447480413018841,0.8284109708681712,0.007020870103474214,0.028399519793982787
0.21100000000000008,0.0036999999999994784,-0.38,0.004479567748400449,0.8164977990606606,0.0070484942645933565,0.02642336118544688
0.21200000000000008,-0.0010000000000004886,0.62,0.004490174887891028,0.8164977990606606,0.007110004930910083,0.02642336118544688
0.21300000000000008,-0.00539999999999939,-1.38,0.004491772404528657,0.8288984105950858,0.007119268909470929,0.028480376364176593
0.21400000000000008,0.0001000000000009215,0.62,0.004496292800537164,0.8407559785567873,0.00714548262814086,0.03044731139897925
0.21500000000000008,0.008399999999999389,-0.38,0.004489355596877677,0.8528039251171032,0.007105253872796511,0.032445826462393246
0.21600000000000008,0.002899999999999278,-0.38,0.004479755021978387,0.8529223260668091,0.007049580261677938,0.03246546682851913
0.21700000000000008,-0.0035999999999997223,-0.38,0.004502750118119672,0.8529223260668091,0.007182928530259102,0.03246546682851913
0.21800000000000008,-0.0011000000000002442,-2.38,0.004522334173485704,0.852922326066809,0.007296496216987295,0.032465466828519106
0.21900000000000008,-0.0032999999999994336,0.62,0.004454792911233425,0.8409961561714403,0.006904825300554036,0.030487152095348198
0.21999999999999997,0.0018,-0.38,0.0044662509376953135,0.8409961561714403,0.006971270249540655,0.030487152095348198
0.22099999999999997,0.001,-0.38,0.004450260104190874,0.8409961561714403,0.006878539610456336,0.030487152095348198
0.22199999999999998,-0.003,1.62,0.004508135812090393,0.8409961561714403,0.007214160100750965,0.030487152095348198
0.22299999999999998,-0.0044,0.62,0.004512673847388195,0.8526855077266527,0.0072404761094340365,0.032426183369074345
0.22399999999999998,-0.003,0.62,0.004534387848797155,0.852685507726653,0.00736639532603845,0.03242618336907438
0.22499999999999998,-0.0059,-0.38,0.004500197478165093,0.852685507726653,0.007168125803792431,0.03242618336907438
0.22599999999999998,0.0006,-0.38,0.004481472768891528,0.852685507726653,0.0070595414540695935,0.03242618336907438
0.22699999999999998,0.0031,-0.38,0.004469565864169487,0.8528039251171036,0.006990493465790282,0.0324458264623933
0.22799999999999998,0.0107,-0.38,0.0044204927900236,0.852685507726653,0.0067059193361104965,0.03242618336907438
0.22899999999999998,0.0042,-0.38,0.004450873054105588,0.8645672294872254,0.006882094099176537,0.034397125039417845
0.22999999999999998,0.0049,-0.38,0.004416904414749108,0.8644504235033599,0.006685110393763265,0.03437774924644902
0.23099999999999998,0.0041,-0.38,0.0044480376695943055,0.8644504235033599,0.006865651740639815,0.03437774924644902
0.23199999999999998,0.0034,0.62,0.004494270290588116,0.8529223260668093,0.007133754118799707,0.03246546682851916
0.23299999999999998,0.0027,-0.38,0.004500483783671989,0.8530407105826159,0.00716978608576713,0.03248510446858753
0.23399999999999999,-0.0013,2.62,0.004508403326881968,0.852922326066809,0.007215711415607714,0.032465466828519106
0.235,0.0023,-0.38,0.00446228583788311,0.841236265214056,0.006948276686414839,0.030526981416978
0.236,0.007,-0.3799999999999445,0.004496191605143394,0.8412362652140557,0.007144895797345948,0.030526981416977943
0.237,-0.0021,1.6199999999999446,0.00450545710324825,0.8412362652140554,0.007198626302416828,0.030526981416977888
0.238,-0.0032,-0.38,0.004509064080956793,0.8412362652140551,0.0072195431200413225,0.03052698141697785
0.239,-0.0043,-0.38000000000002776,0.004527028316774238,0.8411162192605807,0.0073237174939131166,0.030507068177396353
0.24,-0.001,-1.38,0.004511941904989597,0.8411162192605807,0.007236231584820855,0.030507068177396353
0.241,0.0015,-0.38,0.004538835149358186,0.8292638023640557,0.007392185165142833,0.028540987602006872
0.242,0.0008,0.62,0.004392185103107104,0.8291420229992045,0.006541763421533768,0.028520786823903334
0.243,0.0131,-0.38,0.00444692951389289,0.8290202257455092,0.0068592255598926575,0.028500583078395838
0.244,0.0076,-1.38,0.004450790371491985,0.8640999108152366,0.0068816146237571695,0.03431960615263423
0.245,0.0062,-0.38,0.004535794950257982,0.8979224558138319,0.007374555089423062,0.03993009465574043
0.246,0.0018,-2.38,0.004577752015481934,0.8978099893889935,0.007617863574327204,0.039911438709431014
0.247,-0.0018,0.62,0.0045826314640962365,0.8868295756586051,0.007646159434468435,0.038090006141413085
0.248,-0.0055,-0.38,0.00461997946271461,0.8867157022714457,0.007862740001043688,0.03807111680799675
0.249,-0.0065,-0.38,0.004638366588469497,0.8866018142586134,0.00796936670825698,0.038052225048471736
0.25,-0.004,-0.38,0.0046246539884676075,0.8866018142586134,0.007889847516131704,0.038052225048471736
0.251,0.0022,0.62,0.004638625019285138,0.8867157022714457,0.00797086534525341,0.03807111680799675
0.252,-0.0,-0.38,0.0046320556656860214,0.8867157022714458,0.007932769747706988,0.03807111680799676
0.253,-0.0036,-1.38,0.0046786141123146266,0.8976975088740007,0.008202761584558085,0.03989278042584483
0.254,-0.0014,0.62,0.004780942366936542,0.8975850142635561,0.008796161825067041,0.03987411980410311
0.255,-0.0079,0.62,0.0047772520501352935,0.9084354344775152,0.008774761725109255,0.04167398902940289
0.256,-0.0018,-0.38,0.004778760294047232,0.9085465856093623,0.008783508012274975,0.04169242679472662
0.257,0.0004,0.62,0.004798659095219155,0.9084354344775152,0.008898900905908188,0.04167398902940289
0.258,0.0055,-0.38,0.004736631685280962,0.9084354344775153,0.008539204748561745,0.04167398902940291
0.259,0.0019,0.62,0.004710741315462332,0.9083242697441666,0.008389066824935414,0.041655549007860185
0.26,0.0034,0.62,0.004696981487182367,0.9083242697441666,0.008309273756629288,0.041655549007860185
0.261,0.0049,-0.38,0.00468879070830538,0.9083242697441667,0.00826177553462288,0.041655549007860206
0.262,0.0013,1.62,0.004726366783202324,0.9083242697441666,0.008479678712622108,0.041655549007860185
0.263,0.0024,-1.38,0.004729519109566067,0.9083242697441667,0.008497959012909836,0.041655549007860206
0.264,-0.0023,1.62,0.004699409312708837,0.8974725055523597,0.008323352685822835,0.03985545684332672
0.265,0.0068,0.62,0.0047181019002183544,0.9086577231446992,0.008431750761846568,0.041710862304659334
0.266,-0.0055,-0.38,0.00466853397717668,0.9086577231446992,0.008144307009745671,0.041710862304659334
0.267,-0.0102,-0.38,0.004659802899838071,0.9087688470885141,0.008093675603866856,0.04172929556002848
0.268,0.0004,0.62,0.004645895555094906,0.9199264843751069,0.008013027089476314,0.04358012599637968
0.269,-0.0032,-0.38,0.0046609574845752205,0.8870572785784349,0.008100371025998742,0.038127777533656974
0.27,0.0004,-0.38,0.0046492823438343545,0.8869434344257251,0.008032667034083667,0.038108893049655236
0.271,-0.0072,-1.38,0.004653060833787565,0.8870572785784347,0.008054578449022581,0.038127777533656954
0.272,-0.0024,-1.38,0.004680930076029451,0.8984845767708735,0.008216191828535807,0.04002333935885096
0.273,-0.0049,0.62,0.0047176362830905596,0.8870572785784347,0.008429050654074385,0.038127777533656954
0.274,0.0059,-0.38,0.004697086687861079,0.8980349081538102,0.008309883814020381,0.03994874826565126
0.275,-0.0016,-0.38,0.0046885493896168615,0.8979224558138323,0.008260376130632897,0.0399300946557405
0.276,-0.0005,0.62,0.004705164414079454,0.9088799574457923,0.008356726445104627,0.04174772656166101
0.277,-0.0016,-0.38,0.004715677609303815,0.9089910542215164,0.008417692329822424,0.041766155310383433
0.278,0.0061,1.62,0.004709319706659598,0.9091021374206653,0.008380822933660529,0.041784581807021666
0.279,-0.0004,-0.38,0.004691795316218969,0.9092132070482152,0.008279199217506427,0.041803006052401157
0.28,0.0057,-0.38,0.004674064186845059,0.9092132070482152,0.008176376624920935,0.041803006052401157
0.281,-0.0066,-0.38,0.004654550797802753,0.9092132070482151,0.008063218731300718,0.04180300605240114
0.28200000000000003,0.0025,0.6199999999999445,0.0046386091729030505,0.9092132070482151,0.007970773452286245,0.04180300605240114
0.28300000000000003,-0.0054,-0.38,0.004632922682652431,0.9092132070482151,0.007937797568012278,0.04180300605240114
0.28400000000000003,0.0022,-0.3799999999999445,0.004625753361250496,0.9092132070482151,0.007896222764846594,0.04180300605240114
0.28500000000000003,0.0058,0.6199999999999445,0.00462633926500782,0.9086577231446991,0.007899620413245809,0.04171086230465931
0.28600000000000003,-0.0029,-0.3799999999999445,0.0046219511628144425,0.908768847088514,0.00787417386471873,0.04172929556002847
0.28700000000000003,-0.0018,0.6199999999999445,0.004577859204800018,0.9088799574457926,0.007618485163812591,0.041747726561661064
0.28800000000000003,0.0048,-0.3799999999999445,0.004573565930090946,0.8975850142635575,0.0075935885186548336,0.03987411980410335
0.28900000000000003,0.0022,0.62,0.004571522174828976,0.8975850142635575,0.00758173680801562,0.03987411980410335
0.29000000000000004,-0.0054,-0.38,0.004558067560049506,0.897697508874002,0.007503713668897376,0.03989278042584504
0.29100000000000004,0.0011,-0.38,0.004574457338959768,0.8980349081538112,0.007598757787290414,0.039948748265651424
0.29200000000000004,0.0073,-0.38,0.004617936769808567,0.9306249389773881,0.007850894450992917,0.04535478714472303
0.29300000000000004,0.0019,-2.38,0.00461742534261173,0.930516425131007,0.007847928691215941,0.0453367868526819
0.29400000000000004,0.0088,-2.38,0.004427892933527844,0.9410944999470088,0.006748832673696911,0.04709147938521132
0.29500000000000004,0.0062,-0.38,0.0043624245240928,0.9306249389773877,0.006369182204253902,0.04535478714472298
0.29600000000000004,0.0022,0.62,0.00432602713997367,0.9306249389773874,0.006158114239008234,0.04535478714472292
0.29700000000000004,-0.0061,-0.38,0.004343598835963365,0.898147346414218,0.00626001227943667,0.039967399540040985
0.29800000000000004,-0.0051,-0.38,0.004359208416484371,0.8981473464142182,0.006350532037343546,0.03996739954004102
0.29900000000000004,-0.0029,-0.38,0.004325274982844028,0.9094353056084061,0.006153752489428127,0.04183984779268296
0.30000000000000004,-0.0036,0.62,0.004312661137712318,0.9094353056084062,0.0060806049627498355,0.04183984779268298
0.30100000000000005,-0.0011,0.62,0.004294455931500791,0.9094353056084065,0.005975033204643044,0.041839847792683016
0.30200000000000005,-0.0066,-1.38,0.004330555229555744,0.9201459970411736,0.0061843725726129315,0.04361653878818184
0.30300000000000005,-0.0102,-0.38,0.004347223452688202,0.9202557337387114,0.00628103138549118,0.04363474192694417
0.30400000000000005,0.0007,-1.38,0.004341324746876266,0.9416308490437724,0.006246824865889852,0.04718044904852815
0.30500000000000005,-0.0037,0.62,0.004356576698033294,0.9522975456646805,0.006335270735686531,0.048949842178471877
0.30600000000000005,-0.0048,-0.38,0.004284716258898365,0.9628460806832277,0.005918552967722041,0.05069963464526083
0.30700000000000005,0.0064,0.62,0.004321342467082225,0.9629509513444238,0.006130947880794067,0.05071703060523303
0.30800000000000005,-0.0074,-0.38,0.0043425339903862955,0.9733840425562817,0.0062538372535469716,0.05244767323719401
0.30900000000000005,0.0053,0.62,0.004308026436733639,0.9734877779978995,0.0060537283910190205,0.05246488088678352
0.31000000000000005,-0.0026,0.62,0.004304135379106879,0.9733840425562817,0.006031164197580124,0.05244767323719401
0.31100000000000005,-0.007,-0.38,0.00429985791420314,0.9733840425562817,0.006006359233281399,0.05244767323719401
0.31200000000000006,0.002,0.62,0.004271991434423609,0.9838091347001033,0.005844761873252059,0.05417698898262839
0.31300000000000006,0.0009,0.62,0.004271201000462818,0.9835011615118362,0.005840178156817403,0.05412590234700977
0.31400000000000006,0.0042,1.62,0.00431519283927194,0.9734877779978995,0.006095286267731802,0.05246488088678352
0.31500000000000006,0.0049,-0.38,0.004356357605573069,0.9731765385001082,0.006334000221310304,0.05241325243528339
0.31600000000000006,0.0005,0.62,0.004310837544362472,0.9731765385001082,0.0060700299682247445,0.05241325243528339
0.31700000000000006,-0.0002,1.62,0.004280736242446663,0.9732802960581967,0.005895472903194451,0.05243046375355615
0.31800000000000006,-0.0039,0.62,0.004157798516072154,0.9837064876838455,0.005182558599439344,0.054159961881190086
0.31900000000000006,-0.0002,-0.38,0.004178801603496339,0.9836038299555413,0.0053043552349335355,0.05414293300283603
0.32000000000000006,0.0026,0.62,0.004294420048067259,0.9936168953349831,0.00597482511707068,0.0558039016908677
0.32100000000000006,0.0052,1.62,0.0043542312584406275,0.9937185186476144,0.006321669561469985,0.055820758980205006
0.32200000000000006,0.0066,-0.38,0.004318838210127209,0.9937185186476144,0.006116425726723393,0.055820758980205006
0.32300000000000006,-0.0002,-1.38,0.004317272783725164,0.9837064876838454,0.006107347839028497,0.054159961881190065
0.32400000000000007,-0.001,-0.38,0.004302768085234526,0.9939217341015166,0.006023235277892218,0.05585446838817
0.32500000000000007,-0.007099999999999568,-1.38,0.00431921784694752,1.0038318852832318,0.0061186272357915475,0.05749836565466388
0.32600000000000007,-0.0031999999999994338,0.62,0.004320407255593044,1.0038318852832318,0.0061255246013229465,0.05749836565466388
0.32700000000000007,0.0019000000000008882,0.62,0.004334294731070869,1.0038318852832318,0.006206057894097769,0.05749836565466388
0.32800000000000007,0.00989999999999879,0.62,0.0043754327460959475,1.0038318852832318,0.006444616717368412,0.05749836565466388
0.32900000000000007,-0.0010000000000001555,-0.38,0.004332853705550778,0.9937185186476143,0.00619770140552713,0.05582075898020499
0.33000000000000007,-0.0023999999999998888,-0.38,0.00433339871798823,0.9938201315687298,0.006200861925685121,0.05583761454579621
0.33100000000000007,-0.001400000000000122,-0.38,0.0043770848385215385,0.9939217341015166,0.0064541971802260165,0.05585446838817
0.3320000000000001,-0.0024999999999996336,0.62,0.004331146244632404,0.9940233262491602,0.006187799861487643,0.05587132050785479
0.3330000000000001,0.0008000000000000778,-0.38,0.004325599493221338,0.993921734101517,0.006155634320957991,0.055854468388170056
0.3340000000000001,0.0014999999999997114,-2.38,0.00430436456252191,1.0038318852832322,0.0060324932292742765,0.05749836565466396
0.3350000000000001,-0.001099999999999556,0.62,0.0044180360330664985,1.0038318852832324,0.006691672633920543,0.05749836565466399
0.3360000000000001,0.0028999999999996,0.62,0.004393829476715927,1.0038318852832326,0.006551299123071602,0.05749836565466403
0.3370000000000001,-0.0006999999999996004,-0.38,0.004387534693402969,1.0136451520641783,0.006514795755104831,0.05912619172318419
0.3380000000000001,0.0028999999999999556,-0.38,0.00439780279958743,1.0232656424834439,0.006574340371613182,0.060722040021819745
0.3390000000000001,0.0025000000000001666,0.62,0.004438804332381815,1.023265642483444,0.006812107736172658,0.06072204002181979
0.3400000000000001,0.004000000000000278,1.62,0.004477859036821177,1.023265642483444,0.00703858546798731,0.06072204002181979
0.3410000000000001,0.006499999999999234,-2.38,0.00444524411240913,1.0233643215859805,0.0068494519382325154,0.06073840892517404
0.3420000000000001,-0.0003999999999999223,-0.38,0.004460999344868909,1.0234629911741862,0.006940816329870494,0.0607547762502898
0.3430000000000001,0.00029999999999992224,-1.38,0.004429266552998617,1.0234629911741862,0.006756798275449196,0.0607547762502898
0.3440000000000001,-0.0004000000000002443,0.6199999999999445,0.004431723969572479,0.9940233262491619,0.006771048802748312,0.05587132050785506
0.3450000000000001,-0.002599999999999234,-0.3799999999999445,0.00435924347533104,0.9635799356273481,0.006350735343147226,0.05082136660620895
0.3460000000000001,0.004299999999999068,0.62,0.004315080485232329,0.963684726428557,0.006094634728092299,0.050838749318995284
0.347,-0.0041,0.6200000000000555,0.004313657240694213,0.9940233262491618,0.006086381351208842,0.055871320507855045
0.348,-0.0009,1.619999999999889,0.004273658531808824,0.9940233262491617,0.005854429349678716,0.055871320507855024
0.349,-0.0056,-0.38,0.0042447678531488935,0.9941249080148459,0.005686892673434087,0.055888170905378926
0.35,0.0006,-0.3800000000000555,0.004317271252971875,0.9941249080148459,0.006107338962209742,0.055888170905378926
0.351,0.006,-1.3799999999998889,0.0043180625244614804,1.0240548090564698,0.006111927535463282,0.060852947083520216
0.352,-0.0038,0.62,0.004327043057057343,1.0240548090564696,0.006164005529190169,0.060852947083520174
0.353,-0.0028,-2.38,0.00427866438087575,1.0143422556315798,0.005883458204428958,0.05924182736061309
0.354,-0.0039,1.62,0.004169968845197493,1.0144418027505764,0.0052531341824660766,0.05925834025065939
0.355,-0.0006,1.62,0.004229460872274113,1.0144418027505764,0.005598127687007598,0.05925834025065939
0.356,0.0059,0.62,0.004286701297775301,1.0240548090564698,0.0059300641827950045,0.060852947083520216
0.357,-0.0043,1.62,0.0042613875783755065,1.0240548090564698,0.005783270247576281,0.060852947083520216
0.358,-0.0006,0.62,0.004246348165589229,1.0240548090564698,0.005696056885074742,0.060852947083520216
0.359,0.0005,-0.38,0.004202388366673737,1.024153412121329,0.005441134573093948,0.06086930337373391
0.36,-0.0028,0.62,0.004169851880464177,1.02405480905647,0.005252455905472714,0.06085294708352025
0.361,-0.0003,1.62,0.004199183255104419,1.0526549164505186,0.005422548172073833,0.06559713690508974
0.362,-0.001,-1.38,0.004188077747476466,1.080591714715268,0.0053581474752990264,0.07023129691535755
0.363,0.0066,0.62,0.004211951653403112,1.080591714715268,0.005496591950591835,0.07023129691535755
0.364,-0.0064,-1.38,0.004224726248596021,1.0805917147152675,0.005570671664820179,0.07023129691535747
0.365,0.0026,0.62,0.004203934041545633,1.0803113324810785,0.00545009792191799,0.07018478707106698
0.366,-0.0021,0.62,0.004224034261800246,1.080404801310657,0.005566658842237021,0.07020029169361303
0.367,-0.0006,1.62,0.004235822550510756,1.0894359161873446,0.00563501897778171,0.07169837429467071
0.368,-0.0042,-0.38,0.004238440262971601,1.0894359161873446,0.005650199058880404,0.07169837429467071
0.369,-0.0104,-1.38,0.004230359411421371,1.0894359161873446,0.005603338304036685,0.07169837429467071
0.37,-0.0072,0.62,0.0042308844419718045,1.0894359161873448,0.005606382949487276,0.07169837429467076
0.371,-0.0046,-1.38,0.004225582268616902,1.0986685465084716,0.005575635713978916,0.07322988430588555
0.372,-0.0021,-0.38,0.004223169225391054,1.0893432222540704,0.005561642507157717,0.07168299821203224
0.373,0.0034,1.62,0.0041715232489712905,1.0893432222540704,0.005262148150080666,0.07168299821203224
0.374,0.007,-1.38,0.004175341691682595,1.0803113324810758,0.005284291250553058,0.07018478707106654
0.375,0.0019,-0.38,0.00421851923985608,1.0803113324810758,0.005534677300480326,0.07018478707106654
0.376,-0.0035,0.62,0.004158476244132793,1.0803113324810758,0.005186488735799718,0.07018478707106654
0.377,0.0062,-0.38,0.0041462319170699315,1.0802178555638484,0.005115484039679196,0.07016928110694019
0.378,-0.0003,0.62,0.004142188876936075,1.0802178555638484,0.00509203850162441,0.07016928110694019
0.379,0.0008,0.62,0.004025825498424252,1.0802178555638484,0.004417248757086323,0.07016928110694019
0.38,0.0084,0.62,0.0040290427375339975,1.0803113324810758,0.0044359054855583535,0.07018478707106654
0.381,0.0019,0.62,0.004048126252072814,1.0803113324810758,0.004546570542427844,0.07018478707106654
0.382,0.0012,-0.38,0.004084223089193729,1.080404801310655,0.004755895639472706,0.07020029169361269
0.383,0.0033,-1.38,0.0040907255873237815,1.0803113324810758,0.004793603543008624,0.07018478707106654
0.384,0.0102,-0.38,0.004089996848789376,1.080404801310655,0.0047893775975629375,0.07020029169361269
0.385,-0.0035,0.62,0.004088046158456742,1.0525589833920714,0.0047780655692593165,0.06558122351591374
0.386,-0.0017,-1.38,0.00412607395482625,1.0621122224734207,0.004998588274303666,0.06716591615319344
0.387,-0.0035,-1.38,0.004128288638713963,1.0620171437031283,0.005011431197858607,0.06715014447345623
0.3880000000000001,0.00769999999999969,-0.38,0.004133565418054809,1.0715802969145651,0.005042031173804062,0.06873648166802387
0.389,0.0063,0.62,0.004150066010122493,1.0715802969145654,0.005137717896280484,0.0687364816680239
0.3900000000000001,-0.00030000000000079936,0.62,0.004147851670835765,1.0806851592944873,0.005124876971062244,0.07024679751525059
0.391,-0.0039,0.62,0.004128550524344502,1.0712032927055417,0.005012949869282467,0.06867394415701053
0.3920000000000001,-0.0049999999999994224,-0.38,0.004083060876441548,1.0431118699005535,0.004749155982579162,0.06401413500634409
0.393,-0.0024,0.62,0.004093170664501301,1.0712975561958837,0.004807782514306083,0.06868958059799535
0.39400000000000013,0.003699999999999112,-0.38,0.004094532317490238,1.0620171437031283,0.004815678722583162,0.06715014447345623
0.395,-0.0003,0.62,0.00412233697864678,1.061922056419996,0.004976917597208005,0.06713437138160795
0.39600000000000013,0.0018999999999992007,-2.38,0.004114120732315933,1.0619220564199963,0.004929271689762214,0.067134371381608
0.397,-0.0017,-0.38,0.004094735909130011,1.0619220564199963,0.004816859347899733,0.067134371381608
0.39800000000000013,0.0012000000000015987,0.62,0.0040741371380045655,1.0619220564199958,0.004697407337453631,0.06713437138160791
0.399,0.0084,-0.38,0.004076264644409343,1.0523670910396228,0.0047097447198994075,0.0655493923856043
0.40000000000000013,0.003699999999999845,2.62,0.004042505058564822,1.0620171437031298,0.004513973313129698,0.06715014447345648
0.401,0.003,0.62,0.004067071856170633,1.0620171437031298,0.0046564358584128725,0.06715014447345648
0.40200000000000014,-0.0014000000000004662,-0.38,0.004022669537000412,1.0620171437031314,0.004398947377131556,0.06715014447345674
0.403,-0.0035,0.62,0.004011268405767341,1.061922056419999,0.004332832362849573,0.06713437138160844
0.40400000000000014,-0.007100000000000178,-1.38,0.004012715666546506,1.0623974077301164,0.004341225009607882,0.06721322272353025
0.405,-0.0079,-1.38,0.0039944947941160025,1.0811522610436282,0.004235562403297499,0.07032428041884181
0.40600000000000014,0.0011999999999985566,-0.38,0.004011170280672185,1.0716745272439727,0.004332263336677078,0.06875211260826823
0.40700000000000003,-0.0053,0.62,0.003967602669593206,1.081058856839752,0.004079615316946956,0.07030878651641632
0.40800000000000014,-0.004199999999999267,0.6199999999999445,0.003970894289408918,1.0715802969145682,0.0040987033781820885,0.06873648166802439
0.40900000000000003,-0.0009,-0.380000000000111,0.003970884620965117,1.080965444564993,0.004098647311000078,0.07029329127519171
0.41000000000000014,0.005599999999997358,-2.38,0.004008529480524328,1.081058856839752,0.004316949370376527,0.07030878651641632
0.41100000000000003,-0.0063,-2.3799999999998334,0.004001540380012341,1.081058856839752,0.004276419665847917,0.07030878651641632
0.4119999999999999,-0.0049,0.62,0.004007486367856312,1.0716745272439727,0.004310900373348619,0.06875211260826823
0.41300000000000003,-0.0034,0.619999999999889,0.004030355386940819,1.0624924524718984,0.0044435175226891525,0.06722898875861338
0.4139999999999999,0.0003,-1.3799999999998889,0.003982065555554572,1.0623974077301164,0.004163485407760467,0.06721322272353025
0.41500000000000004,0.0064,0.619999999999889,0.003930363312315863,1.0626825164534826,0.003863664760119599,0.06726051659850765
0.4159999999999999,0.0032,-1.3799999999998334,0.003921976101233172,1.0626825164534826,0.0038150274302632694,0.06726051659850765
0.41700000000000004,-0.0015,1.62,0.003917868269811526,1.0626825164534826,0.0037912061683588105,0.06726051659850765
0.4179999999999999,0.0029,0.62,0.003946662672271617,1.0531344506604214,0.00395818454015125,0.06567668210701402
0.41900000000000004,0.0007,-0.38,0.0041596868246366915,1.0624924524718984,0.005193508876667192,0.06722898875861338
0.41999999999999993,-0.0015,1.62,0.004030277041512856,1.0532303313026574,0.004443063198553871,0.06569258680138157
0.42100000000000004,0.005,-0.38,0.003965396061526129,1.0531344506604214,0.0040668192249726474,0.06567668210701402
0.42199999999999993,-0.0004,-0.38,0.00394108629259989,1.0436925460957869,0.0039258471857167585,0.06411045765496559
0.42300000000000004,0.0018,0.62,0.0039355871212252615,1.0531344506604223,0.0038939575612101963,0.06567668210701416
0.42399999999999993,-0.0061,-0.38,0.003923065985757335,1.0715802969145665,0.0038213476566870954,0.06873648166802408
0.42500000000000004,0.0004,-1.38,0.003864825101261275,1.0623023544846297,0.0034836095119771134,0.06719745527785141
0.42599999999999993,-0.0003,-0.38,0.0038875170713652,1.0623974077301142,0.0036151999565424324,0.06721322272352988
0.42700000000000005,0.0005,0.62,0.0038718192392088336,1.062397407730114,0.0035241684285302077,0.06721322272352985
0.42799999999999994,-0.0017,0.62,0.003822230886296936,1.062397407730114,0.0032366062038730386,0.06721322272352985
0.42900000000000005,0.0019,0.62,0.003825903622707431,1.0623023544846295,0.003257904355369577,0.06719745527785137
0.42999999999999994,-0.0046,-0.38,0.003861661410867278,1.062302354484629,0.003465263311823204,0.0671974552778513
0.43100000000000005,0.0056,0.62,0.0037873512633545734,1.0622072927331596,0.0030343397162901765,0.06718168642119883
0.43199999999999994,-0.0034,-0.38,0.003782610840279249,1.062112222473421,0.003006850063472339,0.06716591615319348
0.43300000000000005,0.0002,0.62,0.0038296621098442576,1.07167452724397,0.0032796997742319737,0.06875211260826779
0.43399999999999994,-0.0008,0.62,0.0038264746956216287,1.0623974077301135,0.0032612159998990876,0.06721322272352978
0.43500000000000005,0.0057,1.62,0.0036882354130206374,1.0623974077301135,0.00245956816718363,0.06721322272352978
0.43599999999999994,0.0032,-0.38,0.0037015614605869483,1.0623974077301135,0.002536845746676216,0.06721322272352978
0.43700000000000006,-0.0022,1.62,0.003719247829476878,1.0626825164534797,0.002639408773787271,0.06726051659850718
0.43799999999999994,0.0047,-0.38,0.003704054059359414,1.0533262032172077,0.0025513002950953074,0.06570849004799939
0.43900000000000006,0.0021,-1.38,0.0036252015062282783,1.0534220664064602,0.0020940353474457434,0.0657243918472636
0.43999999999999995,-0.0,-0.38,0.003593598673706678,1.062967548705103,0.0019107709256262634,0.06730779778834116
0.44100000000000006,-0.0022,0.62,0.0035938230653590757,1.0724280718109787,0.0019120721699501595,0.06887711068661924
0.44199999999999995,-0.0029,-2.38,0.003578140117520805,1.0723339076985934,0.0018211269559083084,0.06886149073046381
0.44300000000000006,0.0011,-0.38,0.0035678334477452574,1.0723339076985934,0.001761358709628198,0.06886149073046381
0.44399999999999995,0.0048,-0.38,0.003576926878868595,1.0723339076985934,0.0018140914004727505,0.06886149073046381
0.44500000000000006,0.0001,-0.38,0.003560919357219189,1.0723339076985934,0.0017212639870490944,0.06886149073046381
0.44599999999999995,0.0016,0.62,0.003579928870774961,1.0723339076985934,0.0018314999131638482,0.06886149073046381
0.44700000000000006,0.0001,0.62,0.003575127674695549,1.0539012515565434,0.001803657838472158,0.06580387914709608
0.44799999999999995,0.0016,0.62,0.003601822923503823,1.0632525045464838,0.001958463245070813,0.06735506630323342
0.44900000000000007,0.002,1.62,0.0036012138467075372,1.0632525045464836,0.00195493121651487,0.06735506630323337
0.44999999999999996,-0.0045,-0.38,0.0035360239146429787,1.0633474728575079,0.0015768956337835793,0.06737081965997171
0.45100000000000007,-0.0002,-1.38,0.003519036614503067,1.0345549423864793,0.0014783864974178102,0.06259471067143316
0.45199999999999996,-0.0023,-0.38,0.0035572734754353986,1.0345549423864793,0.0017001215651895388,0.06259471067143316
0.45300000000000007,-0.003,2.62,0.0035595622513544816,1.0345549423864793,0.001713394147487293,0.06259471067143316
0.45399999999999996,-0.0008,2.62,0.003545059808824445,1.0439827630761607,0.0016292946686377054,0.06415859888833111
0.45500000000000007,-0.0037,-0.38,0.0035552789533684643,1.0344573307818035,0.0016885553572190007,0.06257851884477357
0.45599999999999996,-0.0001,1.62,0.0034680791979548793,1.0249418951454616,0.001182885090234288,0.06100009704824819
0.4570000000000001,0.0046,-0.38,0.0034660135758433587,1.0540928646227548,0.001170906574014053,0.06583566394936535
0.45799999999999996,0.0006,1.62,0.0034350803982561386,1.0539970624439743,0.0009915254725989659,0.0658197722705268
0.4590000000000001,-0.0055,0.62,0.0034472503435297413,1.0539012515565438,0.0010620988296743835,0.06580387914709615
0.45999999999999996,-0.0015,0.62,0.0034461947342428064,1.053997062443974,0.00105597736491311,0.06581977227052675
0.4610000000000001,-0.0022,0.62,0.0034019042443100764,1.0253359092788485,0.0007991373799505129,0.06106545616789814
0.46199999999999997,-0.0044,0.62,0.003369320126424549,0.9959516081019832,0.0006101824968492125,0.056191184171764795
0.4630000000000001,0.0022,-0.38,0.0033335142679276944,0.9959516081019834,0.00040254478112575117,0.05619118417176481
0.46399999999999997,-0.0003,1.62,0.0033204681290795583,0.9958502126689783,0.0003268903887118375,0.05617436468313183
0.4650000000000001,0.0004,0.62,0.0033795154494420864,0.9858598306457825,0.0006693050447029457,0.054517158713412325
0.46599999999999997,0.0011,0.62,0.0033319277047238645,0.9858598306457831,0.00039334432138749106,0.054517158713412416
0.4670000000000001,0.0048,0.62,0.0033238240351602544,0.975767167560487,0.0003463512451758555,0.05284298634678152
0.46799999999999997,0.0138,-1.38,0.0034131826401183197,0.975767167560487,0.000864540653072827,0.05284298634678152
0.4690000000000001,0.0015,0.6199999999999445,0.003402635877047332,0.975767167560487,0.0008033801088415302,0.05284298634678152
0.47,0.0001,-0.38,0.003411119416088771,0.9758706496749935,0.0008525760432992917,0.05286015197443432
0.4710000000000001,-0.0014,-0.3800000000000555,0.0034200956312838006,0.9654644298414187,0.0009046290004739374,0.0511339667704678
0.472,-0.0003,-1.3800000000000554,0.003403602623072891,0.9756636744703255,0.0008089862566860068,0.052825818898485546
0.4730000000000001,-0.0013,-2.379999999999889,0.003435619955853035,0.9756636744703254,0.000994654360206302,0.052825818898485526
0.474,0.0019,-0.3799999999999445,0.003433760340492133,0.9756636744703254,0.0009838704744995555,0.052825818898485526
0.4750000000000001,-0.0046,0.62,0.0034014805899653545,0.975767167560487,0.0007966806138209673,0.05284298634678152
0.476,-0.0003,0.6199999999999445,0.0034591615917976574,0.9656735910778405,0.0011311720061207013,0.05116866246567017
0.4770000000000001,0.0005,-0.38,0.003469575260381917,0.9656735910778405,0.0011915607371247843,0.05116866246567017
0.478,-0.0017,-0.3799999999999445,0.0034729219485297434,0.9655690161231841,0.001210968138913922,0.051151315557540204
0.4790000000000001,-0.0053,0.6199999999999445,0.0034792601006222845,0.9654644298414186,0.0012477230018791184,0.051133966770467776
0.48,0.0037,-0.38,0.0035324867877135173,0.9653598322288621,0.001556383879934085,0.05111661610384217
0.4810000000000001,0.0001,-0.38,0.0035127333799751842,0.9755601704010156,0.001441834120963722,0.052808649628966885
0.482,-0.0061,1.62,0.0035193280898363024,0.9754566553490628,0.0014800767591493656,0.052791478537645875
0.4830000000000001,-0.0029,-0.38,0.003541174934109981,0.9754566553490628,0.0016067663298281777,0.052791478537645875
0.484,-0.0003,-0.38,0.0035695580635420215,0.9753531293109701,0.0017713597345881819,0.05277430562394244
0.4850000000000001,-0.0047,0.62,0.0036309454505650002,0.97535312931097,0.002127344407230595,0.052774305623942426
0.486,-0.004,1.62,0.00359937882868158,0.9753531293109701,0.0019442899704390454,0.05277430562394244
0.4870000000000001,0.001,-0.38,0.003590746536002575,0.9754566553490628,0.0018942314155385286,0.052791478537645875
0.488,-0.0012,0.62,0.003587536415765667,0.9649413283970294,0.0018756159693190835,0.05104719462958288
0.4890000000000001,-0.0041,1.62,0.0035668677447937267,0.9751460442623686,0.0017557586105566775,0.05273995432706659
0.49,-0.0005,1.62,0.0035607537242183357,0.9754566553490629,0.0017203034833944018,0.052791478537645896
0.4910000000000001,0.002,-0.38,0.003568194817425281,0.9754566553490628,0.0017634542877833313,0.052791478537645875
0.492,-0.0042,-0.38,0.003663676185651919,0.9753531293109702,0.0023171495216085833,0.05277430562394246
0.4930000000000001,-0.0035,0.62,0.003873178564888605,0.944308024996536,0.0035320511407711894,0.04762453937066082
0.494,0.0015,-0.38,0.003891186583979929,0.944308024996536,0.003636479413288533,0.04762453937066082
0.4950000000000001,0.0037,0.62,0.00387162252883084,0.9444149541811253,0.0035230277075627365,0.04764227679878191
0.496,-0.0004,1.62,0.0038803522741108726,0.9548390681538218,0.003573651388850893,0.04937143028505302
0.4970000000000001,0.0047,-1.38,0.0038817338556895392,0.9547333064603855,0.0035816631627650745,0.049353886520527954
0.498,0.001,0.62,0.0038897845818416515,0.9547333064603855,0.0036283492208102003,0.049353886520527954
0.4990000000000001,0.0049,0.62,0.003940538337521126,0.9547333064603855,0.003922669601219414,0.049353886520527954
0.5,0.0013,0.62,0.003958932369825214,0.9439871647690045,0.004029336359423239,0.04757131503116347
0.5010000000000001,-0.006,0.62,0.003949707320848923,0.944094130294592,0.003975840418331858,0.04758905848753443
0.502,0.0019,-0.38,0.0039626228538652605,0.9335500449706916,0.00405073742919668,0.045840004136716926
0.5030000000000001,-0.0014,-1.38,0.003960031298913429,0.9335500449706915,0.004035709035158387,0.045840004136716905
0.504,0.0076,-0.38,0.004019282999589043,0.9005053068364145,0.0043793088899725255,0.040358538345239184
0.5050000000000001,-0.0011,0.62,0.0040756618792535835,0.8662008593948115,0.004706249292466195,0.03466811179736947
0.506,-0.0,2.62,0.004226941926539988,0.8663174293666198,0.005583520352894631,0.03468744844062518
0.5070000000000001,-0.0026,-0.38,0.004235564238335696,0.8663174293666199,0.005633521028780493,0.03468744844062519
0.508,-0.0051,-0.38,0.004227630022462974,0.866433983655112,0.005587510612356222,0.034706782482330216
0.5090000000000001,0.0003,0.62,0.004233478613353055,0.8887631909570476,0.005621426516166324,0.0384107545180297
0.51,0.001,-0.38,0.004269354768571437,0.9215715548864983,0.005829471881679333,0.04385301052329342
0.5110000000000001,-0.0042,0.62,0.004268677895526494,0.921461974889816,0.005825546703544057,0.043834833378090944
0.512,-0.0002,0.62,0.0042697209082825,0.921461974889816,0.00583159512118349,0.043834833378090944
0.5130000000000001,-0.0016999999999982235,-0.38,0.0042492523470429346,0.9323594429059634,0.005712898196201159,0.0456425068994094
0.514,0.0063,-0.38,0.004244142020438727,0.9432380664456198,0.005683263477547739,0.0474470544963273
0.5150000000000001,0.0029999999999998223,0.62,0.004278290292206313,0.9324677422752989,0.005881288869016799,0.04566047161396816
0.516,0.0022,-0.38,0.0042781062889166045,0.932467742275297,0.005880221836291862,0.04566047161396785
0.5170000000000001,-0.007899999999998002,1.62,0.004281868538187037,0.963789505836074,0.005902039071718949,0.05085613014179444
0.518,0.0011,0.62,0.004344898414175612,0.9636847264285481,0.006267548516877217,0.05083874931899381
0.5190000000000001,-0.002499999999998801,0.62,0.0041235462930765574,0.9533573367629494,0.004983930396127839,0.04912564047433575
0.52,0.0029,0.62,0.004125663829924118,0.9532514106738394,0.004996209965238753,0.04910806943983331
0.5210000000000001,-0.003699999999998135,-1.38,0.004146006606819976,0.9533573367629485,0.005114177468419804,0.0491256404743356
0.522,0.0047,-0.38,0.00415450035062208,0.9533573367629489,0.005163432580154219,0.04912564047433565
0.5230000000000001,0.001400000000000555,0.62,0.004160227726820235,0.9533573367629445,0.005196645561515306,0.04912564047433494
0.524,0.0039,0.62,0.004163984964405478,0.9216811218550447,0.005218433734244045,0.043871185507386876
0.5250000000000001,-0.0062999999999992,0.62,0.004162354667574103,0.9216811218550445,0.0052089796637586885,0.043871185507386834
0.526,-0.0027,-0.38,0.004151629317840539,0.9216811218550438,0.005146783497753953,0.04387118550738672
0.5270000000000001,-0.0016000000000002442,-0.38,0.004216898539364374,0.9215715548864848,0.005525278879046043,0.04385301052329117
0.528,-0.0027,-0.38,0.004227962502738966,0.9216811218550436,0.005589438661226665,0.04387118550738669
0.5290000000000001,0.006399999999999179,-0.38,0.004245325594117799,0.9216811218550439,0.005690127006183266,0.043871185507386744
0.53,0.0027,-1.38,0.0042452457096997945,0.9533573367629463,0.005689663757464408,0.04912564047433523
0.5310000000000001,0.005999999999999822,-0.38,0.004278730182140181,0.9534632510840763,0.005883839785120268,0.04914320955676349
0.532,0.0052,-0.38,0.004286035270303314,0.9535691536411476,0.00592620189799866,0.04916077668776806
0.5330000000000001,0.004500000000000488,-0.38,0.004244678739131146,0.9428097430339474,0.005686375902384298,0.04737600414878843
0.534,0.0067,0.62,0.004242130597182382,0.9428097430339474,0.005671599259795851,0.04737600414878843
0.5350000000000001,-0.0030999999999997557,1.62,0.004248235591021794,0.9532514106738366,0.005707002041031575,0.049108069439832834
0.536,-0.002,0.62,0.004250422491903567,0.9532514106738366,0.005719683851290215,0.049108069439832834
0.5370000000000001,0.0016000000000002442,-0.38,0.004231827903456232,0.9424883727322596,0.005611854070575376,0.047322695198118575
0.538,0.0027,-1.38,0.0042392810896566225,0.9424883727322596,0.005655075002078711,0.047322695198118575
0.5390000000000001,0.0001999999999994449,1.62,0.004264708021781732,0.9424883727322596,0.005802525456444355,0.047322695198118575
0.54,-0.0023,-0.38,0.004257755667166377,0.9316009948037549,0.005762208840900602,0.045516695421951976
0.5409999999999999,0.0086,-0.38,0.004313060727532569,0.9205848653454982,0.00608292217900959,0.043689338323991266
0.542,0.0129,-0.38,0.0043098318328985965,0.9205848653454982,0.006064197860301556,0.043689338323991266
0.5429999999999999,0.0039,-0.38,0.004311762996492742,0.9206945497347464,0.006075396653298291,0.043707532785847186
0.544,0.0028,0.62,0.004301692063250257,0.9206945497347464,0.006016995440160034,0.043707532785847186
0.5449999999999999,-0.0026,-1.38,0.004306368604269785,0.9317093823330451,0.006044114641752901,0.04553467476049637
0.546,-0.0019,-0.38,0.004302412354428403,0.9317093823330451,0.00602117239949475,0.04553467476049637
0.5469999999999999,-0.0025,0.62,0.004333496710418022,0.9313841819051842,0.0062014301825328655,0.0454807304679603
0.548,-0.0065,0.62,0.004494015514310458,0.9206945497347465,0.007132276674422326,0.04370753278584721
0.5489999999999999,-0.0043,-0.38,0.004536820065937101,0.9206945497347465,0.007380499722142405,0.04370753278584721
0.55,-0.0036,0.62,0.004546230809696826,0.9206945497347466,0.007435072504909221,0.04370753278584722
0.5509999999999999,-0.0032,-0.38,0.004550181379663243,0.9206945497347466,0.007457981809645053,0.04370753278584722
0.552,-0.0018,-0.38,0.004514852670799332,0.9206945497347466,0.007253111078543712,0.04370753278584722
0.5529999999999999,-0.0075,-0.38,0.004511757819988393,0.9206945497347466,0.0072351640782519966,0.04370753278584722
0.554,-0.0068,-0.38,0.004517669953592199,0.9206945497347466,0.007269448465446736,0.04370753278584722
0.5549999999999999,-0.0118,0.62,0.0044562237928377525,0.9206945497347464,0.006913122964686834,0.043707532785847186
0.556,-0.0027,1.62,0.004471008494127555,0.9206945497347464,0.006998859258476243,0.043707532785847186
0.5569999999999999,0.0038,0.62,0.0044817204948806,0.8872849230631111,0.0070609780139135854,0.03816553923266942
0.558,-0.0023,-2.38,0.0044757713315303795,0.8873987234063329,0.007026478891692734,0.03818441644954714
0.5589999999999999,0.0078,-2.38,0.004459587451088372,0.8873987234063329,0.0069326287758851406,0.03818441644954714
0.56,0.0013,-0.38,0.004462715614042788,0.8873987234063329,0.00695076895287106,0.03818441644954714
0.5609999999999999,0.0024,0.62,0.004487382508500489,0.8988216806015229,0.007093811958518829,0.04007925818950934
0.562,0.0014,1.62,0.004468052667440689,0.8988216806015229,0.006981718457302902,0.04007925818950934
0.563,0.0007,1.619999999999889,0.004512248326606091,0.8987093267076223,0.00723800851985797,0.040060620909847654
0.5640000000000001,-0.0054,0.62,0.0045130475023425175,0.9099903148536387,0.007242642929737788,0.04193191280404222
0.565,0.0,0.6199999999996669,0.0044877013297797185,0.921133156684516,0.0070956607990416455,0.043780288968126406
0.5660000000000001,-0.0021,-2.379999999999778,0.0044817269843888535,0.9320344692937378,0.007061015646488994,0.04558860023108268
0.567,0.0088,-0.38,0.0044763829971310905,0.9321428064195625,0.007030025932692446,0.04560657120869316
0.5680000000000001,-0.0017,-0.38,0.00445092151778489,0.9321428064195625,0.006882375139433303,0.04560657120869316
0.569,0.002,-0.379999999999889,0.004465793982571641,0.9321428064195625,0.006968620372619654,0.04560657120869316
0.5700000000000001,-0.0041,0.619999999999889,0.004461654211869275,0.9320344692937378,0.006944613895234573,0.04558860023108268
0.571,-0.003,-0.380000000000111,0.004452517476167497,0.9319261195736394,0.006891630081693198,0.045570627164332314
0.5720000000000001,-0.0022,-1.3799999999997778,0.004438704578847818,0.9212427757934708,0.006811529266704139,0.043798472601278116
0.573,0.0022,0.619999999999889,0.0044170700533703285,0.9212427757934708,0.0066860709300103965,0.043798472601278116
0.5740000000000001,0.0015,-0.379999999999889,0.00452898925911846,0.9318177572548737,0.007335088973500891,0.04555265200771327
0.575,-0.0035,0.619999999999889,0.004558816642081254,0.9318177572548737,0.007508057586024104,0.04555265200771327
0.5760000000000001,0.0074,-0.379999999999889,0.004516145485249952,0.9318177572548738,0.007260608093017048,0.04555265200771329
0.577,0.0031,0.62,0.004508228351955749,0.9318177572548738,0.0072146967382472425,0.04555265200771329
0.5780000000000001,0.0042,-0.38,0.004552069464613889,0.9318177572548737,0.007468930790138799,0.04555265200771327
0.579,0.0053,-2.38,0.004550890426852406,0.9319261195736394,0.007462093565231387,0.045570627164332314
0.5800000000000001,0.0065,0.62,0.004507315163149391,0.9320344692937378,0.0072094011680323014,0.04558860023108268
0.581,-0.0025,0.62,0.004544486024547436,0.9214619748898032,0.007424954518131178,0.04383483337808882
0.5820000000000001,-0.0014,-0.38,0.004507940591032449,0.9214619748898032,0.007213028016331421,0.04383483337808882
0.583,-0.0025,-0.38,0.0044842956566717536,0.9215715548864855,0.007075911344222659,0.04385301052329128
0.5840000000000001,0.0023,-1.38,0.0044724706638707605,0.9216811218550442,0.00700733836212644,0.0438711855073868
0.585,0.0049,0.62,0.004438319434433712,0.9216811218550442,0.00680929581916997,0.0438711855073868
0.5860000000000001,-0.0005,-0.38,0.004470613416645214,0.9105449858012596,0.006996568209206351,0.04202392169854628
0.587,-0.0027,-0.38,0.0044668339074697,0.9425955083404445,0.006974650883810325,0.047340466867814616
0.5880000000000001,-0.0048,0.62,0.004473368079373492,0.942702631772957,0.007012542463155282,0.04735823651780842
0.589,-0.0033,-0.38,0.0044706638780890465,0.9322511309555039,0.0069968608344740954,0.04562454009789204
0.5900000000000001,-0.0069,-0.38,0.004474229892543084,0.9213523818603487,0.0070175401067093445,0.043816654071008286
0.591,0.0011,-0.38,0.004472349218972628,0.9214619748898032,0.007006634104714577,0.04383483337808882
0.5920000000000001,0.0044,0.62,0.0043918743385838325,0.9214619748898032,0.0065399613020357605,0.04383483337808882
0.593,0.0019,0.62,0.004223338880517669,0.9214619748898031,0.005562626335068291,0.04383483337808881
0.5940000000000001,-0.0025,1.62,0.0042293650578064,0.9215715548864855,0.005597572060134108,0.04385301052329128
0.595,-0.0032,0.62,0.0042399464157970605,0.932467742275288,0.005658933219862368,0.04566047161396634
0.5960000000000001,0.0052,-1.38,0.004232697491239085,0.9217906758001251,0.005616896799012354,0.04388935833114597
0.597,0.0128,-0.38,0.004241249263941975,0.9219002167263709,0.0056664884196006545,0.04390752899533896
0.5980000000000001,0.0063,0.62,0.004252679085243996,0.9217906758001251,0.005732769807225743,0.04388935833114597
0.599,-0.0057,0.62,0.0042180794017164,0.9216811218550441,0.005532126684730695,0.04387118550738678
0.6000000000000001,0.0023,0.62,0.004206059097459968,0.9217906758001251,0.005462421094001015,0.04388935833114597
0.601,-0.002,0.62,0.004205160974586767,0.9217906758001251,0.005457212890939863,0.04388935833114597
0.6020000000000001,0.0009,-0.38,0.004193245289360093,0.9219002167263709,0.005388113984626427,0.04390752899533896
0.603,-0.0027,-1.38,0.004198078565870682,0.9219002167263709,0.005416142093328434,0.04390752899533896
0.6040000000000001,-0.0016,-0.38,0.004147895923216242,0.9220097446384219,0.00512513359005096,0.04392569750073549
0.605,0.0038,0.62,0.0041163597430794304,0.9221192595409156,0.004942255684558866,0.04394386384810482
0.6060000000000001,0.0031,0.62,0.003950191807354279,0.9220097446384219,0.003978649949383316,0.04392569750073549
0.607,-0.0012,0.62,0.0039516108250091326,0.9108776262440808,0.003986878814624764,0.042079100141806346
0.6080000000000001,-0.0034,-0.38,0.003935830388340263,0.9107667595954371,0.0038953682641004513,0.04206070956659626
0.609,0.0017,0.62,0.003929085602938269,0.8774394620713895,0.0038562553397716586,0.03653237278395513
0.6100000000000001,-0.0048,1.62,0.003910470261032469,0.8780146967110067,0.0037483052100164647,0.03662779278656863
0.611,0.0006,0.62,0.003979570446890357,0.8892175482031621,0.004149016304511207,0.03848612336167333
0.6120000000000001,-0.0063,-0.38,0.00398689754916501,0.8892175482031621,0.004191506076940898,0.03848612336167333
0.613,-0.0019,1.62,0.003985696634519365,0.8776696011690768,0.004184541988261879,0.03657054828972336
0.6140000000000001,-0.0041,1.62,0.004011511948421569,0.8997200066598364,0.004334244663588282,0.0402282726419232
0.615,-0.0019,1.62,0.0039903080866301776,0.8997200066598364,0.004211283740105123,0.0402282726419232
0.6160000000000001,0.0002,0.62,0.0039903566042129215,0.8997200066598383,0.004211565092947263,0.04022827264192351
0.617,-0.0063,1.62,0.003992050228259467,0.8659676723759077,0.004221386397143894,0.03462943070200281
0.6180000000000001,-0.0038,0.62,0.003924670896982514,0.8659676723759077,0.00383065451636662,0.03462943070200281
0.619,-0.0016,-0.38,0.003929563144250328,0.8660842737333508,0.0038590245957359644,0.03464877255151203
0.6200000000000001,0.0005,-0.38,0.0039438488851812805,0.8662008593948087,0.00394186742478252,0.034668111797369006
0.621,0.0012,-0.38,0.003924954937792117,0.8662008593948094,0.0038323016653906646,0.03466811179736912
0.6220000000000001,-0.0017,-0.38,0.003913913347841591,0.8662008593948088,0.003768271626410209,0.034668111797369026
0.623,-0.0101,-1.38,0.004010081396604062,0.8548145108925496,0.004325948911885039,0.03277934271251928
0.6240000000000001,-0.0065,0.62,0.004006517585300131,0.8548145108925502,0.004305282415689097,0.032779342712519394
0.625,-0.001,0.62,0.0040052226849702395,0.8549326333931518,0.0042977733052285355,0.03279893688946885
0.6260000000000001,-0.0004,-0.38,0.004026206560783666,0.8548145108925514,0.004419458532837515,0.032779342712519595
0.627,-0.0065,-0.38,0.003994390855473484,0.854932633393153,0.004234959664438164,0.032798936889469034
0.6280000000000001,0.0025,0.62,0.0039838959640709675,0.854932633393153,0.004174099923349264,0.032798936889469034
0.629,-0.0012,0.62,0.003989548412871277,0.854932633393153,0.004206878401688031,0.032798936889469034
0.6300000000000001,0.0064,0.62,0.003955768706173314,0.8316956450967294,0.004010990314346413,0.02894438201521838
0.631,0.0017,-0.38,0.003957530074313224,0.8316956450967294,0.0040212044656744985,0.02894438201521838
0.6320000000000001,0.0024,0.62,0.003972909409502842,0.8666670452074602,0.004110389033847842,0.03474544276528703
0.633,-0.0031,0.62,0.003984147430982077,0.8666670452074602,0.004175558176752331,0.03474544276528703
0.6340000000000001,0.0038,0.62,0.00398910591796539,0.8667835524839568,0.004204312379385125,0.03476476900863565
0.635,0.0062,-0.38,0.003982806195248981,0.8554049602807228,0.004167780367880883,0.03287728653975491
0.6360000000000001,0.0008,-2.38,0.003955838862457658,0.8671329803905184,0.004011397149742526,0.034822732158733015
0.637,0.0029,0.62,0.003976743826255283,0.878474613220476,0.004132624767580593,0.036704083801596434
0.6380000000000001,-0.002199999999999112,0.62,0.003970783433245472,0.8785895547301614,0.00409806052470732,0.03672315031532703
0.639,0.0018,0.62,0.003942660462637725,0.8785895547301614,0.00393497577764383,0.03672315031532703
0.6400000000000001,-0.0018999999999999334,0.62,0.003941035235341877,0.8787044812045867,0.0039255511053301936,0.036742214335006566
0.641,-0.0016,-0.38,0.003898699830184195,0.8788193926496495,0.003680048631986607,0.03676127586161337
0.6420000000000001,0.004599999999997979,-0.38,0.003931653344122264,0.8788193926496495,0.003871145638074673,0.03676127586161337
0.643,-0.0045,0.62,0.003928411538333089,0.8787044812045859,0.003852346447742662,0.03674221433500644
0.6440000000000001,0.004099999999999267,1.62,0.0039580937402669105,0.8785895547301601,0.004024473157334688,0.03672315031532681
0.645,0.0008,-0.38,0.0039713579215682904,0.8670165200691753,0.004101391975147765,0.034803413704311836
0.6460000000000001,0.0033000000000001552,0.62,0.003989912144166562,0.8670165200691746,0.004208987674819879,0.034803413704311725
0.647,0.004,-0.38,0.003957733551791739,0.8555230012576744,0.004022384428971391,0.0328968671935499
0.6480000000000001,-0.0035999999999985566,-0.38,0.0037451525342034548,0.8556410259501446,0.002789629825361545,0.0329164451460728
0.649,0.0029,0.62,0.003750313094701533,0.8555230012576724,0.002819555849723391,0.03289686719354957
0.6500000000000001,0.003499999999999112,0.62,0.003713198460813746,0.8672494250727472,0.0026043285622377524,0.03484204801893571
0.651,-0.0005,0.62,0.003732078299857091,0.8672494250727465,0.00271381250751255,0.0348420480189356
0.6520000000000001,-0.002699999999998557,-0.38,0.0037900952459742664,0.867132980390512,0.0030502520364259437,0.03482273215873195
0.653,0.0038,0.62,0.0038133193437041224,0.8784746132204658,0.0031849282822919473,0.036704083801594733
0.6540000000000001,0.004499999999999511,0.62,0.003812623508602414,0.8672494250727419,0.0031808931434318738,0.03484204801893484
0.655,0.0023,-0.38,0.003841884394774378,0.8785895547301499,0.0033505766483064893,0.036723150315325116
0.6560000000000001,-0.0028999999999996667,-0.38,0.003826031211972068,0.8784746132204645,0.0032586442438842563,0.03670408380159452
0.657,-0.0014,-0.38,0.003880792765332099,0.8783596566696165,0.003576205791812066,0.03668501479283375
0.6580000000000001,1.5099033134900438e-15,-0.38,0.003993642896058085,0.8894446397885647,0.004230622257349293,0.03852379334567678
0.659,0.0068,2.62,0.003987622398306184,0.8894446397885647,0.00419570946784495,0.03852379334567678
0.6600000000000001,0.00749999999999758,-1.38,0.004012860364913012,0.9007295525609716,0.0043420641135855954,0.04039573625744688
0.661,-0.0034,0.62,0.003995313896469862,0.8893311012443742,0.0042403123673770944,0.03850495955605904
0.6620000000000001,0.0010000000000007993,-0.38,0.00402363997671499,0.9002810052557894,0.004404574944631441,0.0403213311676191
0.663,0.0046,-2.38,0.00397397558391633,0.9002810052557894,0.00411657176564294,0.0403213311676191
0.6640000000000001,0.003499999999999267,0.62,0.0039715333540730775,0.8888768020418902,0.004102409306000502,0.03842960034070098
0.665,0.0002,0.62,0.003957544853276878,0.8885359252072944,0.004021290168695814,0.03837305564361936
0.6660000000000001,-0.002400000000000555,-0.38,0.003954796641378229,0.8770941402015547,0.004005353323025442,0.036475090743805304
0.667,-0.0049,-0.38,0.003954761139540198,0.8881949175489284,0.004005147448320514,0.038316489245472415
0.6679999999999999,0.0026,0.62,0.003934875612866778,0.876748682321034,0.0038898315333344338,0.03641778614218382
0.669,-0.0039,0.62,0.003923219355061588,0.876748682321034,0.0038222370433219676,0.03641778614218382
0.6699999999999999,-0.0014,0.62,0.004010972929001643,0.876748682321034,0.0043311188968623154,0.03641778614218382
0.671,-0.0006,-0.38,0.004032563339184463,0.8768638500700937,0.00445632140952619,0.036436890184533534
0.6719999999999999,-0.009,0.62,0.004065440288210375,0.9102122237937651,0.004646974416667373,0.04196872309012115
0.673,-0.0014,0.62,0.004076102736100797,0.910212223793765,0.004708805815687795,0.04196872309012113
0.6739999999999999,0.0011,0.62,0.003971145741250478,0.8993832395368215,0.004100161544197034,0.040172409664374416
0.675,0.0054,-0.38,0.0039480209021917085,0.8992709558034604,0.003966060898095854,0.04015378402295285
0.6759999999999999,-0.0054,0.62,0.003961391499641102,0.8992709558034605,0.0040435968217909625,0.04015378402295287
0.677,-0.0011,0.62,0.003966215960350954,0.8992709558034605,0.0040715738077771865,0.04015378402295287
0.6779999999999999,-0.0047,-0.38,0.00391286150035077,0.910212223793765,0.00376217197625651,0.04196872309012113
0.679,-0.0011,1.62,0.00392428280566573,0.910212223793765,0.0038284039797814883,0.04196872309012113
0.6799999999999999,-0.0066,0.62,0.003925712818549609,0.9212427757934764,0.003836696606215507,0.04379847260127903
0.681,0.0043,-2.38,0.003959028410703831,0.9212427757934764,0.0040298932992506665,0.04379847260127903
0.6819999999999999,-0.0033,-0.38,0.003956206001305608,0.9213523818603542,0.0040135261832287186,0.04381665407100919
0.683,0.0032,0.62,0.003949050556512524,0.9212427757934765,0.003972031850340381,0.04379847260127905
0.6839999999999999,-0.0005,0.62,0.004004006623888456,0.9211331566845213,0.004290721382559959,0.04378028896812729
0.685,-0.0016,1.62,0.003986773555806049,0.9211331566845213,0.004190787041037266,0.04378028896812729
0.6859999999999999,-0.0041,-1.38,0.003954709818937549,0.9211331566845213,0.0040048498408017715,0.04378028896812729
0.687,-0.0016,0.62,0.003974120895314251,0.8883086013136572,0.004117414424581997,0.038335347124293394
0.688,-0.0009,0.62,0.003971405605759045,0.8881949175489283,0.004101668495160414,0.0383164892454724
0.6890000000000001,-0.0031,0.62,0.003969387470450999,0.8881949175489283,0.0040899653543065104,0.0383164892454724
0.69,-0.0038,0.619999999999889,0.003981597884469095,0.8880812192314785,0.004160773389113941,0.03829762895264402
0.6910000000000001,0.0052,-0.38,0.003979862328915421,0.8880812192314784,0.004150708924643476,0.038297628952644006
0.692,0.0041,-0.38,0.0039937782894079775,0.8994955092538406,0.004231407401654612,0.04019103298076319
0.6930000000000001,0.0052,-0.379999999999889,0.003990505545798612,0.8994955092538406,0.00421242880329879,0.04019103298076319
0.694,0.0041,0.62,0.003977933047159812,0.9106558794494792,0.00413952104440436,0.0420423167524498
0.6950000000000001,-0.005,0.619999999999889,0.0039713342995431646,0.8993832395368215,0.0041012549913260156,0.040172409664374416
0.696,0.0012,-0.379999999999889,0.004028397003954234,0.8993832395368214,0.004432160884783601,0.040172409664374395
0.6970000000000001,0.0001,0.619999999999889,0.004055189059253647,0.8992709558034604,0.00458752767098691,0.04015378402295285
0.698,0.0066,-0.37999999999977796,0.004040413621092008,0.8992709558034603,0.004501845093959314,0.04015378402295283
0.6990000000000001,0.0022,1.619999999999889,0.004026403940517319,0.8992709558034603,0.004420603135389899,0.04015378402295283
0.7,0.0044,0.619999999999889,0.004016413308261399,0.9104340786458663,0.00436266758664626,0.04200552440407089
0.7010000000000001,-0.0069,-0.380000000000111,0.004031015539624693,0.9104340786458665,0.004447345739664324,0.042005524404070904
0.702,0.0043,-1.3799999999997778,0.004051532627861334,0.9214619748898085,0.004566324072082388,0.04383483337808971
0.7030000000000001,-0.0026,0.619999999999778,0.00406855619698762,0.9324677422752934,0.00466504353183652,0.04566047161396724
0.704,0.005,-1.38,0.00405159769340172,0.932359442905956,0.004566701386319366,0.045642506899408165
0.7050000000000001,-0.0015,-0.38,0.004092260856564301,0.9322511309555093,0.0048025065497093265,0.04562454009789292
0.706,0.0072,-0.38,0.0040961117723545696,0.9431310038292574,0.004824837961151536,0.047429294934525
0.7070000000000001,-0.0095,-1.38,0.004087282190259375,0.9538867907671955,0.004773635327448453,0.04921346637873974
0.708,-0.0026,-0.38,0.004086362258372439,0.9846299255984365,0.0047683006541954336,0.054313141891841575
0.7090000000000001,-0.0048,1.62,0.004094605004139478,0.9846299255984365,0.004816100231532967,0.054313141891841575
0.71,-0.003,-0.38,0.00408983388045506,0.9534632510840815,0.004788432546275433,0.04914320955676436
0.7110000000000001,-0.0048,-1.38,0.004020549051437799,0.9430239290579558,0.004386650708459751,0.04741153335645969
0.712,-0.0001,-0.38,0.004023140609757409,0.9429168421275687,0.004401679122027748,0.04739376976144354
0.7130000000000001,0.0013,-0.38,0.0040255102945249205,0.9430239290579558,0.004415420893703294,0.04741153335645969
0.714,0.0024,-1.38,0.004067007987102895,0.9109884794003378,0.004656065482505488,0.042097488478897445
0.7150000000000001,-0.0012,0.62,0.004053714486458645,0.9108776262440863,0.004578976642197891,0.04207910014180727
0.716,-0.0001,-1.38,0.004058613298846085,0.9107667595954426,0.004607384792612025,0.042060709566597174
0.7170000000000001,-0.0049,0.62,0.00405358748809588,0.9429168421275685,0.004578240180315611,0.04739376976144353
0.718,-0.0023,0.62,0.004035722937222893,0.9430239290579557,0.004474643878162479,0.047411533356459666
0.7190000000000001,0.0085,-0.38,0.004034485397602461,0.9430239290579558,0.004467467401722838,0.04741153335645969
0.72,0.0042,0.62,0.004027483645286408,0.9430239290579558,0.004426864329544174,0.04741153335645969
0.7210000000000001,0.0053,-2.38,0.004039400015776428,0.9430239290579558,0.004495967209690999,0.04741153335645969
0.722,-0.0034,-0.38,0.00428140429221637,0.9430239290579558,0.005899346915269423,0.04741153335645969
0.7230000000000001,0.0042,0.62,0.004202021368488646,0.9430239290579558,0.005439006355309877,0.04741153335645969
0.724,0.0049,-0.38,0.0042096565698717245,0.9429168421275687,0.005483282790530953,0.04739376976144354
0.7250000000000001,-0.0034,0.62,0.0042120616858282575,0.9428097430339526,0.005497230027218727,0.04737600414878929
0.726,0.002,-0.38,0.004177925847244586,0.9429168421275687,0.005299276735624253,0.04739376976144354
0.7270000000000001,-0.0005,-1.38,0.0041621358462922385,0.9532514106738418,0.00520771072194231,0.049108069439833694
0.728,0.0039,0.62,0.004236825759864037,0.9839117710076621,0.005640836575997542,0.0541940143077062
0.7290000000000001,-0.0016,1.62,0.004262002987335714,1.013744767636942,0.005786838996269863,0.05914271596835097
0.73,0.0082,0.62,0.004261755866463759,1.0036306764418477,0.005785405945492298,0.057464989103864536
0.7310000000000001,-0.0008,0.62,0.004246020350891797,1.0035300568926886,0.005694155891834733,0.05744829831895264
0.732,0.0003,-0.38,0.004235606488507424,0.9734877779978943,0.005633766036986269,0.05246488088678265
0.7330000000000001,-0.0073,-0.38,0.004222717699420302,0.9735915023865789,0.005559024113825103,0.05248208670291005
0.734,-0.0008,0.62,0.004238978177668906,0.9734877779978943,0.005653318419334009,0.05246488088678265
0.7350000000000001,0.0036,-0.38,0.00430273523376154,0.9733840425562765,0.0060230447726203045,0.05244767323719314
0.736,-0.004,0.62,0.004313194369468818,0.9628460806832223,0.006083697166889573,0.05069963464525993
0.7370000000000001,0.0025,-0.38,0.004294569330305976,0.9525095982167953,0.0059756908028647535,0.04898501748552649
0.738,-0.0018,0.62,0.004291623952622263,0.9524035778424199,0.00595861059532713,0.048967430810971026
0.7390000000000001,0.0036,-0.38,0.004292360113839693,0.9522975456646751,0.005962879584816793,0.048949842178470974
0.74,0.0015,0.62,0.004281140430454744,0.9625314001438121,0.005897816784286651,0.05064743539329396
0.7410000000000001,0.0037,1.62,0.004315036795838639,0.9624264837662823,0.006094381373856766,0.0506300318498899
0.742,-0.0043,-0.38,0.0042978775375394,0.9726575846857164,0.005994875054323163,0.05232716830384357
0.7430000000000001,-0.0032,1.62,0.0042855867401337035,0.9727613975969287,0.005923600877278568,0.05234438880410027
0.744,0.0034,-0.38,0.004269139970384405,0.9728651994304296,0.00582822626973846,0.05236160746678465
0.7450000000000001,-0.0068,-0.38,0.004300434948909371,0.9728651994304297,0.006009705450166701,0.05236160746678467
0.746,-0.0057,-0.38,0.004338376092102642,0.9727613975969299,0.0062297256545497245,0.05234438880410047
0.7470000000000001,-0.002,-0.38,0.004386707901913206,0.9727613975969305,0.00651000120182442,0.05234438880410057
0.748,0.0013,-0.38,0.004458990997726676,0.9726575846857187,0.0069291699504650224,0.05232716830384396
0.7490000000000001,0.0006,1.62,0.0044153915184838135,0.9727613975969321,0.006676337127659903,0.05234438880410084
0.75,0.0049,0.62,0.004463626837566296,0.9623215559503288,0.0069560531264358785,0.05061262640907852
0.7510000000000001,-0.0041,1.62,0.004443273084428925,0.9932102981055018,0.0068380219721706015,0.055736455285474655
0.752,0.0046,1.62,0.004400992950478456,0.9932102981055011,0.006592840015851118,0.055736455285474544
0.7530000000000001,-0.0008,-0.38,0.004488333896861635,0.9932102981055044,0.00709932904746369,0.05573645528547509
0.754,-0.0073,-0.38,0.004481901247260258,0.9931086227874315,0.007062026194652699,0.055719589369467845
0.7550000000000001,-0.0029,1.62,0.004539999519694173,0.9934136175224216,0.007398937333837288,0.05577018193883958
0.756,0.0011,1.62,0.004573211605105769,0.9935152616276524,0.007591533792595064,0.05578704267725619
0.7570000000000001,-0.0011,-2.38,0.004533064597269985,0.9935152616276524,0.007358721807347276,0.05578704267725619
0.758,0.0026,-0.38,0.004434858597948117,0.9835011615118412,0.0067892264726292515,0.0541259023470106
0.7590000000000001,-0.0065,0.62,0.004437342949948765,0.9836038299555463,0.006803633198123988,0.05414293300283686
0.76,0.0001,-0.38,0.004472854995591606,0.9732802960582018,0.007009567096862779,0.052430463753557
0.7610000000000001,0.0037,-0.38,0.004596252385449797,0.9732802960582018,0.007725146983283966,0.052430463753557
0.762,-0.0017,0.62,0.004577365539575633,0.9630558105858763,0.007615622405486815,0.05073442467089658
0.7630000000000001,0.007399999999998624,0.62,0.0046126677917577895,0.9735915023865892,0.007820339714628848,0.05248208670291176
0.764,0.0012,-0.38,0.004611921871983572,0.9837064876838437,0.007816014135393118,0.054159961881189794
0.7650000000000001,-0.001999999999999845,-0.38,0.004618245822718329,1.0042341820230856,0.00785268664486606,0.05756509869423499
0.766,-0.0013,-2.38,0.00469985965554236,1.0139439694220842,0.008325964218157782,0.05917575958837971
0.7670000000000001,0.0030999999999998446,0.62,0.004700021274202439,1.0042341820230816,0.008326901442701639,0.05756509869423433
0.768,0.0024,0.62,0.004676791894179899,1.0041336229484044,0.008192194564887885,0.05754841794083795
0.7690000000000001,0.0030999999999985566,0.62,0.004698841231215189,1.0041336229484026,0.008320058388502853,0.057548417940837655
0.77,-0.0034,0.62,0.004633169969379287,1.0333829945955744,0.007939231580580294,0.06240030780768101
0.7710000000000001,-0.01419999999999767,-0.38,0.004635024397747821,1.0332852722802341,0.007949985386984602,0.0623840976163209
0.772,-0.0037,0.62,0.0046286165362603915,1.004133622948397,0.007912826280129528,0.05754841794083673
0.7730000000000001,0.0028999999999997556,-0.38,0.0046333592062826525,1.0142426987420847,0.007940328962963929,0.05922531284983514
0.774,0.0018,-0.38,0.004628360037272833,1.0142426987420847,0.007911338845779456,0.05922531284983514
0.7750000000000001,0.0006999999999989563,0.62,0.004603689801234864,1.0143422556315518,0.007768276462350431,0.05924182736060845
0.776,-0.004,-1.38,0.004678538031728313,1.014242698742084,0.008202320394210578,0.05922531284983503
0.7770000000000001,0.00799999999999969,-2.38,0.00470540026136217,1.0142426987420843,0.008358094120482301,0.05922531284983507
0.778,0.0066,-2.38,0.0047085852230782125,1.0044352699699994,0.008376563672760844,0.05759845519104268
0.7790000000000001,-0.0009999999999985567,-0.38,0.00472810249754652,1.0141431320792655,0.00848974409791678,0.05920879671785682
0.78,0.0055,-0.38,0.00473622799354399,1.0041336229483917,0.008536863745339365,0.05754841794083585
0.7810000000000001,-0.0030999999999992895,0.62,0.004697033997351588,1.0040330538022064,0.008309578262429375,0.0575317355167763
0.782,0.0001,0.62,0.004701482363113677,1.003932474581487,0.008335374278621074,0.057515051421551625
0.7830000000000001,0.004900000000000555,-0.38,0.004721041278341118,1.0331875407219808,0.008448796178006937,0.062367885891745065
0.784,0.0074,-0.38,0.004664210934897998,1.0332852722802224,0.00811923774283226,0.06238409761631895
0.7850000000000001,-0.003399999999999045,-0.38,0.004694642363861829,1.0430150591047531,0.00829570921039408,0.06399807601797296
0.786,0.0009,-0.38,0.004766520889881043,1.0430150591047531,0.008712531863969331,0.06399807601797296
0.7870000000000001,-0.00020000000000022205,-0.38,0.00474985168607854,1.0429182393223417,0.008615867364198025,0.06398201553890154
0.788,-0.0012,-0.38,0.004745666126957667,1.0430150591047531,0.008591595360359331,0.06399807601797296
0.7890000000000001,-0.0001000000000014433,-1.38,0.004884514352712942,1.0526549164504815,0.009396774446642466,0.06559713690508359
0.79,-0.0066,-0.38,0.004878748157184879,1.0620171437031003,0.009363336352483464,0.06715014447345158
0.7910000000000001,0.003499999999999778,-1.38,0.004877276081334374,1.0620171437031003,0.009354799803443663,0.06715014447345158
0.792,0.0025,0.62,0.004867343295043071,1.0523670910395928,0.009297199702709404,0.06554939238559933
0.7930000000000001,0.0035999999999977352,0.62,0.004855813873314817,1.0617318563060338,0.009230340733485765,0.06710282096005574
0.794,-0.0066,0.62,0.004857129404981893,1.0521751636904275,0.009237969484806935,0.06551755545002963
0.7949999999999999,-0.0076,-0.38,0.0048625262226231715,1.0521751636904277,0.009269265561322168,0.06551755545002967
0.796,-0.0066,-0.38,0.004814955260344511,1.0522711317407965,0.008993402159159204,0.06553347464367053
0.7969999999999999,0.008,-0.38,0.004788106417503483,1.0616367434706553,0.008837706062727973,0.06708704362959728
0.798,0.0022,0.62,0.004869635798228614,1.0617318563060338,0.009310493899377714,0.06710282096005574
0.7989999999999999,-0.0069,0.62,0.004912404062698433,1.0618269606217081,0.009558506518339222,0.06711859687726447
0.8,0.0011,2.62,0.004946202906605474,1.0521751636904275,0.00975450558211166,0.06551755545002963
0.8009999999999999,-0.0032,-0.38,0.004938156809925665,1.0520791868860917,0.00970784637031724,0.06550163480427948
0.802,-0.0098,-1.38,0.004951755472708523,1.0423371317681929,0.009786704841965792,0.0638856213364027
0.8029999999999999,-0.001,-0.38,0.004947417402055447,1.032600957124612,0.009761548425701377,0.06227058332242968
0.804,0.0088,1.62,0.004953062466029741,1.0326987441953936,0.009794284079528478,0.06228680425543149
0.8049999999999999,-0.0057,0.62,0.0049006405196107385,1.0326987441953936,0.00949028988234492,0.06228680425543149
0.806,-0.0039,-0.38,0.004909211167498673,1.0326987441953936,0.009539990959890015,0.06228680425543149
0.8069999999999999,0.0015,-0.38,0.004953549574524681,1.0326987441953936,0.009797108815464016,0.06228680425543149
0.808,0.003,0.62,0.005007350248050337,1.0034294272538054,0.010109098233515038,0.057431605860355874
0.8089999999999999,0.0074,0.62,0.0050938829540185995,1.0035300568926564,0.010610900289293096,0.057448298318947294
0.81,0.011,-0.38,0.0050889309245027315,1.0034294272538054,0.010582183533431475,0.057431605860355874
0.8109999999999999,0.0024,-0.38,0.00511147896547645,1.0034294272538054,0.010712939334810545,0.057431605860355874
0.812,0.0057,1.62,0.005106352859923126,1.0034294272538054,0.010683213114232901,0.057431605860355874
0.813,0.001,-1.3799999999995558,0.00514477858305072,1.0034294272538054,0.010906043391460762,0.057431605860355874
0.8140000000000001,-0.0034,2.619999999999556,0.005112946257693747,1.0034294272538051,0.01072144814362252,0.05743160586035583
0.815,-0.0088,-1.3799999999997778,0.005144382114936876,1.0034294272538054,0.010903744277936564,0.057431605860355874
0.8160000000000001,-0.0004,0.619999999999889,0.005140826876851209,1.0034294272538054,0.010883127497723744,0.057431605860355874
0.817,-0.0015,-0.379999999999889,0.005141975205711136,0.9833984823493364,0.010889786642103577,0.05410886991314833
0.8180000000000001,0.0051,0.6199999999996669,0.005140255656317967,0.9832957924647596,0.01087981499715328,0.05409183570070728
0.819,-0.0033,-2.379999999999778,0.005146557861948706,0.9832957924647597,0.010916361407045987,0.0540918357007073
0.8200000000000001,0.0044,-0.379999999999889,0.005144305922208277,0.9832957924647597,0.010903302437277372,0.0540918357007073
0.821,-0.0047,0.620000000000111,0.005156340982468664,1.013545526700728,0.010973093597885366,0.05910966585393696
0.8220000000000001,0.004,1.619999999999889,0.004956909975645184,1.0135455267007283,0.009816595738606415,0.059109665853936996
0.823,-0.0036,0.62,0.004943307370617368,1.013545526700728,0.009737714405929741,0.05910966585393696
0.8240000000000001,0.0011,0.619999999999889,0.004946489236498825,1.0136451520641405,0.009756166005503096,0.05912619172317792
0.825,-0.009,-0.38,0.004957028766419846,1.0137447676369102,0.009817284604790194,0.059142715968345694
0.8260000000000001,-0.0054,-0.38,0.0049734411260841495,1.0137447676369102,0.009912459668687276,0.059142715968345694
0.827,-0.0018,-0.380000000000111,0.0049585169456090525,1.004033053802199,0.00982591453688528,0.05753173551677509
0.8280000000000001,0.0058,-1.3799999999997778,0.0049522233284428115,0.9740062894825706,0.009789417931388418,0.05255089164450729
0.829,-0.0032,0.619999999999889,0.004934481925752392,0.9740062894825705,0.00968653576397181,0.052550891644507276
0.8300000000000001,0.0055,-0.38,0.004934681094300997,0.9844247920322617,0.009687690739839236,0.05427911430714407
0.831,0.0022,-0.38000000000022205,0.004926411340135306,0.9944295910519173,0.009639734541143159,0.055938711770256236
0.8320000000000001,-0.0043,-2.379999999999667,0.0049203101434331055,0.9943280404130244,0.00960435377945759,0.05592186653604883
0.833,-0.0,0.62,0.004936558948812543,0.9943280404130245,0.009698580394147416,0.055921866536048845
0.8340000000000001,0.0054,1.62,0.004913223362029364,1.0042341820230611,0.009563257624686338,0.05756509869423094
0.835,0.009,-0.38,0.0048953393129133,1.0042341820230611,0.009459548252470838,0.05756509869423094
0.8360000000000001,-0.0004,-0.38,0.004926521441671516,1.0043347310292545,0.009640373018544233,0.05758177777746581
0.837,-0.0015,0.62,0.004926359943558077,1.0044352699699883,0.009639436493048803,0.057598455191040836
0.8380000000000001,-0.0117,1.62,0.00495696090620726,1.0142426987420738,0.009816891084284856,0.05922531284983334
0.839,-0.0027,-1.38,0.004964592289668075,1.024252005693795,0.009861145379423534,0.06088565808934812
0.8400000000000001,0.0009,0.62,0.0049699212644142895,1.0146408676886214,0.00989204803585751,0.05929136117047248
0.841,0.002,-0.38,0.004927566526753044,1.0147403855134556,0.009646433453572884,0.05930786920119901
0.8420000000000001,-0.0027,-1.38,0.004959300166991602,1.0049378137974883,0.009830456427670907,0.057681817231555896
0.843,0.0034,0.62,0.004970759435748061,1.0340667922217792,0.009896908580707858,0.06251373625371998
0.8440000000000001,0.0041,-0.38,0.004997637726104592,1.0339691345334066,0.010052775442905072,0.062497536782690294
0.845,0.0005,0.62,0.004961711535516726,1.03387146762046,0.009844439922924017,0.06248133578148699
0.8460000000000001,0.0026,-1.38,0.004914907182788806,1.03387146762046,0.009573022079746366,0.06248133578148699
0.847,0.0091,0.62,0.004889265298070974,1.03387146762046,0.009424325118043224,0.06248133578148699
0.8480000000000001,0.0066,0.62,0.004826408423900445,1.043402248393018,0.009059818908216352,0.06406230303135788
0.849,-0.0058,-0.38,0.004827866928379065,1.0434022483930179,0.00906827675704407,0.06406230303135783
0.8500000000000001,-0.004,-0.38,0.00482366871602679,1.0527508407669157,0.009043931377278214,0.06561304884413327
0.851,-0.0055,-0.38,0.004822684134535419,1.033480707670622,0.009038221801795483,0.0624165164662601
0.8520000000000001,-0.0041,0.62,0.004848108396781837,1.0335784115080229,0.009185656773568723,0.06243272359249703
0.853,0.0025,0.62,0.004749484681205377,1.0239561964964745,0.00861373910762991,0.06083658921825198
0.8540000000000001,0.0013,-0.38,0.004748596249912494,1.0239561964964745,0.00860858710591914,0.06083658921825198
0.855,-0.0041,1.62,0.004669488264662546,1.0236603018185728,0.008149840910677724,0.06078750616762505
0.8560000000000001,-0.0067,1.62,0.004728832249833207,1.023561651250775,0.008493975922098983,0.060771141997617226
0.857,-0.0074,-0.38,0.004767330929263676,1.023561651250775,0.008717229271994632,0.060771141997617226
0.8580000000000001,-0.0097,0.62,0.004778536367549032,1.0236603018185728,0.008782209465374327,0.06078750616762505
0.859,-0.0061,-0.38,0.004785848496221547,1.0236603018185728,0.008824612406076626,0.06078750616762505
0.8600000000000001,0.0048,-0.38,0.004729628919905641,1.0236603018185728,0.00849859580166534,0.06078750616762505
0.861,-0.0029,-0.38,0.004623991167713007,1.0236603018185728,0.007886003827048491,0.06078750616762505
0.8620000000000001,-0.0065,0.62,0.004618310587153686,1.0236603018185728,0.007853062212998824,0.06078750616762505
0.863,0.0047,0.62,0.004583140473805182,1.0137447676369102,0.007649111175264031,0.059142715968345694
0.8640000000000001,-0.0058,-0.38,0.0046225243008305925,1.0040330538022058,0.007877497484748065,0.05753173551677619
0.865,0.0006,-0.38,0.004616239478684655,0.9733840425562617,0.007841051881461513,0.05244767323719068
0.8660000000000001,0.0017,-1.38,0.00453156889328903,0.9632654948244195,0.0073500482390810315,0.05076920712176412
0.867,0.0028,-0.38,0.004580700792891924,0.9631606584112832,0.007634963496834047,0.05075181684286487
0.8680000000000001,0.0035,0.62,0.004578510212590788,0.9632654948244206,0.007622260349669549,0.05076920712176431
0.869,0.0027,0.62,0.004589484287449566,0.9631606584112855,0.007685898869495996,0.05075181684286526
0.8700000000000001,0.0049,2.62,0.004583372343323625,0.931817757254876,0.007650455783637537,0.045552652007713655
0.871,-0.0002,-0.38,0.004581497008073261,0.9319261195736424,0.007639580738492746,0.045570627164332814
0.8720000000000001,0.0005,0.62,0.004582534367978543,0.9423812249442519,0.0076455963753230905,0.04730492150803182
0.873,0.0034,0.62,0.004580067022999134,0.9316009948037591,0.007631288273327123,0.04551669542195268
0.8740000000000001,0.0037,0.62,0.004566148877865922,0.9423812249442537,0.007550577127612755,0.047304921508032116
0.875,0.0041,0.62,0.004564927903548781,0.9423812249442542,0.0075434967131551445,0.047304921508032206
0.8760000000000001,0.0011,0.62,0.004498810569322013,0.9423812249442542,0.007160083137140016,0.047304921508032206
0.877,0.0076,0.62,0.004484093560457833,0.9424883727322644,0.007074739390861492,0.047322695198119366
0.8780000000000001,0.0051,-2.38,0.004484067874710438,0.9424883727322637,0.007074590439540687,0.047322695198119255
0.879,0.0011,1.62,0.004499610463038703,0.9320344692937456,0.007164721710578206,0.04558860023108397
0.8800000000000001,0.0047,-1.38,0.004505955349449098,0.9320344692937462,0.0072015156257665535,0.04558860023108408
0.881,-0.0019,-0.38,0.004492956786550926,0.9320344692937461,0.007126137125678328,0.04558860023108407
0.8820000000000001,-0.004,0.62,0.0044990005797630045,0.9320344692937449,0.007161185005258457,0.04558860023108386
0.883,0.001,-1.38,0.0044990005797630045,0.9104340786458773,0.007161185005258457,0.04200552440407271
0.8840000000000001,0.0061,-0.38,0.004499175549123064,0.9104340786458773,0.007162199650340841,0.04200552440407271
0.885,0.0065,0.62,0.004471639579152821,0.9104340786458774,0.007002518912470712,0.04200552440407273
0.8860000000000001,-0.0008,0.62,0.004393349389040252,0.9212427757934873,0.006548515100777234,0.043798472601280856
0.887,-0.0055,-1.38,0.004428671915028815,0.93225113095552,0.006753349977463467,0.045624540097894704
0.8880000000000001,-0.002999999999999845,1.62,0.004427256818546188,0.942702631772973,0.006745143851049635,0.04735823651781107
0.889,-0.0023,0.62,0.004280275963706791,0.9632654948244328,0.005892803752665592,0.05076920712176634
0.8900000000000001,0.0012999999999982457,0.62,0.004272157294899232,0.9530395231759882,0.005845723696030032,0.04907292151200304
0.891,-0.0066,-0.38,0.004271261259089933,0.9529335617593891,0.005840527595825769,0.04905534461737177
0.8920000000000001,0.004199999999997668,-2.38,0.004268581017290284,0.9530395231759864,0.005824984907890652,0.04907292151200275
0.893,-0.0063,-0.38,0.0042600584900073304,0.9530395231759847,0.005775562881118724,0.049072921512002474
0.8940000000000001,0.0027999999999986235,-0.38,0.004248198757051664,0.9529335617593863,0.005706788441309632,0.049055344617371294
0.895,-0.0034,-0.38,0.00427512083411942,0.9529335617593868,0.005862909222085514,0.04905534461737139
0.8960000000000001,0.004299999999999422,-0.38,0.004299476223773244,0.963160658411289,0.0060041458153575105,0.05075181684286583
0.897,0.0017,-1.38,0.004334717043081644,0.9529335617593845,0.006208506876049919,0.049055344617371
0.8980000000000001,0.0024999999999979795,0.62,0.004267544281095741,0.9841170115100981,0.005818972887950907,0.054228059631005694
0.899,-0.0066,-1.38,0.004260101663659478,0.9840143966098709,0.005775813244575645,0.05421103785697905
0.9000000000000001,-0.000500000000001199,1.62,0.004220965561088791,0.9840143966098698,0.0055488634860379376,0.05421103785697886
0.901,-0.0059,0.62,0.004381174244469068,0.9943280404130417,0.006477911593041606,0.055921866536051704
0.9020000000000001,-0.0011999999999998223,-0.38,0.004400951867776185,0.994429591051934,0.0065926017777858045,0.055938711770259
0.903,-0.0004,-0.38,0.004402799092620647,0.994328040413041,0.006603313811046098,0.05592186653605159
0.9040000000000001,0.0017000000000017097,-1.38,0.0044392675678138005,0.99422647940173,0.006814794032521288,0.05590501958126603
0.905,0.0094,-0.38,0.0044468184310942314,0.9943280404130405,0.00685858139216319,0.055921866536051495
0.9060000000000001,0.0071999999999992,-0.38,0.004428405650189543,0.9841170115100936,0.00675180591106414,0.05422805963100494
0.907,0.0036,0.62,0.004455432524700016,0.973695215725845,0.006908534410870735,0.05249929068615838
0.9080000000000001,0.003999999999998867,0.62,0.004394218279409179,0.9737989180192578,0.006553553784919775,0.05251649283711898
0.909,-0.0011,0.62,0.0042949054442904915,0.9736952157258433,0.005977639923564475,0.05249929068615808
0.9100000000000001,-0.004699999999999112,-0.38,0.004278295842375585,0.9841170115100862,0.005881321054377461,0.054228059631003724
0.911,-0.0007,-0.38,0.004257519851145102,0.9941249080148152,0.005760841346807621,0.055888170905373846
0.9120000000000001,-0.00030000000000128784,0.62,0.004377797557637866,0.9941249080148152,0.006458330229271039,0.055888170905373846
0.913,-0.0061,0.62,0.004360305356897624,0.994023326249131,0.00635689318077801,0.055871320507849945
0.9140000000000001,-0.0023999999999995115,-0.38,0.004406389570174472,0.9939217341014875,0.006624134944484305,0.05585446838816518
0.915,-0.0002,0.62,0.00439426794583526,0.9939217341014875,0.006553841799889743,0.05585446838816518
0.9160000000000001,-0.006699999999998624,-0.38,0.004393873322411163,1.0041336229483926,0.006551553383697804,0.057548417940836
0.917,-0.0005,0.62,0.004413563595240171,1.0044352699699965,0.006665737024136032,0.0575984551910422
0.9180000000000001,-0.005999999999999179,-0.38,0.004417771521582778,1.0044352699699965,0.006690138735207649,0.0575984551910422
0.919,-0.0023,0.62,0.00443572635588472,1.0044352699699965,0.006794258589811221,0.0575984551910422
0.9200000000000002,0.004199999999998001,0.62,0.004454517654297119,1.004334731029263,0.006903229089098959,0.05758177777746721
0.921,-0.0048,-1.38,0.004467947755572114,0.9737989180192516,0.006981110074718108,0.052516492837117956
0.9220000000000002,-0.00369999999999929,0.62,0.004467947755572114,0.973902609270323,0.006981110074718108,0.05253369315637345
0.923,-0.0005,1.62,0.004480614544525324,0.9737989180192516,0.0070545646219405045,0.052516492837117956
0.9239999999999999,0.0003,0.62,0.004486522773889716,0.9841170115100863,0.0070888263685007875,0.054228059631003744
0.925,0.0046,-0.38,0.004588440085853459,0.9841170115100863,0.007679843557788009,0.054228059631003744
0.9259999999999999,0.004,0.62,0.004641396671836843,0.984014396609859,0.007986938122971214,0.054211037856977076
0.927,0.0018,-0.38,0.004649809180264134,0.9839117710076379,0.008035722151805503,0.05419401430770219
0.9279999999999999,0.0069,0.62,0.0045878608222750476,0.9838091347000739,0.007676484415701423,0.05417698898262351
0.929,0.004,0.62,0.004583589479812443,0.9530395231759619,0.007651714955360576,0.04907292151199868
0.9299999999999999,-0.0043,-0.38,0.004597216511979786,0.9423812249442295,0.007730737940707116,0.0473049215080281
0.931,-0.0032,-0.38,0.0045805640225411405,0.9318177572548534,0.007634170367318164,0.045552652007709894
0.9319999999999999,-0.0043,-1.38,0.004585767070624716,0.931926119573619,0.007664342776645199,0.04557062716432895
0.933,0.0004,0.62,0.004610184421242996,0.9318177572548535,0.007805938680758037,0.045552652007709915
0.9339999999999999,-0.0021,1.62,0.004718402072135049,0.9212427757934505,0.008433491454954437,0.04379847260127474
0.935,0.0034,-1.38,0.004680147307744357,0.9213523818603282,0.008211652565256532,0.04381665407100488
0.9359999999999999,0.0056,1.62,0.004635358664435967,0.9212427757934505,0.00795192379523629,0.04379847260127474
0.937,-0.001,-1.38,0.004635975533166926,0.9212427757934505,0.007955501009121799,0.04379847260127474
0.938,0.003,-2.379999999999667,0.004617227183123987,0.9104340786458403,0.007846779566879555,0.04200552440406656
0.9390000000000001,-0.0006,0.619999999999889,0.004624808195783004,0.9322511309554836,0.007890741762382482,0.04562454009788867
0.94,0.0002,-0.379999999999889,0.004619245530613931,0.9321428064195421,0.007858483938173573,0.04560657120868977
0.9410000000000001,-0.0013,0.619999999999778,0.004617950591379076,0.9320344692937174,0.007850974602103619,0.045588600231079295
0.942,0.0002,-1.3799999999998889,0.00462233564992625,0.9320344692937174,0.007876403500565272,0.045588600231079295
0.9430000000000001,-0.0012,-0.38,0.004609002362485395,0.8996077649597388,0.007799083937132752,0.04020965397298528
0.944,-0.0063,-0.380000000000111,0.004570510396541557,0.8996077649597388,0.0075758695186602595,0.04020965397298528
0.9450000000000001,0.0046,-1.3799999999997778,0.004564083135414836,0.9105449858012389,0.007538597913544914,0.042023921698542833
0.946,0.0061,0.620000000000222,0.004552086170125898,0.910655879449453,0.007469027665189398,0.042042316752445456
0.9470000000000001,0.005,2.619999999999667,0.004540383737202765,0.910655879449453,0.00740116540625823,0.042042316752445456
0.948,0.0061,-0.38,0.0045477681228237405,0.910655879449453,0.007443987364081002,0.042042316752445456
0.9490000000000001,0.0007,-0.37999999999977796,0.004570622233397941,0.9105449858012389,0.007576518059160836,0.042023921698542833
0.95,-0.0124,1.619999999999889,0.004542161823531328,0.8997200066598137,0.007411476506148608,0.04022827264191942
0.9510000000000001,-0.0069,0.619999999999889,0.004710668975582147,0.8883086013136304,0.008388647326894927,0.03833534712428895
0.952,0.0043,-0.38,0.004692397406365727,0.8881949175489016,0.008282690730571066,0.03831648924546796
0.9530000000000001,-0.0062,-0.379999999999889,0.004742749068231085,0.8881949175489015,0.008574679374092111,0.03831648924546794
0.954,0.0029,0.62,0.004744087514441816,0.8881949175489015,0.008582441006559024,0.03831648924546794
0.9550000000000001,-0.0007,0.619999999999889,0.004741573569393267,0.8769790026949209,0.008567862671357793,0.036455991718073434
0.956,-0.0083,-0.379999999999889,0.004664682780732537,0.8769790026949209,0.008121973970795232,0.036455991718073434
0.9570000000000001,0.0008,0.619999999999889,0.004617926005235873,0.8769790026949209,0.007850832027373465,0.036455991718073434
0.958,-0.0028,-0.37999999999977796,0.00462785821775203,0.8769790026949185,0.00790842880079299,0.03645599171807303
0.9590000000000001,0.0048,1.619999999999667,0.004611886600768512,0.888081219231449,0.007815809598067852,0.03829762895263912
0.96,0.0023,-1.38,0.004615828030188186,0.8880812192314491,0.007838665896889963,0.03829762895263914
0.9610000000000001,0.0106,-0.38,0.004659212612182319,0.8881949175488991,0.008090252533296692,0.03831648924546756
0.962,0.0052,-0.38,0.004679444295871921,0.888194917548899,0.00820757580839475,0.03831648924546754
0.9630000000000001,-0.0079,-0.38,0.004688973414684195,0.888081219231449,0.008262835046578128,0.03829762895263912
0.964,0.0048,-0.38,0.004650892191646263,0.888081219231449,0.008042002520966533,0.03829762895263912
0.9650000000000001,0.0001,1.62,0.00467373269908361,0.8881949175488989,0.008174454331629643,0.03831648924546752
0.966,0.0045,1.62,0.004717348202447982,0.8880812192314479,0.00842738007811056,0.03829762895263894
0.9670000000000001,0.0034,-0.38,0.004699498322273964,0.8881949175488979,0.008323868851153216,0.03831648924546735
0.968,-0.0053,0.62,0.004707582357391287,0.8881949175488991,0.008370748067461813,0.03831648924546756
0.9690000000000001,0.0049,-0.38,0.00468227206424567,0.8996077649597365,0.008223974001047268,0.04020965397298489
0.97,0.006,0.62,0.0047087973606256585,0.9107667595953993,0.008377793855686768,0.04206070956658999
0.9710000000000001,-0.0002,0.62,0.004725823997512066,0.9428097430339107,0.00847653110534263,0.047376004148782354
0.972,-0.0034,-0.38,0.004724754446215853,0.9428097430339072,0.008470328791047772,0.047376004148781764
0.9730000000000001,-0.0041,1.62,0.004714062939765645,0.9427026317729169,0.008408328881810607,0.04735823651780177
0.974,-0.0103,0.62,0.004714478613402832,0.9318177572548318,0.008410739367919175,0.04555265200770632
0.9750000000000001,-0.0081,-0.38,0.004718639185909279,0.931817757254832,0.008434866474700212,0.04555265200770634
0.976,-0.003,-0.38,0.004696458039238621,0.9427026317729158,0.008306238288694645,0.047358236517801584
0.9770000000000001,0.0007,-0.38,0.0046809504674260585,0.9425955083404034,0.008216310077984075,0.0473404668678078
0.978,0.0047,-0.38,0.004677764472679185,0.9425955083404033,0.008197834535172949,0.04734046686780778
0.9790000000000001,-0.0037,0.62,0.004644745377954182,0.9425955083404033,0.00800635722693976,0.04734046686780778
0.98,-0.0026,-0.38,0.004633753245925284,0.9741099586595242,0.007942613993814608,0.05256808830210502
0.9810000000000001,0.0029,0.62,0.00461382847484742,0.9845273641579582,0.007827070501028812,0.054296128985725556
0.982,-0.0062,-0.38,0.004603788920385819,0.9846299255983921,0.007768851253039795,0.05431314189183421
0.9830000000000001,0.0101,0.62,0.004583733900943312,0.9746281391382314,0.0076525524516523735,0.05265404415251313
0.984,-0.0011,0.62,0.004625261651937316,0.9849375458414256,0.007893371348824892,0.05436416998084802
0.9850000000000001,0.0007,-0.38,0.004625727158793758,0.9746281391382315,0.00789607081713491,0.05265404415251315
0.986,-0.0011,0.62,0.004624301519693833,0.9645226429774517,0.00788780355421813,0.05097774303352303
0.9870000000000001,0.0036,-0.38,0.004606818134383758,0.9645226429774517,0.00778641762629195,0.05097774303352303
0.988,-0.004,2.62,0.004629612143174902,0.9542043221576221,0.00791859979190011,0.04926613853027172
0.9890000000000001,-0.0004,-0.38,0.0046696322601317095,0.9224477262373517,0.008150675938562738,0.04399834994972979
0.99,0.0007,-0.38,0.004672324718413403,0.9224477262373524,0.008166289469721071,0.0439983499497299
0.9910000000000001,-0.0069,-0.38,0.004673346454579934,0.9225571891479362,0.008172214504690115,0.044016507672673934
0.992,-0.0023,0.62,0.004677673602538476,0.9224477262373542,0.008197307580388554,0.04399834994973019
0.9930000000000001,0.0021,-0.38,0.00471473442028508,0.9116533152731615,0.008412222788759397,0.04220777154662889
0.994,0.0014,-1.38,0.0047132399760395505,0.9116533152731614,0.00840355652568278,0.04220777154662888
0.9950000000000001,-0.0008,0.62,0.004699793685451999,0.9116533152731607,0.008325581658447063,0.04220777154662877
0.996,0.0028,-0.38,0.004679056725835127,0.9116533152731644,0.00820532829470562,0.04220777154662937
0.9970000000000001,0.0031,-1.38,0.004654677111696238,0.9226666390721125,0.008063951223954388,0.0440346632414309
0.998,-0.0052,-0.38,0.004649575357788057,0.8893311012443499,0.008034366218255646,0.038504959556055006
0.9990000000000001,-0.0042,0.62,0.004625092915937504,0.8893311012443499,0.007892392850918901,0.038504959556055006
1.0,0.0125,-0.38,0.004624841755746714,0.889331101244351,0.007890936376183046,0.038504959556055186
1.0010000000000001,-0.0042,-0.38,0.004459892358564441,0.8889903986074644,0.006934396930441291,0.038448443754913984
1.002,0.007,-0.38,0.004412692138317605,0.8888768020418696,0.006660683456581747,0.03842960034069756
1.0030000000000001,0.0012,-0.38,0.0044147497092080455,0.888990398607465,0.0066726152838738565,0.038448443754914075
1.004,-0.0007,-0.38,0.004447262412918496,0.889103980659371,0.00686115603708676,0.03846728476159777
1.0050000000000001,0.004,-0.38,0.004440712883284525,0.9000566477773397,0.006823175398460812,0.040284114717660066
1.006,0.0029,-0.38,0.004456359833917997,0.9000566477773404,0.006913911865172184,0.04028411471766018
1.0070000000000001,-0.0047,0.6199999999995559,0.004379975874387833,0.9001688335063944,0.006470962260259073,0.040302724102113545
1.008,-0.0011,-1.38,0.004396554366761718,0.9001688335063951,0.006567100725615366,0.04030272410211365
1.0090000000000001,-0.0022,0.62,0.004401521007619458,0.9114317571998591,0.006595902212461733,0.042171019462387896
1.01,0.0079,0.62,0.004383042400640719,0.9002810052557783,0.006488745006800706,0.040321331167617255
1.0110000000000001,-0.0044,-0.38,0.004454960915945167,0.8892175482031566,0.006905799557729857,0.038486123361672404
1.012,-0.003,-0.38,0.004327656436907201,0.889331101244363,0.006167562511098774,0.03850495955605718
1.0130000000000001,0.0012999999999985567,0.62,0.0043000962538521205,0.9003931630307024,0.006007741361859184,0.040339935915035645
1.014,-0.0052,0.62,0.004230689952059524,0.9334418711717768,0.005605255104972093,0.04582206025179715
1.0150000000000001,-0.006399999999999756,-0.37999999999977796,0.00420399683635365,0.9334418711717768,0.005450462068206988,0.04582206025179715
1.016,-0.0053,0.62,0.004265249876226501,0.9224477262373793,0.005805667663443143,0.04399834994973435
1.0170000000000001,-0.0028000000000001552,0.620000000000222,0.004268516991941043,0.9113209579639625,0.005824613625708827,0.04215264006961374
1.018,-0.0035,1.62,0.00430131976811792,0.9114317571998646,0.006014836505446592,0.0421710194623888
1.0190000000000001,0.00549999999999749,1.619999999999112,0.004296498467139944,0.9221192595409101,0.005986877842705128,0.04394386384810392
1.02,-0.0058,-2.38,0.0042715120267830834,0.9331172745332889,0.005841981794472831,0.04576821611592685
1.0210000000000001,0.004699999999998534,-1.3799999999997778,0.004229400018093453,0.9330090505586506,0.0055977747943918394,0.04575026390785104
1.022,-0.0019,-0.38,0.004229925167726564,0.9329008140291637,0.005600820130401357,0.04573230961717517
1.0230000000000001,-0.0008000000000002665,-0.37999999999977796,0.004218868733117216,0.9330090505586506,0.005536704007434146,0.04575026390785104
1.024,-0.002,0.62,0.0042251262442198805,0.9326843032881594,0.005572991234329867,0.04569639478512295
1.0250000000000001,0.0005000000000001555,1.62,0.0040983510734986075,0.9326843032881595,0.0048378236398612315,0.04569639478512296
1.026,0.0012,-0.38,0.004039372720059045,0.9432380664456037,0.004495808922174809,0.04744705449632463
1.0270000000000001,0.0005000000000007994,-0.38,0.004028507416345513,0.9432380664456037,0.004432801164829248,0.04744705449632463
1.028,0.0041,0.62,0.004027917972515435,0.9539926463071914,0.004429382987593378,0.04923102571054524
1.0290000000000001,-0.0023999999999995336,2.62,0.004008901383158675,0.9539926463071913,0.004319106028999143,0.04923102571054522
1.03,-0.0003,1.62,0.003993284854999063,0.9539926463071914,0.004228545981824797,0.04923102571054524
1.0310000000000001,-0.0009999999999998445,0.62,0.00398726060704863,0.9539926463071914,0.00419361144496711,0.04923102571054524
1.032,-0.0003,0.62,0.004010536121013738,0.953886790767185,0.004328585852924095,0.04921346637873798
1.0330000000000001,0.006199999999998135,1.62,0.003963287230168633,0.9645226429774867,0.004054590138887334,0.05097774303352883
1.034,-0.0022,0.62,0.0038450605066619615,0.964417943221816,0.003368994880542924,0.05096037542338911
1.0350000000000001,0.0032000000000001554,0.62,0.0039299103321714275,0.9643132320984295,0.0038610379340523783,0.05094300592757111
1.036,0.0039,1.62,0.003929404638592055,0.964417943221816,0.0038581054234497875,0.05096037542338911
1.0370000000000001,0.004700000000000467,-0.38,0.003931963281987936,0.964417943221816,0.0038729429637958243,0.05096037542338911
1.038,0.0068,-0.38,0.003926929289307725,0.964417943221816,0.0038437509045919,0.05096037542338911
1.0390000000000001,0.0016999999999998444,0.62,0.003927894518298849,0.9325760290678938,0.003849348255173077,0.045678434242295424
1.04,0.001,0.62,0.0040631262863597695,0.9434521552300349,0.004633555549515179,0.04748256757388119
1.0410000000000001,0.0023999999999981566,-0.38,0.00408741091063292,0.9542043221576575,0.0047743817752492305,0.0492661385302776
1.042,-0.0059,-0.38,0.00403775422804686,0.9542043221576575,0.0044864233076850404,0.0492661385302776
1.0430000000000001,0.00019999999999880096,-0.38,0.0042116542345820825,0.9542043221576575,0.005494867222650534,0.0492661385302776
1.044,-0.0052,-0.38,0.004213835046224776,0.9645226429774867,0.0055075137214895915,0.05097774303352883
1.0450000000000002,0.001300000000000555,-1.38,0.004212095747704931,0.9543101424759317,0.005497427551606149,0.04928369201949898
1.046,0.0038,1.62,0.00421654657568804,0.9542043221576576,0.005523237846186069,0.04926613853027762
1.0470000000000002,0.0044999999999981565,0.62,0.004257126762535627,0.9543101424759317,0.005758561830986054,0.04928369201949898
1.048,-0.0038,-0.38,0.004253220732648542,0.9543101424759317,0.005735910813600922,0.04928369201949898
1.0490000000000002,-0.0004999999999994449,-0.38,0.0042236055035078345,0.9544159510614391,0.005564172478380065,0.04930124356248735
1.05,0.002,-1.38,0.004248079328632535,0.9649413283970119,0.0057060958774337355,0.051047194629579976
1.0510000000000002,-0.002400000000000466,-0.38,0.004062866210150564,0.9650459713695861,0.004632047370902502,0.0510645528205317
1.052,-0.0045,0.62,0.0040683428856457616,0.9650459713695861,0.004663806542091804,0.0510645528205317
1.053,-0.0082,0.62,0.0040155350469904755,0.9650459713695861,0.00435757456076283,0.0510645528205317
1.054,-0.0016,-1.38,0.004122426467258807,0.9651506029966238,0.0049774365405252366,0.05108190912948422
1.055,0.0038,0.62,0.00421065380634126,0.9652552232818141,0.005489065752070298,0.05109926355704951
1.056,-0.0012,0.62,0.00419284216407784,0.9653598322288447,0.005385776266267721,0.051116616103839274
1.057,0.0039,0.62,0.004186289497156249,0.9653598322288447,0.0053477774345509635,0.051116616103839274
1.058,0.0035,1.62,0.004174511105429908,0.9652552232818165,0.005279474691490964,0.0510992635570499
1.059,-0.0026,0.62,0.004181124994150279,0.9549448181339629,0.0053178285476362525,0.04938897210657502
1.06,0.0083,-0.38,0.004205185534655437,0.9855524982752935,0.005457355314464137,0.05446617837673651
1.061,0.0007,0.62,0.004137359598712891,0.9855524982752936,0.005064033578939956,0.05446617837673653
1.062,0.0018,-1.38,0.004169735965063956,0.9855524982752936,0.005251783713548557,0.05446617837673653
1.063,-0.0018,2.62,0.004203450532440672,0.9955459644077687,0.005447294058798934,0.05612389593893539
1.064,-0.0007,-0.38,0.004219541339071003,0.99544452765612,0.005540604440762358,0.05610706959636002
1.065,-0.0072,-0.38,0.004189047576004926,0.9953430805669156,0.0053637714985384196,0.05609024153898945
1.066,0.0048,-0.38,0.00417493180864433,1.0052392195016873,0.005281914344053622,0.057731814451997154
1.067,0.0063,0.62,0.004151232456966151,1.0051387609759574,0.005144482106616378,0.05771515037767426
1.068,0.0049,-1.38,0.004146098186478125,1.0050382924089023,0.005114708537686761,0.057698484637694905
1.069,-0.0016,1.62,0.004215740590241142,0.9949371887712931,0.005518563946882278,0.056022912151063746
1.07,-0.0004,-0.38,0.004198817060198128,0.9847324763569405,0.005420424612493257,0.054330153026030184
1.071,0.0007,-0.38,0.0041741015719751265,0.9539926463072077,0.005277099812221675,0.049231025710547945
1.072,0.0015,0.62,0.004231862729994781,0.9435591814063992,0.005612056029227239,0.047500321091011495
