time_sec,bts_raw,diy_raw,bts_rms,diy_rms,bts_norm_rms,diy_norm_rms
0.0,-0.004399999999999845,-1.197,0.009897819959456584,0.7572405051173879,0.0464813961035482,0.0
0.0009999999999998899,-0.0037,-0.197,0.009894078262318072,0.7577984500072082,0.04644544432594008,3.881993211355137e-05
0.0020000000000000018,-0.01199999999999829,0.803,0.00987343241857979,0.7916650005787825,0.04624707049846727,0.0023951408127153725
0.0029999999999998916,-0.0043,0.803,0.009872809341061451,0.7948357971000681,0.04624108371131088,0.0026157541886024337
0.0040000000000000036,0.00040000000000017767,0.803,0.010046876203751918,0.8052478436029399,0.04791359030517147,0.0033401894254495683
0.004999999999999893,0.0012,0.803,0.010085726531186282,0.8057725472303429,0.048286880360517405,0.0033766965421328627
0.006000000000000005,-0.0010000000000008216,1.803,0.01062321857269437,0.8088880448370913,0.05345132676734692,0.003593462405214534
0.006999999999999895,-0.0047,1.803,0.010735624465827452,0.826749964171802,0.05453136919787075,0.004836234780483568
0.008000000000000007,-0.0010999999999999112,-1.197,0.010647990105139627,0.844234053705357,0.05368934192264043,0.0060527190267654065
0.008999999999999897,-0.0007,1.8029999999999982,0.010625801503241532,0.844734541544662,0.05347614463506076,0.006087541290218229
0.010000000000000009,-0.007999999999999445,0.803,0.010650355468409803,0.8452347330307485,0.05371206931374231,0.006122342934409122
0.010999999999999899,-0.0055,-0.197,0.010639202175596656,0.8482052965714478,0.053604903851661126,0.006329024771796466
0.01200000000000001,0.0003000000000005773,-0.197,0.01063826286056465,0.8487034425373495,0.053595878523344985,0.006363684095560811
0.0129999999999999,0.0029,-0.1969999999999983,0.010664255984674501,0.8657442853131934,0.053845631237887034,0.007549328720658128
0.014000000000000012,0.005099999999997824,0.803,0.01037446867833412,0.866232345156507,0.05106123463775269,0.007583286285877319
0.014999999999999902,-0.0047,-0.197,0.010272123398498699,0.8691311448830027,0.050077858751443785,0.0077849750380219705
0.016000000000000014,0.004399999999996914,-0.197,0.01028966177723589,0.8720203083735699,0.05024637476667029,0.007985993333224733
0.016999999999999904,-0.0095,0.803,0.010279625392890717,0.8886141189479491,0.05014994102427746,0.009140534958670921
0.017999999999999794,0.0108,-1.197,0.01033493878094525,0.8914401402247584,0.050681414992498994,0.009337160030642673
0.018999999999999906,-0.0027,-1.197,0.01035979666115292,0.9076789948994306,0.05092025981289801,0.010467005016364524
0.019999999999999796,-0.0049,-1.197,0.010360299929774249,0.9104458407790864,0.050925095426492956,0.010659512862885872
0.020999999999999908,-0.0028,-1.197,0.010313848491405453,0.9132043036485509,0.050478770745475,0.010851437447704365
0.021999999999999797,0.0233,-1.197,0.010277895055528286,0.9414972557104518,0.050133315225411784,0.012819966057561681
0.02299999999999991,0.0051,0.803,0.010285529610765431,0.9689644290779654,0.05020667119781203,0.014731039758445353
0.0239999999999998,0.0148,-1.197,0.01028484466056094,0.9715567590360764,0.05020008991223148,0.01491140537308913
0.02499999999999991,0.0061,-1.197,0.010301041238034615,0.9741421904624508,0.05035571334453786,0.015091291011056742
0.0259999999999998,0.014,0.8030000000000035,0.01032192428443556,0.9745759670143073,0.05055636631355004,0.015121471727114458
0.026999999999999913,-0.0128,1.803,0.010322659888632,0.9830861919269115,0.050563434303689,0.015713584603145547
0.027999999999999803,-0.0238,2.803,0.010324475621475194,0.9856413810142375,0.050580880617743226,0.01589136608070192
0.028999999999999915,-0.0206,1.803,0.010329987337365386,0.9881899631032236,0.05063383946945888,0.01606868786549704
0.029999999999999805,-0.0235,0.803,0.010246972752363973,0.9886175759214685,0.04983620091462171,0.01609843972966502
0.030999999999999917,-0.0156,0.803,0.01020552427524724,0.9890450038616702,0.04943794675980025,0.016128178730639483
0.031999999999999806,-0.0135,-0.197,0.01018043091539266,0.9894722471634168,0.049196839353311664,0.016157904885090175
0.03299999999999992,-0.007,-0.197,0.010199717462290078,0.9978554370158563,0.049382152493102634,0.016741179088159815
0.03399999999999981,0.0111,0.803,0.010149168628662972,0.9982789096364784,0.04889645833945069,0.016770642891278057
0.03499999999999992,0.018,0.803,0.009739195886237485,0.998702202695021,0.04495727023430831,0.0168000942010697
0.03599999999999981,0.0158,-1.197,0.009671191811126368,1.013223432341352,0.044303858882631414,0.017810432604307723
0.03699999999999992,0.0099,-1.197,0.009659936079746816,1.0157028084316233,0.04419570914832788,0.01798293926807391
0.03799999999999981,0.0117,-0.197,0.009673360147254912,1.0238712518336328,0.04432469315525885,0.018551272134141598
0.038999999999999924,0.0036,-0.197,0.00968012399185608,1.0263249054474257,0.04438968297882693,0.018721989114358566
0.039999999999999813,0.0174,-0.197,0.009696611963005173,1.0267366360389396,0.04454810624239363,0.01875063594651575
0.040999999999999925,0.0007,-0.197,0.009654783308270638,1.0291834583760346,0.04414619918337901,0.01892087762943634
0.041999999999999815,-0.0059,0.803,0.009550238743915992,1.0372457453614061,0.043141691659472195,0.019481824488458362
0.04299999999999993,-0.0078,0.8030000000000069,0.009540452415443882,1.062239953390201,0.043047660557593855,0.02122083756414454
0.04399999999999982,-0.006,1.803,0.009547349352667205,1.0700532060855201,0.04311392919026268,0.021764457453406362
0.04499999999999993,-0.0107,-0.197,0.009586778748487573,1.0778098204829016,0.043492783174773064,0.02230413664006281
0.04599999999999982,-0.0093,0.803,0.009573073737815326,1.078201890822064,0.04336109974942735,0.022331415577871393
0.04699999999999993,-0.0104,-1.197,0.009562952740905002,1.078593818643128,0.0432638530144238,0.02235868459974919
0.04799999999999982,-0.0166,-1.197,0.009609243263992547,1.0789856041013963,0.0437086315546957,0.02238594371650165
0.04899999999999993,0.0,-1.197,0.009619346770511456,1.0924401896835172,0.043805710234766114,0.023322068607047948
0.04999999999999982,-0.0022,-0.197,0.009652919728556239,1.1536947291845776,0.04412829313674646,0.027583953801200104
0.050999999999999934,0.0043,-2.196999999999979,0.009665442753494702,1.1591233830142915,0.04424861955304951,0.02796166130777004
0.051999999999999824,0.0061,0.8029999999999862,0.009658617230248199,1.1591233830142915,0.044183037095481895,0.02796166130777004
0.052999999999999936,0.0188,-1.197,0.009595330174911898,1.1591233830142913,0.04357494882572198,0.027961661307770027
0.053999999999999826,0.0108,-0.197,0.009585698151725658,1.1573166611101253,0.04348240035301324,0.02783595566381229
0.05499999999999994,0.0336,0.803,0.009595715013925862,1.1555071142644178,0.04357864651854232,0.027710053469906935
0.05599999999999983,0.0173,1.803,0.009600641585541931,1.1536947291845776,0.04362598306144109,0.027583953801200104
0.05699999999999994,0.0024,1.803,0.00962562174610077,1.1413330811877234,0.043866002802157904,0.02672387183825919
0.05799999999999983,0.005,-0.197,0.009615482862325362,1.1358194017145695,0.043768584202737805,0.02634024853289538
0.05899999999999994,-0.0117,-0.19699999999999307,0.009627838622582919,1.1358194017145695,0.04388730347063012,0.02634024853289538
0.05999999999999983,-0.0005,0.803,0.00962833536440386,1.1460126794419059,0.04389207637202058,0.027049462572864835
0.06099999999999994,-0.0023,-0.197,0.009604679544054511,1.1510754690752487,0.04366478144117655,0.027401714477053543
0.06199999999999983,-0.0113,1.803,0.009592457856475695,1.157924683448538,0.043547350399175046,0.02787825981666205
0.06299999999999994,-0.0099,-0.197,0.009609918726514908,1.1579246834485382,0.04371512167869226,0.027878259816662063
0.06399999999999983,-0.0022,0.803,0.00960805196308299,1.1597304581267165,0.043697185041581654,0.028003899555815927
0.06499999999999995,0.0069,0.803,0.009595126329963071,1.1597304581267163,0.04357299019892899,0.02800389955581591
0.06599999999999984,0.008,1.803,0.009585496627128428,1.1615334254657548,0.043480464021120525,0.028129343969738166
0.06699999999999995,0.0113,0.803,0.009595425004740756,1.1683213322998103,0.043575859990039004,0.02860162373660907
0.06799999999999984,0.0088,1.803,0.009564116195137407,1.1683213322998103,0.04327503196511709,0.02860162373660907
0.06899999999999995,-0.0013,0.803,0.009515029272755611,1.1683213322998103,0.04280338446089414,0.02860162373660907
0.06999999999999984,-0.0002,0.803,0.009511250456210282,1.1683213322998098,0.0427670760246337,0.028601623736609037
0.07099999999999995,-0.0013,-2.197,0.009522241553382703,1.1736823353910641,0.042872683043744086,0.028974624331936757
0.07199999999999984,0.0042,-2.1969999999999583,0.009519470860962487,1.1669256134717536,0.042846061082098166,0.028504514306729328
0.07299999999999995,-0.0022,0.803,0.009231266388853701,1.161931888413104,0.040076873009585984,0.02815706768376097
0.07399999999999984,-0.0084,0.803,0.009217506780662441,1.160129540328939,0.03994466498863864,0.028031666355513633
0.07499999999999996,-0.0091,-0.197,0.00916654444326772,1.1532934203017209,0.039454997719327374,0.027556032076540022
0.07599999999999985,-0.0021,-1.197,0.009146213819519087,1.1464165369876032,0.03925965265622163,0.027077561624928137
0.07699999999999996,-0.0064,0.803,0.009098060420613008,1.1464165369876032,0.038796974832640524,0.027077561624928137
0.07799999999999985,-0.0042,0.803,0.009016040027764507,1.135819401714569,0.03800888888825206,0.02634024853289535
0.07899999999999996,0.0041,-0.197,0.008699322803204936,1.1265699705185688,0.03496573846732981,0.02569670416557739
0.07999999999999985,-0.0013,-0.197,0.008452423125144111,1.113907344683298,0.0325934239831359,0.02481568117518344
0.08099999999999996,-0.0038,-0.197,0.008128101514558124,1.1120271622455942,0.029477207468099818,0.02468486439394853
0.08199999999999985,-0.0063,-1.197,0.008002646477739647,1.1172439678231323,0.02827178345419635,0.025047832210420243
0.08299999999999996,-0.004,-0.197,0.007934709772510493,1.117243967823132,0.0276190194202804,0.025047832210420225
0.08399999999999985,0.0029,-0.197,0.008054304863390836,1.1172439678231323,0.028768138643773394,0.025047832210420243
0.08499999999999996,0.0038,1.803,0.008009837541318805,1.1382787860339647,0.02834087817485205,0.026511364236367102
0.08599999999999985,0.0031,0.8029999999999723,0.007806997915621397,1.1433758213291652,0.02639191094334401,0.026865998838726812
0.08699999999999997,-0.0051,-1.1969999999999723,0.007645730646470882,1.1589318814463327,0.024842388151589238,0.027948337271644908
0.08799999999999986,-0.004,0.803,0.007611792857120293,1.153903562594184,0.02451629979914477,0.027598483728674794
0.08899999999999997,-0.0064,-0.197,0.007524819532454466,1.1661319641028467,0.023680624032113552,0.028449294848347243
0.08999999999999986,0.0056,0.803,0.007525803337493791,1.1968371846682333,0.023690076838867872,0.03058566100139835
0.09099999999999997,0.0009,-1.197,0.007452656942239316,1.208631280639135,0.02298725594298151,0.03140625459994994
0.09199999999999986,-0.0034,-2.197,0.007488993652862895,1.2103614069800817,0.023336394125733788,0.031526630981791245
0.09299999999999997,0.0057,-1.197,0.007475900930246701,1.238283110375657,0.023210593817916944,0.033469329355926454
0.09399999999999986,0.0094,-1.197,0.007481281810111348,1.2365920501419232,0.023262295542847772,0.03335167106265914
0.09499999999999997,0.004,-0.197,0.007553103412741988,1.2267741175566094,0.023952387281876743,0.032668572277436726
0.09599999999999986,0.0033,-0.197,0.007500182414485491,1.2267741175566094,0.023443900386843367,0.032668572277436726
0.09699999999999998,-0.0104,-0.197,0.007527593736667427,1.2267741175566094,0.02370727973652033,0.032668572277436726
0.09799999999999986,-0.0045,1.803,0.0074854588849891995,1.2267741175566096,0.02330243061030561,0.03266857227743674
0.09899999999999998,0.0082,3.803,0.007333580969474624,1.2318807671235954,0.02184312462159693,0.03302387580854701
0.09999999999999987,-0.0066,1.803,0.007444477823715641,1.2254449752544683,0.02290866758072017,0.03257609501869709
0.10099999999999998,-0.0007,-0.197,0.0076606103991437935,1.2271513966678402,0.02498535898518617,0.03269482209126791
0.10199999999999987,0.0047,0.8029999999999862,0.007898194815370107,1.2076655328550416,0.027268168571084408,0.03133906111166583
0.10299999999999998,0.0,-0.197,0.008021882432338178,1.2076655328550416,0.02845661048220143,0.03133906111166583
0.10399999999999987,0.0044,-0.197,0.0078024332861467375,1.2128526407392908,0.02634805209061985,0.031699962662349576
0.10499999999999998,0.0033,-0.197,0.007784286546267464,1.2244924883734831,0.0261736906892822,0.032509824179527295
0.10599999999999987,0.007,-0.197,0.007058541567207514,1.2227823563969502,0.01920043199904293,0.032390838938430096
0.10699999999999998,0.0016,-1.197,0.00684464478299396,1.2176375496072132,0.01714522300364154,0.03203288055587505
0.10799999999999987,-0.005,-1.197,0.006840611264011021,1.205931538802533,0.017106467280747727,0.031218415627440016
0.10899999999999999,0.0012,-2.197,0.006822896852035565,1.205931538802533,0.016936259865175475,0.031218415627440016
0.10999999999999988,-0.0043,-1.197,0.006730958585306561,1.205931538802533,0.016052878876079296,0.031218415627440016
0.11099999999999999,0.0026,-1.197,0.0068266619042733085,1.205931538802533,0.016972436048261246,0.031218415627440016
0.11199999999999988,-0.0058,-0.197,0.006827005882225702,1.2124709123567619,0.016975741131058906,0.03167340328316006
0.11299999999999999,-0.0022,0.803,0.006745943485318129,1.2007145320085142,0.016196860008905578,0.030855433811001174
0.11399999999999988,-0.0011,0.803,0.006678794629142886,1.2024560492358263,0.015551665955382597,0.03097660273247048
0.11499999999999999,-0.0019,0.803,0.00671387561194434,1.2007145320085142,0.01588873858453015,0.030855433811001174
0.11599999999999988,-0.0062,-1.197,0.00672844011614343,1.1989704852118,0.016028680380072276,0.03073408889058599
0.11699999999999999,-0.0055,0.803,0.006680879316984995,1.1937230564527097,0.01557169650058906,0.030368990415960324
0.11799999999999988,-0.0048,-1.197,0.006590535904242272,1.1937230564527097,0.014703639529902075,0.030368990415960324
0.119,0.00030000000000142104,-1.1969999999999585,0.0065315657026246,1.1937230564527097,0.01413702938066172,0.030368990415960324
0.11999999999999988,0.0067,1.803,0.006543144217465898,1.1937230564527097,0.014248280552308442,0.030368990415960324
0.121,-0.0015999999999992895,-0.197,0.006745554623333225,1.1937230564527097,0.016193123661712314,0.030368990415960324
0.12199999999999989,0.0016,0.803,0.006754456243250016,1.1786262759985482,0.01627865411694519,0.02931860711994611
0.123,0.0007999999999973355,-0.197,0.006754434857170478,1.1633335985183328,0.01627844863062521,0.02825459396659042
0.12399999999999989,-0.0112,-0.197,0.0067594217830550625,1.1615334254657534,0.01632636508236188,0.028129343969738072
0.125,2.309263891220067e-15,-0.197,0.0067109947733281685,1.1615334254657532,0.015861058292561177,0.02812934396973806
0.1259999999999999,0.0104,0.803,0.006853079081641162,1.1615334254657532,0.01722626324234062,0.02812934396973806
0.127,0.0038999999999986233,0.803,0.007111125664489715,1.1547056167879381,0.019705681809818684,0.027654287966550246
0.1279999999999999,-0.0023,-2.197,0.007186564459883479,1.1547056167879381,0.02043052903679108,0.027654287966550246
0.129,0.0008999999999989563,-0.197,0.007196100373514143,1.15289197172771,0.020522154049037847,0.02752810063263845
0.1299999999999999,-0.0038,-0.197,0.0071844294451624355,1.15289197172771,0.02041001493006369,0.02752810063263845
0.131,-0.006400000000000489,-1.197,0.007185034177690501,1.1547056167879384,0.02041582545094675,0.02765428796655026
0.1319999999999999,-0.0086,-0.197,0.007181249449021925,1.1547056167879381,0.02037946020855468,0.027654287966550246
0.133,-0.015499999999998158,-0.197,0.007154761004869426,1.1496588134644237,0.020124948253657536,0.027303148336124784
0.1339999999999999,-0.0072,-2.197,0.007143644232968358,1.161931888413103,0.02001813369964307,0.028157067683760893
0.135,-0.0017999999999994448,-1.197,0.0072314211706536674,1.1740766751988783,0.020861530913785023,0.029002061171754294
0.1359999999999999,0.0007,-2.197,0.007232500191911669,1.1619318884131027,0.020871898597449964,0.028157067683760875
0.137,0.006799999999997979,0.803,0.007232078234276106,1.161931888413103,0.020867844253521995,0.028157067683760893
0.1379999999999999,-0.0023,1.803,0.007216862183653777,1.1551064350433888,0.020721642129780525,0.027682175555002717
0.139,0.0038000000000022426,2.803,0.007225255679481575,1.1601295403289382,0.020802290318071806,0.028031666355513588
0.1399999999999999,0.0139,1.803,0.0072115669558159064,1.1722929993302216,0.020670763385038732,0.0288779589935694
0.14100000000000001,0.007399999999997491,0.8030000000000556,0.00720035690017582,1.1825633341373534,0.020563052522179506,0.029592534406429092
0.1419999999999999,-0.0039,2.802999999999917,0.007201803038434656,1.1758576453863196,0.020576947618214176,0.029125975097724653
0.14300000000000002,-0.008300000000000822,-0.19699999999997225,0.007198129612880194,1.1536947291845765,0.02054165182229454,0.027583953801200028
0.1439999999999999,-0.012,0.8029999999999723,0.007175575530991737,1.1536947291845765,0.02032494285142054,0.027583953801200028
0.14500000000000002,-0.0059000000000011986,-0.197,0.007115997668159039,1.1486434843253526,0.019752494041258433,0.02723250514363252
0.1459999999999999,-0.0113,0.803,0.007134392874342599,1.1486434843253526,0.019929242809874657,0.02723250514363252
0.1469999999999998,-0.0067,-1.197,0.007130148936245086,1.1555071142644167,0.01988846529287736,0.02771005346990686
0.1479999999999999,0.0071,1.803,0.007074545626303064,1.167718723430644,0.019354205634944204,0.028559696234773557
0.1489999999999998,0.0128,-0.197,0.007065773438693753,1.1555071142644167,0.019269918818990935,0.02771005346990686
0.1499999999999999,0.0182,0.803,0.007074197209901249,1.1019395973821102,0.019350857905684093,0.02398300550011116
0.1509999999999998,0.0197,0.803,0.007051567917547726,1.0962277990346838,0.01913342628147559,0.023585597748666746
0.1519999999999999,0.0153,0.803,0.007053041131311197,1.1034175204377628,0.019147581530185694,0.024085834424143356
0.1529999999999998,-0.0025,1.803,0.007066409814628209,1.1086748389289836,0.019276033382843585,0.024451620993125533
0.15399999999999991,0.0094,1.803,0.007069244404780233,1.1213965509172128,0.019303269300392025,0.02533675499965845
0.1549999999999998,0.0072,-0.197,0.0071423348345222406,1.1284259220000277,0.0200055524564284,0.025825835038233082
0.15599999999999992,0.0014,-1.197,0.007174028947498025,1.1302788259580105,0.020310082635919397,0.02595475387443748
0.1569999999999998,-0.0005,-0.197,0.00721953728393231,1.1372532969578986,0.0207473456024917,0.02644001414957108
0.15799999999999992,0.0009,-0.197,0.007221418452140503,1.1321286973557478,0.020765420646665728,0.026083461715281926
0.1589999999999998,-0.0035,-0.197,0.007204272290104083,1.1478371942087495,0.020600673212133578,0.027176406184467504
0.15999999999999992,0.0114,0.803,0.0075287744519847155,1.1321286973557474,0.023718624538874522,0.026083461715281895
0.1609999999999998,-0.0024,-1.197,0.007549003370474147,1.1321286973557474,0.023912992375677594,0.026083461715281895
0.16199999999999992,-0.0042,-0.197,0.007557916888684889,1.1251224601543728,0.023998637154652395,0.02559599125450503
0.1629999999999998,-0.0028,0.803,0.007564474878124137,1.1251224601543728,0.024061649036466532,0.02559599125450503
0.16399999999999992,-0.0072,-0.197,0.007574648577828018,1.1232610504136702,0.02415940216176389,0.025466480614497466
0.1649999999999998,-0.0082,-0.197,0.007587198701825289,1.12326105041367,0.024279988957060645,0.02546648061449745
0.16599999999999993,0.0005,-1.197,0.007585940561259872,1.133975551034425,0.024267900220817925,0.02621195959336626
0.16699999999999982,-0.0028,0.803,0.007647510177529969,1.1587239542761918,0.024859486623890623,0.027933870397269495
0.16799999999999993,-0.0003,1.803,0.007627745027134018,1.1587239542761918,0.024669574863231975,0.027933870397269495
0.16899999999999982,0.0041,0.803,0.007731443823315857,1.1518794924734361,0.0256659558958352,0.027457655725561785
0.16999999999999993,0.0164,0.803,0.007743904997150116,1.1573166611101222,0.0257856880210824,0.027835955663812074
0.17099999999999982,0.0037,-1.197,0.007768355498326389,1.1449941170802007,0.02602061857482732,0.026978594423597357
0.17199999999999993,-0.0042,-1.1969999999999723,0.007781540160171036,1.146820252313184,0.026147302272873898,0.027105650781793254
0.17299999999999982,0.0034,-0.19699999999997225,0.007780819590962517,1.1518794924734366,0.026140378745133162,0.027457655725561816
0.17399999999999993,0.0023,0.8029999999999723,0.007795209495555053,1.1587239542761922,0.026278642915257475,0.027933870397269526
0.17499999999999982,-0.0166,-0.197,0.007715816733971404,1.1655282232730568,0.025515804341613633,0.028407288588492133
0.17599999999999993,-0.0191,-0.197,0.007731989130012164,1.1722929993302196,0.025671195428685702,0.02887795899356926
0.17699999999999982,-0.0122,0.803,0.007698307623741314,1.1705066054111937,0.025347569550339597,0.028753667702565624
0.17799999999999994,-0.0056,-0.197,0.007707341981106388,1.1687174809781145,0.02543437540201539,0.02862918643156196
0.17899999999999983,0.0002,-0.197,0.007705378063897071,1.1482404100387902,0.02541550527112655,0.02720446058811
0.17999999999999994,-0.0016,0.803,0.007719161774837117,1.1551064350433868,0.025547944881278477,0.02768217555500258
0.18099999999999983,-0.003,-0.197,0.007713857868613103,1.1551064350433868,0.025496982751004107,0.02768217555500258
0.18199999999999994,0.0013,0.803,0.007744514189915342,1.14824041003879,0.02579154139777354,0.027204460588109988
0.18299999999999983,0.0003,1.803,0.00799124247952309,1.1605284852948943,0.02816220911064377,0.02805942360677266
0.18399999999999994,0.0116,1.803,0.007867233469607672,1.1605284852948943,0.026970679122822482,0.02805942360677266
0.18499999999999983,0.004,-0.197,0.007879119315860722,1.1504638269195986,0.02708488326210883,0.027359158469474065
0.18599999999999994,0.003,0.803,0.007882771081404297,1.150463826919598,0.0271199709396625,0.02735915846947402
0.18699999999999983,0.002,-0.197,0.007884078945421888,1.1296559237009762,0.027132537439451626,0.02591141442680989
0.18799999999999994,0.0053,-1.197,0.007948892158062054,1.127801996356319,0.027755289661410894,0.02578242438679675
0.18899999999999983,0.0046,1.803,0.00822615938443724,1.1278019963563175,0.03041938814176647,0.02578242438679664
0.18999999999999995,0.0039,1.803,0.008525189044716762,1.1184862664102138,0.03329258911090639,0.025134267175046937
0.19099999999999984,0.0017,-0.197,0.008415418174113471,1.1057310713792239,0.03223786506946552,0.024246803530819268
0.19199999999999995,0.0025,-0.197,0.008399553013086161,1.1038369622575788,0.03208542602379822,0.024115017777675076
0.19299999999999984,0.0003,-1.197,0.008392220593175076,1.072420492769152,0.0320149730928917,0.02192916531260282
0.19399999999999995,0.0018,0.803,0.008391237687243987,1.072420492769152,0.03200552892514213,0.02192916531260282
0.19499999999999984,-0.0065,-0.197,0.008308477604097458,1.077829015835266,0.031210335729656327,0.02230547218823123
0.19599999999999995,0.0022,-1.197,0.008298653814130525,1.077829015835266,0.03111594468220226,0.02230547218823123
0.19699999999999984,-0.0054,1.803,0.008221481467856217,1.077829015835266,0.03037444077954967,0.02230547218823123
0.19799999999999995,-0.0028,-0.197,0.008208206445210734,1.0778290158352661,0.030246888857460397,0.022305472188231243
0.19899999999999984,-0.0089,-1.197,0.008185800883883418,1.077829015835266,0.030031606933722158,0.02230547218823123
0.19999999999999996,0.0034,-1.197,0.00822125953465413,1.077829015835266,0.030372308353319027,0.02230547218823123
0.20099999999999985,0.0016,-1.197,0.008050418215913908,1.0758857859498896,0.028730794123209863,0.022170268777271362
0.20199999999999996,0.0064,-1.197,0.007850703459489915,1.0758857859498896,0.02681185193141333,0.022170268777271362
0.20299999999999985,0.002,1.803,0.007700195340129591,1.0758857859498896,0.02536570751214308,0.022170268777271362
0.20399999999999996,0.0111,-1.1969999999999446,0.007767414829348467,1.0626193572837823,0.0260115802372374,0.02124723521319764
0.20499999999999985,0.0075,0.8029999999999445,0.00772066527336577,1.0566950409517302,0.02556239111857008,0.020835041173919787
0.20599999999999996,0.0107,-1.1969999999999446,0.007754358375974391,1.0566950409517302,0.025886128419337934,0.020835041173919787
0.20699999999999985,-0.0023,0.8029999999999168,0.00778371944253754,1.0491851945864397,0.026168241721494533,0.020312531278403635
0.20799999999999996,-0.0005,-2.1969999999999725,0.007869498497140059,1.0566950409517302,0.026992442446551308,0.020835041173919787
0.20899999999999985,-0.0219,-1.197,0.00787178809853488,1.0586734966642857,0.027014441886139984,0.020972695479662795
0.20999999999999996,-0.007,-1.197,0.007902615801777719,1.0586734966642857,0.027310647241658523,0.020972695479662795
0.21099999999999985,-0.0045,-0.197,0.00791918016684214,1.0586734966642857,0.02746980452964058,0.020972695479662795
0.21199999999999997,-0.0066,-0.197,0.007978443026504823,1.0531666052786701,0.028039226658728558,0.020589544466638646
0.21299999999999986,-0.0045,-0.197,0.007969903786403961,1.0531666052786703,0.02795717809902857,0.02058954446663866
0.21399999999999997,-0.0045,0.803,0.008397474472858171,1.06458680315022,0.032065454547417334,0.021384123490813717
0.21499999999999986,0.0013,1.803,0.008884849661480159,1.077829015835266,0.03674835745067606,0.02230547218823123
0.21599999999999997,-0.0115,2.803,0.008852035851151048,1.077829015835266,0.03643306875472983,0.02230547218823123
0.21699999999999986,-0.0002,0.803,0.008960390592931142,1.0836377975498261,0.037474186043237115,0.02270962771673565
0.21799999999999997,0.0135,-0.197,0.008959230621830062,1.0889906107693605,0.03746304055991388,0.023082058488286886
0.21899999999999986,0.0044,1.803,0.009027659823532732,1.0889906107693605,0.038120536704161906,0.023082058488286886
0.21999999999999997,0.0091,-0.197,0.009218342799495531,1.0889906107693605,0.039952697804243646,0.023082058488286886
0.22099999999999986,0.0048,0.803,0.009317931495151388,1.087067333414273,0.04090958728673283,0.022948243307393177
0.22199999999999998,0.0012,-1.197,0.009364105732133279,1.087067333414273,0.04135324850188336,0.022948243307393177
0.22299999999999986,0.0048,-1.197,0.009364105732133284,1.0797687485493481,0.04135324850188341,0.022440432277754333
0.22399999999999998,0.0015,-1.197,0.009408045791378855,1.0797687485493483,0.04177544281093767,0.022440432277754347
0.22499999999999987,-0.005,-1.197,0.009470483870682372,1.0797687485493483,0.04237537376694519,0.022440432277754347
0.22599999999999998,-0.0075,-0.197,0.00939703879262983,1.0797687485493483,0.04166968300288565,0.022440432277754347
0.22699999999999987,-0.0054,-0.197,0.009202883261551175,1.0797687485493486,0.03980415615334969,0.02244043227775436
0.22799999999999998,0.0015,0.803,0.009134311414047705,1.0851406472937106,0.03914528940909925,0.022814190956042767
0.22899999999999987,-0.0047,-1.197,0.009120044775902203,1.1086748389289802,0.039008209634110676,0.024451620993125305
0.22999999999999998,-0.0025,-0.197,0.009315871580541615,1.1086748389289802,0.04088979477301491,0.024451620993125305
0.23099999999999987,-0.0094,-0.197,0.009657292340958318,1.139091841955254,0.044170307009817056,0.026567933937505752
0.23199999999999998,-0.0215,1.803,0.009658629068077363,1.1705066054111923,0.04418315083825309,0.02875366770256553
0.23299999999999987,-0.0066,-0.197,0.009657939293634229,1.1993565104863704,0.044176523199387266,0.030760947233096782
0.23399999999999999,-0.0084,1.803,0.009686187411592315,1.1993565104863704,0.044447942829860324,0.030760947233096782
0.23499999999999988,-0.003,-1.1969999999999446,0.009630495769587894,1.1993565104863695,0.0439128344408446,0.03076094723309672
0.236,-0.0016,0.8029999999999723,0.009649816585084858,1.2010999967585743,0.04409847684754953,0.030882253154098517
0.23699999999999988,0.0122,-0.1969999999999445,0.009660805752329724,1.2010999967585747,0.04420406532311572,0.03088225315409855
0.238,0.0213,1.802999999999889,0.009658731748941178,1.212852640739286,0.04418413743856942,0.031699962662349236
0.23899999999999988,0.0227,-2.1969999999999446,0.009655607441626373,1.2080487796786477,0.04415411779838925,0.031365726138887266
0.24,0.0027,-0.197,0.009649305676461719,1.2176375496072072,0.04409356782564925,0.03203288055587463
0.24099999999999988,0.0053,-0.197,0.00964159972560312,1.2124709123567559,0.04401952585451377,0.031673403283159644
0.242,-0.0017,0.803,0.00964022842037493,1.2335782858726119,0.04400634978526719,0.03314198346362299
0.24299999999999988,-0.0082,-0.197,0.009644477627537031,1.2399718643618511,0.04404717792962188,0.033586827188233255
0.244,-0.0024000000000004218,-1.197,0.009649416822212738,1.2399718643618511,0.04409463576011183,0.033586827188233255
0.24499999999999988,-0.0043,-0.197,0.009661728844101998,1.2399718643618511,0.044212934771625356,0.033586827188233255
0.246,0.000400000000000977,0.803,0.009660404294623327,1.2513594808622412,0.044200207951007514,0.03437913930999617
0.2469999999999999,0.0048,-1.197,0.009809828943922627,1.2738293457969336,0.04563594194066868,0.03594251706876793
0.248,0.003700000000002487,1.803,0.009879523569515476,1.2626443981892252,0.046305596802363784,0.03516430596808967
0.2489999999999999,0.0149,-0.197,0.009882861507047968,1.2626443981892252,0.046337669090257626,0.03516430596808967
0.25,0.007300000000000245,-0.197,0.009845650827129813,1.2563662042756631,0.045980133448130164,0.034727490314847134
0.2509999999999999,0.0084,0.803,0.009840633515389498,1.2563662042756631,0.045931925036492086,0.034727490314847134
0.252,-0.0003000000000022648,0.803,0.00997182882543514,1.2517293498120312,0.04719250397577654,0.03440487354967418
0.2529999999999999,-0.0105,-0.197,0.010119969507920254,1.2453961330228456,0.048615901079887905,0.03396422958948705
0.254,-0.004000000000001377,-1.197,0.010118034610186375,1.2356481559007202,0.048597309780152045,0.033285998070515285
0.2549999999999999,-0.0102,-0.197,0.01007856714095218,1.2309332602199297,0.04821808997049441,0.03295795145947864
0.256,-0.006900000000001043,-0.197,0.01005060981564157,1.235648155900721,0.04794946439635599,0.03328599807051535
0.2569999999999999,-0.0116,-1.197,0.010234957242111683,1.2356481559007217,0.049720750909865254,0.033285998070515396
0.258,0.0021000000000012654,0.803,0.010319766941160055,1.2356481559007222,0.05053563766481281,0.033285998070515424
0.2589999999999999,0.0078,-0.197,0.010319651325365045,1.2162984231195386,0.05053452678031405,0.03193970863102826
0.26,-0.012499999999999446,0.803,0.010087030337101184,1.2115082253199478,0.048299407868373195,0.03160642275139509
0.2609999999999999,-0.01,0.803,0.010071900212126178,1.2066990121619818,0.04815403135388042,0.03127181384697091
0.262,0.0020000000000054623,-0.197,0.01006282648178152,1.2066990121619818,0.04806684719029071,0.03127181384697091
0.2629999999999999,0.0266,1.803,0.01004627363030855,1.2084319049578711,0.047907800529669455,0.031392382709458655
0.264,0.029899999999994025,1.803,0.010037815027768623,1.2101623163392239,0.047826526769091424,0.03151277892345439
0.2649999999999999,0.003,-0.197,0.010043908067079863,1.2201139269981809,0.04788507121728328,0.032205178580211935
0.266,0.01389999999999638,1.803,0.01007101715818635,1.2201139269981809,0.04814554660546668,0.032205178580211935
0.2669999999999999,-0.0024,-1.197,0.010005566009355513,1.1917666168005,0.047516664828066095,0.03023286791377645
0.268,-0.011100000000001777,1.803,0.010007541619196592,1.1917666168004997,0.04753564730660927,0.030232867913776433
0.2689999999999999,-0.0191,0.803,0.00992187693379766,1.2036103999446508,0.046712545488283956,0.031056918579016237
0.27,-0.02129999999999749,-0.197,0.00993026167421686,1.1935211903805965,0.046793109550978984,0.03035494525243532
0.2709999999999999,-0.01,-1.197,0.009889759297880305,1.1935211903805962,0.04640394592475582,0.030354945252435303
0.272,-0.004200000000001221,-0.197,0.009880776942488203,1.1917666168004997,0.04631763972959905,0.030232867913776433
0.2729999999999999,-0.0097,-0.197,0.009880066730244545,1.1917666168005,0.04631081571587123,0.03023286791377645
0.2739999999999998,-0.0111,0.803,0.009874241063012885,1.1868774135751856,0.04625484028948629,0.029892693569035726
0.2749999999999999,0.0117,-0.197,0.009922592629394102,1.181967986364155,0.04671942218833901,0.029551112107271627
0.2759999999999998,0.0019,-0.197,0.009987251372615389,1.1752589007351282,0.04734069020407067,0.029084316455201573
0.2769999999999999,0.0048,-1.197,0.010064042390011995,1.197022622101324,0.0480785301407476,0.030598563115379916
0.2779999999999998,0.0023,-2.197,0.010068039787007866,1.198769502777634,0.04811693878861162,0.03072010520762251
0.2789999999999999,0.019,-0.197,0.010067097542351444,1.197022622101324,0.048107885311249314,0.030598563115379916
0.2799999999999998,0.0255,2.803,0.010061212875041485,1.1921549747231448,0.048051342987647586,0.030259888554108313
0.2809999999999999,0.0034,2.803,0.01006527991691452,1.2039949375690726,0.048090420812369764,0.031083673415824527
0.2819999999999998,0.0006,2.8029999999999444,0.010085920434923132,1.2039949375690726,0.04828874346802359,0.031083673415824527
0.2829999999999999,-0.0074,1.803,0.009855606979786477,1.1939089775709657,0.04607579629119159,0.030381926183131697
0.2839999999999998,-0.0052,1.8029999999999444,0.009839727451029415,1.1939089775709657,0.045923219194419225,0.030381926183131697
0.2849999999999999,-0.0073,0.803,0.009816572577960613,1.181967986364155,0.04570073757276535,0.029551112107271627
0.2859999999999998,-0.0055,0.8030000000000556,0.009815172661493479,1.1770380821046318,0.045687286594871306,0.02920810592122584
0.2869999999999999,0.0,1.8029999999999444,0.009814867357919477,1.177038082104632,0.04568435311153763,0.029208105921225858
0.2879999999999998,-0.0047,0.8029999999998335,0.00976755054806793,1.1987695027776348,0.045229713582485585,0.030720105207622573
0.2889999999999999,0.003,-2.197,0.009558119683673481,1.186877413575188,0.04321741499650767,0.029892693569035896
0.2899999999999998,-0.0006,-1.197,0.009326235779940335,1.171692433116446,0.040989378298371314,0.028836173612837676
0.2909999999999999,0.0005,-2.197,0.009382411498580639,1.1734770218413926,0.041529137896427835,0.028960339304498275
0.2919999999999998,0.0038,-1.197,0.009443991527029839,1.1734770218413926,0.04212082434403479,0.028960339304498275
0.2929999999999999,0.0031,-1.197,0.00947382178732281,1.171692433116446,0.042407445854099515,0.028836173612837676
0.2939999999999998,-0.0052,0.803,0.009461342836836044,1.171692433116446,0.04228754292340392,0.028836173612837676
0.29499999999999993,-0.0063,1.803,0.009543208454826996,1.1649241695448438,0.043074141726783394,0.028365260558215307
0.2959999999999998,-0.0172,2.803,0.009547164548054172,1.1716924331164462,0.043112153510911105,0.02883617361283769
0.29699999999999993,-0.0129,-0.197,0.009550624407466216,1.1766447347808624,0.04314539727477881,0.029180738135115833
0.2979999999999998,-0.0038,-0.197,0.009568761680478011,1.1917666168005019,0.043319667714528276,0.03023286791377659
0.29899999999999993,0.0024,-0.197,0.009562229604584988,1.1798039426045757,0.04325690482081136,0.02940054520833528
0.2999999999999998,0.0013,-1.197,0.009472791295221232,1.1798039426045754,0.042397544458692205,0.029400545208335266
0.30099999999999993,0.0162,0.803,0.009446320021331832,1.1917666168005017,0.04214319748280259,0.030232867913776572
0.3019999999999998,0.0184,-0.197,0.009409412237226812,1.2018705553792033,0.041788572189244005,0.03093586603574345
0.30299999999999994,0.0003,0.803,0.009424837571287616,1.2066990121619812,0.0419367851950421,0.031271813846970864
0.3039999999999998,-0.0066,0.803,0.009366190677764426,1.2066990121619812,0.0413732815240338,0.031271813846970864
0.30499999999999994,-0.0,-1.197,0.009425654037094623,1.2001281885365862,0.0419446301370648,0.03081463800089384
0.3059999999999998,0.0221,-1.197,0.009457364594261438,1.2001281885365862,0.04224931831916183,0.03081463800089384
0.30699999999999994,0.0134,0.803,0.00943270099113747,1.2118902569353882,0.042012340193540346,0.03163300322851246
0.30799999999999983,-0.0001,0.803,0.0093836519219931,1.21705935917569,0.04154105639891851,0.03199265200694495
0.30899999999999994,-0.0022,0.803,0.009415331965607949,1.2170593591756897,0.04184545139415575,0.031992652006944934
0.30999999999999983,-0.0043,0.803,0.009423216381703651,1.2170593591756897,0.04192120813329025,0.031992652006944934
0.31099999999999994,0.0014,-0.197,0.009402218266778126,1.21705935917569,0.04171944953818054,0.03199265200694495
0.31199999999999983,0.0032,0.803,0.009416929628338446,1.2170593591756897,0.04186080240014403,0.031992652006944934
0.31299999999999994,0.0018,0.803,0.009452185246630324,1.2286593546186648,0.04219955299949649,0.032799740742462925
0.31399999999999983,-0.0057,1.803,0.009217175653767092,1.21705935917569,0.03994148338412577,0.03199265200694495
0.31499999999999995,-0.0075,1.803,0.008730265970119413,1.2070825658544382,0.035263053245682664,0.03129850022509663
0.31599999999999984,-0.0009,0.803,0.008750777696624894,1.2088149088082678,0.03546013841917078,0.03141903083141998
0.31699999999999995,-0.002,0.803,0.008640115813896962,1.1970226221013234,0.034396853163776615,0.030598563115379868
0.31799999999999984,0.0034,1.803,0.008637158753637722,1.1921549747231444,0.034368440502655605,0.030259888554108282
0.31899999999999995,0.006,0.803,0.008583209321772084,1.1868774135751852,0.033850071991063796,0.0298926935690357
0.31999999999999984,0.0016,-0.197,0.008368899595628991,1.1917666168004992,0.0317908952783763,0.030232867913776402
0.32099999999999995,0.0023,-0.197,0.00811133326231576,1.2036103999446504,0.029316091147569914,0.031056918579016206
0.32199999999999984,0.0002,-1.197,0.008275252919133788,1.2183976493278026,0.03089109917985137,0.03208576574237136
0.32299999999999995,-0.0034,0.803,0.008290104448766192,1.2183976493278024,0.031033798834772374,0.03208576574237134
0.32399999999999984,-0.0099,0.803,0.00824895084115618,1.2248704702621043,0.03063837790843965,0.032536122890249694
0.32499999999999996,-0.0124,-0.197,0.008174340599030692,1.2296086137406874,0.029921491764829906,0.03286578700500142
0.32599999999999985,-0.0145,-2.197,0.008090207175800737,1.2296086137406874,0.02911310294836467,0.03286578700500142
0.32699999999999996,-0.0061,0.803,0.008096901721912424,1.231309264950403,0.02917742692331107,0.032984112606175495
0.32799999999999985,-0.0006,-0.197,0.008287266244151052,1.2265776909301402,0.03100652818796357,0.0326549055722765
0.32899999999999996,-0.0032,0.803,0.00828409376913918,1.21705935917569,0.030976045732577173,0.03199265200694495
0.32999999999999985,-0.0038,1.803,0.008066798537838635,1.2170593591756897,0.028888183048391913,0.031992652006944934
0.33099999999999996,-0.0114,-0.197,0.00786188543221635,1.1868774135751852,0.026919292961993562,0.0298926935690357
0.33199999999999985,0.0017,0.803,0.008117593273482774,1.1559076545956002,0.029376239930587224,0.02773792172132196
0.33299999999999996,0.0035,-0.197,0.008118950359918095,1.1240849687859387,0.029389279379776066,0.025523806088504176
0.33399999999999985,0.005,-0.197,0.008193805710864614,1.1343836939857952,0.030108520630573066,0.026240356809567884
0.33499999999999996,-0.0025,0.803,0.008194446203867924,1.1288360714818786,0.030114674752930417,0.02585437186208855
0.33599999999999985,-0.0014,0.803,0.008341109524288855,1.1496588134644214,0.03152387674973834,0.027303148336124627
0.33699999999999997,-0.0075,-2.197,0.00832874563647048,1.149658813464421,0.03140507938887158,0.027303148336124596
0.33799999999999986,0.007,-0.197,0.00895139832492152,1.1597304581267132,0.037387784603540926,0.028003899555815694
0.33899999999999997,0.0088,-1.197,0.0096669777741518,1.159730458126714,0.04426336866802193,0.028003899555815757
0.33999999999999986,0.0106,0.803,0.010003466743505636,1.1687174809781151,0.0474964942113162,0.028629186431562006
0.34099999999999997,0.012,-0.197,0.010132049212945535,1.1740766751988776,0.04873196789464172,0.02900206117175425
0.34199999999999986,0.0077,-0.197,0.010217571044342743,1.1536947291845752,0.049553697112483815,0.027583953801199934
0.34299999999999997,0.0066,-0.197,0.01022373738886916,1.1486434843253512,0.04961294590757922,0.027232505143632426
0.34399999999999986,0.0127,-0.19700000000005552,0.010245084218671433,1.1540958985220002,0.04981805509981997,0.027611865816757414
0.345,0.0051,-1.197,0.010265483136657242,1.1522812937898006,0.050014056362274815,0.027485611712091976
0.34599999999999986,0.0026,-1.1970000000000556,0.010266101528315518,1.1468202523131847,0.05001999812574472,0.0271056507817933
0.347,-0.0076,-2.196999999999889,0.010190717485693807,1.1218092704404126,0.04929567698610954,0.025365470638361965
0.34799999999999986,-0.0011,-0.197,0.010116275619580459,1.1218092704404126,0.04858040866904186,0.025365470638361965
0.349,-0.0072,-0.196999999999889,0.010143144366628713,1.1236730851157097,0.04883857473185468,0.025495148605643964
0.34999999999999987,-0.0018,1.803,0.010151178919273855,1.1236730851157097,0.04891577404521058,0.025495148605643964
0.351,-0.001,1.8029999999998334,0.010150938424974247,1.1166137941028955,0.048913463276258555,0.025003986838797225
0.35199999999999987,-0.0054,-1.197,0.010020808038229868,1.1147381765300124,0.04766311656162496,0.024873487665529846
0.353,0.0001,-0.197,0.009850725273811879,1.1376602639974045,0.046028890835979684,0.026468329549773347
0.35399999999999987,0.0113,-0.197,0.009852320345713554,1.1427600580803614,0.046044216948210356,0.026823156099322423
0.355,0.0128,-0.197,0.009886136976440129,1.1478371942087509,0.04636914115835665,0.027176406184467598
0.35599999999999987,-0.001,1.803,0.00988727747697104,1.140927424237153,0.046380099560368204,0.026695647589646387
0.357,-0.0065,1.803,0.009682836315562573,1.1464165369876014,0.044415744109668705,0.027077561624928016
0.3579999999999999,-0.008,0.803,0.009591335681424637,1.1464165369876012,0.04353656807597263,0.027077561624927998
0.359,0.0087,-0.197,0.009619057777313509,1.1464165369876012,0.0438029334682887,0.027077561624927998
0.3599999999999999,0.0108,0.803,0.009624043718432564,1.146416536987601,0.04385084045798983,0.027077561624927984
0.361,-0.0113,0.803,0.00961822605906596,1.1445897576473576,0.04379494197449281,0.026950460451911552
0.3619999999999999,-0.0084,1.803,0.009624715843430744,1.1514775509508755,0.04385729851367016,0.027429689983955213
0.363,-0.0164,-0.197,0.00962237821254741,1.1619318884130982,0.04383483758684032,0.028157067683760566
0.3639999999999999,-0.0045,0.803,0.009622018786548612,1.1601295403289331,0.04383138407280726,0.028031666355513234
0.365,-0.0067,0.803,0.009608124636264611,1.1496588134644183,0.04369788331564474,0.027303148336124412
0.3659999999999999,-0.0009,-0.197,0.009597583582114669,1.137253296957895,0.04359660049650546,0.026440014149570833
0.367,0.0008,0.803,0.00959904038029613,1.1579246834485295,0.04361059801749686,0.027878259816661463
0.3679999999999999,0.0055,-1.197,0.00961506849114359,1.1561160882765928,0.0437646027526036,0.027752423837021808
0.369,0.0011999999999985345,-1.197,0.009615056329328337,1.1437806099235805,0.04376448589683973,0.02689416267003389
0.3699999999999999,-0.0054,1.803,0.009607333660583825,1.164336117594459,0.043690283293324285,0.028324345877913232
0.371,-0.019199999999997178,-2.197,0.009638442651302733,1.164336117594459,0.043989191375549234,0.028324345877913232
0.3719999999999999,-0.0065,-0.197,0.009636713432941877,1.1863002439518104,0.0439725763285147,0.029852536044509166
0.373,-0.005099999999999045,-1.197,0.009653545201158483,1.1813884182329444,0.04413430293686214,0.029510787702622953
0.3739999999999999,-0.0008,-1.197,0.009670099528589228,1.1915803614118288,0.04429336377909769,0.030219908889191915
0.375,0.00030000000000077713,-0.197,0.009622559501895878,1.191580361411829,0.04383657949007236,0.030219908889191932
0.3759999999999999,0.0038,0.803,0.009558179150866767,1.1915803614118288,0.04321798638195894,0.030219908889191915
0.377,0.018299999999995983,0.803,0.009498255120164683,1.16971538574012,0.04264221144736865,0.02869861729440097
0.3779999999999999,0.0002,1.803,0.009518485221169335,1.1746760224429307,0.04283659064626828,0.029043761740665416
0.379,0.00239999999999547,-0.197,0.009518302631289046,1.1813884182329442,0.04283483624698726,0.029510787702622936
0.3799999999999999,-0.018,-0.197,0.009518655815612462,1.1796157983714577,0.04283822978841514,0.029387454764296
0.381,-0.020499999999995095,-0.197,0.009516450450244868,1.1796157983714577,0.042817039723504674,0.029387454764296
0.3819999999999999,0.0016,-0.197,0.00945124517038607,1.1863002439518104,0.042190520357137426,0.029852536044509166
0.383,-0.013299999999998223,-2.197,0.009482663396787888,1.1911918161510815,0.0424923997040289,0.030192875214503884
0.3839999999999999,-0.0053,-1.197,0.009516033075851513,1.1978116629495243,0.042813029417268285,0.03065346192836451
0.385,-0.017199999999995493,-2.197,0.00950519549033781,1.1978116629495243,0.04270889740182874,0.03065346192836451
0.3859999999999999,0.0031,0.803,0.009507646437980443,1.2026564155913742,0.042732447123068916,0.030990543550752214
0.387,0.03280000000000089,-2.197,0.009578365796916103,1.2222221422723745,0.04341194804762922,0.0323518611205813
0.3879999999999999,0.0368,0.803,0.009569742209934772,1.2074817298941956,0.043329089048127094,0.03132627271877525
0.389,0.025899999999997824,2.803,0.009551662468210381,1.2074817298941956,0.04315537139284246,0.03132627271877525
0.3899999999999999,0.0161,1.803,0.009545466559128152,1.2009151889270473,0.04309583852923582,0.030869394845679847
0.391,0.013199999999998224,0.803,0.009528083404501009,1.2009151889270473,0.0429288139716226,0.030869394845679847
0.3919999999999999,0.0052,0.803,0.00945523548634193,1.2126696239827641,0.04222886096743285,0.03168722897091583
0.393,0.007299999999996536,1.803,0.009424244389941078,1.2243112116064736,0.041931085662700866,0.03249721155072208
0.3939999999999999,-0.0083,-0.197,0.00944033153792233,1.2307529321102204,0.042085657651068926,0.032945404835063224
0.395,-0.0064000000000012216,-1.197,0.00940463126018092,1.2371611119536932,0.041742634579346544,0.033391264472876485
0.3959999999999999,-0.0119,-1.197,0.009430064578475023,1.2307529321102204,0.04198700844748642,0.032945404835063224
0.397,-0.003900000000000977,-0.197,0.00942711465399993,1.245217899377654,0.04195866434993835,0.03395182869088052
0.3979999999999999,-0.0083,0.803,0.009403343868147097,1.2243112116064752,0.041730264782866205,0.03249721155072218
0.399,-0.0046999999999992005,-0.197,0.009407178826572032,1.230752932110222,0.04176711265358522,0.03294540483506333
0.3999999999999999,-0.0011,-0.197,0.0094265655363042,1.2515520180811888,0.041953388199425165,0.03439253540323986
0.4009999999999998,0.0,-0.197,0.00943332720440519,1.2465259584384418,0.04201835711027705,0.03404283904847454
0.4019999999999999,0.0008,-2.197,0.009441283499131776,1.2350937774622899,0.04209480448910167,0.03324742628011496
0.4029999999999998,-0.0018,-1.197,0.009441303170467983,1.2350937774622899,0.04209499349945671,0.03324742628011496
0.4039999999999999,0.0105,-1.197,0.009451552964836558,1.2350937774622899,0.042193477773845224,0.03324742628011496
0.4049999999999998,0.0015,-0.197,0.009666321054323362,1.2367868862878015,0.04425705863160026,0.03336522710751995
0.4059999999999999,0.0094,1.803,0.009802271901498854,1.2431639630901745,0.04556333074352015,0.03380892270016307
0.4069999999999998,0.0018,0.803,0.009974853637862604,1.2333983444770236,0.047221567627823396,0.03312946374547769
0.4079999999999999,-0.0073,0.803,0.009979683175459213,1.2235547855291382,0.04726797182762787,0.032444581963988986
0.4089999999999998,-0.0038,0.8029999999999445,0.009948567714896682,1.2218433411136835,0.04696900158046265,0.03232550540779817
0.4099999999999999,-0.0027,-0.19700000000005552,0.009910564220122278,1.2218433411136835,0.04660384824445427,0.03232550540779817
0.4109999999999998,0.0038,-1.1969999999998335,0.009853352037176305,1.2317005777344003,0.046054129867577134,0.033011338835839205
0.4119999999999999,-0.0024,1.802999999999889,0.009963483090703792,1.241479551244668,0.04711231469590417,0.03369172697942641
0.4129999999999998,-0.0016,-0.1969999999999445,0.010064174914738776,1.241479551244668,0.04807980349327413,0.03369172697942641
0.4139999999999999,-0.0024,0.8029999999999445,0.009987147378268186,1.2528534639348192,0.047339690983261296,0.034483085636083946
0.4149999999999998,-0.006,-0.19700000000011103,0.01017155280871569,1.2511820967093754,0.049111534823036804,0.03436679751621347
0.4159999999999999,-0.0019,-2.196999999999889,0.010161286751593546,1.2511820967093754,0.049012894289368614,0.03436679751621347
0.4169999999999998,-0.0059,-0.197,0.010172706027808653,1.257486173346913,0.04912261543026631,0.03480541400248804
0.4179999999999999,-0.0034,-0.197,0.010176817950277067,1.2558209717914635,0.04916212448635871,0.03468955486923431
0.4189999999999998,0.0046,-2.197,0.010163197796948959,1.2558209717914635,0.04903125640556173,0.03468955486923431
0.41999999999999993,0.0079,-0.197,0.010180173958701999,1.2495084938321397,0.049194370406880246,0.034250353847197594
0.4209999999999998,0.0014,-2.197,0.010203883094771217,1.2381038527618955,0.04942217761726825,0.03345685721302484
0.42199999999999993,0.0057,0.803,0.01002205366209342,1.2235547855291378,0.04767508503220609,0.03244458196398896
0.4229999999999998,-0.0066,1.803,0.010001370611820076,1.2235547855291375,0.04747635370891665,0.032444581963988944
0.42399999999999993,0.0025,0.803,0.010014271910100278,1.2286748154387601,0.04760031473233884,0.03280081645441489
0.4249999999999998,-0.0055,-0.197,0.010050799650927122,1.223933057004461,0.0479512884124951,0.0324709008231818
0.42599999999999993,-0.0098,-0.197,0.010063175012864153,1.2354685159740393,0.048070196021451676,0.033273499327564376
0.4269999999999998,-0.0087,-1.197,0.010056709298643263,1.2337735979488653,0.0480080707581976,0.03315557262212134
0.42799999999999994,0.0001,-1.197,0.009891225818277793,1.2384776804855524,0.04641803686083014,0.03348286689089679
0.4289999999999998,0.0033,-0.197,0.009894359773463741,1.2269705127369854,0.04644814920175676,0.03268223679468337
0.42999999999999994,-0.0032,1.803,0.00995580039100413,1.2333983444770191,0.04703849613154487,0.033129463745477386
0.4309999999999998,-0.0025,-1.197,0.01001866805697623,1.2350937774622857,0.04764255473439303,0.03324742628011467
0.43199999999999994,-0.0079,-1.197,0.00984351091005632,1.24652595843844,0.045959572237567664,0.034042839048474424
0.43299999999999983,-0.0087,-1.197,0.00988889891916377,1.252853463934815,0.0463956790492898,0.034483085636083655
0.43399999999999994,-0.0021,-0.197,0.009826964167679404,1.2320763482951365,0.04580058427567444,0.03303748368979198
0.43499999999999983,0.0033,-1.197,0.009813081885044525,1.22564158341486,0.04566719754780563,0.03258977435437814
0.43599999999999994,0.0117,-2.197,0.009703044737729009,1.2061313277988863,0.044609915009301594,0.031232316275007506
0.43699999999999983,0.0063,-1.197,0.009704771732448492,1.2043951249197657,0.04462650869066778,0.03111151710804225
0.43799999999999994,0.0038,-0.197,0.009136040636408339,1.1894338064381325,0.03916190449456531,0.03007055880125808
0.43899999999999983,0.0081,-0.197,0.008362326047124856,1.1876731944985952,0.03172773389861513,0.02994806133382334
0.43999999999999995,0.0089,0.803,0.007951169246050027,1.1788306927177732,0.027777168866997874,0.029332829748933257
0.44099999999999984,-0.0024,1.803,0.007793423647369502,1.1734932096911534,0.02626148374538561,0.028961465600733347
0.44199999999999995,-0.0009,1.803,0.0077985615638600314,1.1935371063729128,0.026310850977472724,0.030356052633742168
0.44299999999999984,-0.0086,-1.197,0.00779305689255904,1.1917825562247584,0.02625795981309117,0.030233976925399163
0.44399999999999995,-0.0097,-1.197,0.007837748585992609,1.1865033385622645,0.02668737613509014,0.029866666685607064
0.44499999999999984,-0.0086,-0.197,0.007807248564749184,1.2080645042730898,0.026394319284095896,0.031366820203372656
0.44599999999999995,-0.0011,-2.197,0.007785663581630478,1.20806450427309,0.026186921816040175,0.03136682020337267
0.44699999999999984,0.0036,-0.197,0.007707347917112955,1.2080645042730898,0.025434432437627854,0.031366820203372656
0.44799999999999995,0.0029,-1.197,0.007752246747355378,1.2080645042730898,0.02586583901597594,0.031366820203372656
0.44899999999999984,-0.0094,-2.197,0.007746053851333282,1.2080645042730898,0.02580633510310042,0.031366820203372656
0.44999999999999996,-0.004,-1.197,0.007910052942319586,1.2097954411601957,0.02738210637180818,0.031487252980294284
0.45099999999999985,0.004,-0.197,0.007909390724037074,1.2115239050135986,0.027375743503959833,0.03160751369183417
0.45199999999999996,0.0054,-1.197,0.007911442569664662,1.213249906402966,0.027395458487551094,0.03172760307339427
0.45299999999999985,0.0044,-0.197,0.007995654756104266,1.1917825562247581,0.02820460409359394,0.030233976925399145
0.45399999999999996,0.0232,0.803,0.008017653654516623,1.1917825562247581,0.028415978631421764,0.030233976925399145
0.45499999999999985,0.0207,-1.197,0.007963069388306996,1.1917825562247581,0.027891510368217735,0.030233976925399145
0.45599999999999996,0.0185,0.803,0.007986553647849275,1.2036261825236405,0.02811715687168945,0.03105801667787176
0.45699999999999985,0.0072,0.803,0.008146247945323681,1.1935371063729128,0.029651565899344704,0.030356052633742168
0.45799999999999996,0.0014,-0.197,0.008177820503543105,1.1935371063729128,0.029954928130333697,0.030356052633742168
0.45899999999999985,-0.0005,-0.197,0.008150717909320634,1.2036261825236405,0.029694515166905862,0.03105801667787176
0.45999999999999996,-0.0019,1.803,0.008142082810639334,1.2018863608049748,0.029611545558217076,0.03093696572420134
0.46099999999999985,-0.0186,1.803,0.008156868146428247,1.2018863608049748,0.029753609195242437,0.03093696572420134
0.46199999999999997,-0.0165,1.803,0.008148010229722757,1.2394194198713433,0.02966849865858535,0.033548389955436075
0.46299999999999986,-0.0107,1.803,0.008158622330647524,1.2279210774391844,0.029770464124596815,0.032748373895107014
0.46399999999999997,-0.0198,-0.197,0.008164554671701931,1.2343439591345686,0.029827464517303205,0.03319525643841427
0.46499999999999986,-0.0049,0.803,0.008189297995400805,1.2326474948194215,0.03006520863126465,0.03307722214730662
0.46599999999999997,0.0049,-1.197,0.00816999607041821,1.2326474948194213,0.029879747732454755,0.03307722214730661
0.46699999999999986,0.003,-0.197,0.008192812766175164,1.2115239050136046,0.030098980006270572,0.031607513691834586
0.46799999999999997,0.0016,-1.197,0.00818233093255883,1.2180332546576906,0.029998266202574102,0.03206041238469325
0.46899999999999986,-0.006,-0.197,0.008175295074056807,1.2180332546576906,0.029930662756655565,0.03206041238469325
0.47,0.0088,-0.19700000000005552,0.008165568702506886,1.1966517184990877,0.029837207745746865,0.030572756888058567
0.47099999999999986,-0.0009,-1.1969999999999446,0.008158215780479408,1.203241527050747,0.029766557822004817,0.031031253641562496
0.472,0.0009,-0.196999999999889,0.008362001519010065,1.1815923570987699,0.03172461569792206,0.029524977084174973
0.47299999999999986,-0.0072,1.8029999999999444,0.008355221814619458,1.1865033385622703,0.03165947348692077,0.029866666685607463
0.474,-0.0086,0.8030000000000556,0.008367441868404163,1.1762674055893954,0.03177688883075099,0.02915448483686996
0.47499999999999987,-0.005,1.802999999999889,0.008370202144573274,1.1744870567548202,0.03180341070873718,0.029030614142545822
0.476,0.0012,-0.19700000000005552,0.008386615033221932,1.1762674055893951,0.031961112548506615,0.029154484836869946
0.47699999999999987,0.0022,-1.1969999999999446,0.008374476076023955,1.1762674055893954,0.03184447641430851,0.02915448483686996
0.478,-0.0025,-0.19700000000005552,0.008363766339414984,1.1695256185391638,0.031741572824158404,0.02868541392970869
0.47899999999999987,0.0113,-1.196999999999889,0.008500727096288473,1.1695256185391638,0.03305754856721748,0.02868541392970869
0.48,0.0212,0.803,0.008494365035147482,1.1713135085820618,0.032996419245735,0.028809809315988054
0.48099999999999987,0.0085,1.803,0.008490471880599756,1.1591397713183715,0.032959012202537066,0.027962801550943606
0.482,-0.0096,-1.197,0.008523469189971869,1.154112358215967,0.033276064033376664,0.027613011026999597
0.4829999999999999,-0.0074,-0.197,0.008590351640622418,1.154112358215967,0.033918698352152866,0.027613011026999597
0.484,-0.0009,-0.197,0.008563232731091969,1.154112358215967,0.0336581286244808,0.027613011026999597
0.4849999999999999,0.009,0.803,0.008561243638588865,1.154112358215967,0.03363901659893029,0.027613011026999597
0.486,0.0036,-0.197,0.008572547363773813,1.1472403838578151,0.03374762747761678,0.027134882124061826
0.4869999999999999,0.0021,-1.197,0.008542012779277604,1.1245135945327829,0.03345423852855807,0.02555362842884315
0.488,0.0007,-0.197,0.0085267750585568,1.1245135945327827,0.03330782818952491,0.025553628428843133
0.4889999999999999,-0.0004,-2.197,0.008519143353478139,1.1370581120698506,0.033234499602629204,0.026426433840401022
0.49,0.0033,-1.197,0.008489049156807187,1.1388969721582631,0.03294534208240315,0.026554375551313517
0.4909999999999999,0.0135,-2.197,0.00844395588688159,1.1370581120698506,0.03251206724695437,0.026426433840401022
0.492,-0.0043,-0.197,0.008449546699670947,1.1245135945327827,0.03256578609447486,0.025553628428843133
0.4929999999999999,-0.0111,-1.197,0.008496850054322309,1.1348084298327246,0.03302029634038431,0.026269908503731263
0.494,-0.004599999999999578,-2.197,0.008467997677188744,1.1296727394932689,0.032743070737196116,0.02591258441317798
0.4949999999999999,-0.0027,-1.197,0.008429580805194046,1.1226511752639967,0.03237394550144756,0.025424047549261055
0.496,-0.004500000000001043,-1.197,0.008389649441678436,1.1226511752639967,0.031990268403179506,0.025424047549261055
0.4969999999999999,-0.0092,-0.197,0.008608119386598409,1.1065852087792607,0.034089418222917285,0.02430623154331662
0.498,-0.007700000000001999,0.803,0.008604515383263024,1.1137080682663807,0.034054789464464594,0.024801816191172103
0.4989999999999999,-0.0167,0.803,0.008612464623348446,1.1065852087792607,0.034131169059371705,0.02430623154331662
0.5,-0.00039999999999951153,0.803,0.0085761993201447,1.0830056095071035,0.033782716988718396,0.02266564219531722
0.5009999999999999,0.0018,0.803,0.00859965640591217,1.0756794658220727,0.034008102395294094,0.022155913715505154
0.502,0.0115999999999988,-0.197,0.008611983657979218,1.0830056095071035,0.034126547744671026,0.02266564219531722
0.5029999999999999,0.0062,-1.197,0.008596332079018562,1.0776230677554495,0.033976160884062315,0.022291143012315728
0.504,0.004800000000000333,-1.197,0.008653996115555665,1.0776230677554495,0.034530220857604904,0.022291143012315728
0.5049999999999999,0.0063,1.803,0.00834222096253082,1.0776230677554495,0.03153455590922696,0.022291143012315728
0.506,0.01859999999999751,0.803,0.00814922694357266,1.0834329536528255,0.029680189349767756,0.02269537536615314
0.5069999999999999,0.0074,0.803,0.007966373128195958,1.0814997929234564,0.027923254070972438,0.0225608725332607
0.508,0.002999999999999201,1.803,0.007935791786554779,1.0795631705120698,0.027629415859876924,0.022426128848156205
0.5089999999999999,-0.0006,-0.197,0.007942724151348661,1.0814997929234564,0.02769602489533379,0.0225608725332607
0.51,0.005599999999998779,-0.197,0.007961576161716373,1.0814997929234564,0.027877162827966,0.0225608725332607
0.5109999999999999,0.0001,-3.197,0.007959540248130784,1.0814997929234564,0.02785760092604052,0.0225608725332607
0.512,0.0047999999999981564,-0.197,0.007754692266452403,1.0702600801328959,0.02588933657749895,0.02177885105503567
0.5129999999999999,-0.0035,-1.197,0.007580642487922791,1.0810716846058113,0.024216994135339825,0.022531086193908107
0.514,-0.006799999999998956,-0.197,0.0075346053713639,1.069827474076564,0.0237746504300707,0.021748751778126584
0.5149999999999999,-0.0021,-0.197,0.007274844756045401,1.0830056095071008,0.021278762727894807,0.022665642195317037
0.516,-0.006399999999999512,-0.197,0.0072748447560454,1.0810716846058084,0.0212787627278948,0.022531086193907906
0.5169999999999999,-0.0042,-1.197,0.007259473327122893,1.0737323457099752,0.02113106766501733,0.022020439635631602
0.518,-0.0002000000000004663,-0.197,0.0072582819555606195,1.086863135890923,0.021119620473042694,0.02293403592931905
0.5189999999999999,-0.0023,-0.197,0.0072604765252655,1.0795631705120627,0.021140706808749368,0.02242612884815571
0.52,0.00710000000000251,-1.197,0.007245619023851476,1.08149979292345,0.020997949774474355,0.02256087253326025
0.5209999999999999,0.0184,-0.197,0.007198645636368453,1.0945374036679945,0.020546609989939776,0.02346798571461608
0.522,0.004599999999997202,-1.197,0.007198260008389284,1.0892118499002335,0.020542904716414602,0.02309745156419464
0.5229999999999999,-0.008,0.803,0.007200468554776453,1.09113134724033,0.020564125345880164,0.023231003744336814
0.524,-0.003300000000000955,-0.197,0.007188636318480877,1.0911313472403275,0.02045043631329469,0.023231003744336644
0.5249999999999999,-0.0076,0.803,0.0071377322934772156,1.0892118499002312,0.019961329333616065,0.023097451564194484
0.526,-0.008699999999999755,-0.197,0.007138439525136805,1.0780525455633783,0.01996812470865625,0.02232102463620414
0.5269999999999999,-0.0076,-0.197,0.007148637293552892,1.0780525455633783,0.020066109096120617,0.02232102463620414
0.528,-0.015199999999996692,-1.197,0.00716343596989791,1.078052545563379,0.020208300914740712,0.022321024636204185
0.5289999999999999,-0.0003,0.803,0.007270882867318943,1.078052545563379,0.021240695258206873,0.022321024636204185
0.5299999999999998,0.0019,-0.197,0.0071850270963254685,1.070692511397689,0.020415757410255215,0.02180893817053637
0.5309999999999999,-0.0079,0.803,0.006869636035333647,1.0706925113976888,0.01738534931878796,0.021808938170536356
0.5319999999999998,-0.0133,-1.197,0.006825795670872229,1.0648131127389777,0.016964112918558476,0.021399869352156858
0.5329999999999999,-0.0054,-1.197,0.0067736001141272695,1.0573609260930146,0.01646259636637355,0.020881371226316912
0.5339999999999998,-0.001,-0.197,0.006734142242591663,1.070692511397689,0.01608346877538365,0.02180893817053637
0.5349999999999999,0.0055,-0.197,0.006742642143343478,1.072645149586058,0.016165139346305875,0.02194479617962975
0.5359999999999998,0.0092,-0.197,0.006714781198259409,1.070692511397689,0.015897439833348292,0.02180893817053637
0.5369999999999999,0.0037,-1.197,0.006711814921904282,1.070692511397689,0.015868938620156522,0.02180893817053637
0.5379999999999998,0.0012,1.803,0.00670889047425333,1.070692511397689,0.015840839314498815,0.02180893817053637
0.5389999999999999,0.0038,0.803,0.006833354551822992,1.0780525455633803,0.017036741781036674,0.02232102463620428
0.5399999999999998,-0.0017,-0.197,0.006852256824805062,1.0613116667421925,0.017218362657709124,0.021156250495932102
0.5409999999999999,-0.0039,-0.197,0.006875109719202739,1.0538347199302636,0.017437942743074836,0.020636029640877414
0.5419999999999998,-0.009,-2.197,0.006747471310349484,1.0290471042985885,0.016211539985322165,0.01891139057054138
0.5429999999999999,-0.005,0.803,0.0067847057055928275,1.0367028406915377,0.016569303494127652,0.019444051004350982
0.5439999999999998,-0.0054,-0.197,0.006696938773799427,1.0367028406915377,0.015726002420744113,0.019444051004350982
0.5449999999999999,0.0026,-0.197,0.006682596725675329,1.0135621681969602,0.015588198075412315,0.017834000707823053
0.5459999999999998,0.0193,-1.197,0.006716951907615564,1.0135621681969604,0.015918296908930676,0.01783400070782307
0.5469999999999999,0.0026,-1.197,0.0067852090804449835,1.0057302977277407,0.016574140128432432,0.0172890854563631
0.5479999999999998,0.0047,-0.197,0.006850973118562929,1.0135621681969604,0.017206028275843662,0.01783400070782307
0.5489999999999999,-0.0051,-0.197,0.006807766175607494,1.0135621681969602,0.016790878052092992,0.017834000707823053
0.5499999999999998,0.0075,-0.197,0.006752907732616874,1.0254235377479541,0.016263775384689302,0.018659274976203982
0.5509999999999999,0.0061,-1.197,0.006811165135548035,1.0254235377479541,0.016823536668586422,0.018659274976203982
0.5519999999999998,-0.0015,0.803,0.0068217126988005606,1.0310786128286809,0.016924882029882335,0.019052736113201848
0.5529999999999999,0.0109,-0.197,0.00672774645207007,1.0310786128286809,0.016022015368026405,0.019052736113201848
0.5539999999999998,0.0029,0.803,0.006701007689668375,1.0233808034158758,0.015765098251596082,0.018517148379932364
0.5549999999999999,0.0105,1.803,0.006698924819630255,1.0407320048084987,0.01574508517260411,0.01972438671554489
0.5559999999999998,0.0069,-0.197,0.00677812608463152,1.0290471042985885,0.016506083767680015,0.01891139057054138
0.5569999999999999,-0.0018,-0.197,0.006588223104985955,1.0270115772949706,0.014681417195641101,0.01876976543598518
0.5579999999999998,0.0036,0.803,0.006657427831282982,1.0249720078765552,0.015346364901764347,0.018627859043779914
0.5589999999999999,-0.0055,-0.197,0.006650686826994102,1.0110377297587285,0.015281594537387509,0.017658358757184245
0.5599999999999998,0.0006,1.803,0.006653419205219445,1.0249720078765552,0.015307848360362043,0.018627859043779914
0.5609999999999999,-0.0049,0.803,0.006704763276036644,1.0387193763790632,0.015801183482682904,0.019584354786897507
0.5619999999999998,-0.0023,-2.197,0.006857612695933599,0.9877644429391739,0.017269824088333482,0.0160390816011818
0.563,-0.0067,0.8030000000001111,0.007014146684170921,0.9957376319932525,0.01877386755441105,0.016593829325293994
0.5639999999999998,-0.0027,1.802999999999778,0.007018591467849431,0.9957376319932525,0.018816574879031545,0.016593829325293994
0.565,-0.0049,-0.197,0.006985596861049631,1.0036474823363646,0.018499549015627354,0.01714417015455915
0.5659999999999998,-0.0013,-0.19699999999977796,0.006983313938460369,1.0558185354964666,0.01847761374877186,0.020774056867241316
0.567,-0.0027,1.802999999999778,0.006953940873998839,1.0632815323001228,0.018195385165832672,0.021293307127558045
0.5679999999999998,-0.0024,-0.196999999999889,0.00694910437592371,1.0632815323001228,0.018148914086864403,0.021293307127558045
0.569,-0.0038,0.8030000000001111,0.006958403719341332,1.070692511397689,0.018238266034410013,0.02180893817053637
0.5699999999999998,0.0031,1.802999999999889,0.006961067320904065,1.070692511397689,0.018263859022691818,0.02180893817053637
0.571,0.0005,0.803,0.0071255832217831305,1.0872889638893994,0.019844596015145363,0.02296366361172013
0.5719999999999998,-0.002,0.8030000000001111,0.007130684658927614,1.0872889638893994,0.01989361273854944,0.02296366361172013
0.573,-0.0059,1.802999999999778,0.007180262900670305,1.079991876804215,0.0203699810429183,0.02245595679256678
0.5739999999999998,0.001,-0.196999999999889,0.00718251825226487,1.0853626711971798,0.020391651396224387,0.022829638633792865
0.575,-0.0051,0.802999999999889,0.007206139847900903,1.0926238900284355,0.020618617481831546,0.023334849860266814
0.5759999999999998,0.004,-0.19700000000011103,0.007169664706205363,1.0907070193656334,0.020268149195939177,0.023201480435511616
0.577,0.0051,-1.197,0.007117889189113938,1.0926238900284355,0.01977066855891559,0.023334849860266814
0.5779999999999998,0.0127,-0.197,0.007092139993532903,1.1055303211561787,0.019523259610823802,0.024232836004325915
0.579,0.0019,-0.197,0.007002094206246646,1.1947000748305507,0.01865806234893346,0.030436968074315965
0.5799999999999998,-0.0025,0.803,0.0070118086714939815,1.1947000748305505,0.01875140295914995,0.030436968074315948
0.581,-0.0035,-1.197,0.007035707903307754,1.2065150619594172,0.018981036688275155,0.03125901520949592
0.5819999999999999,-0.0046,-0.197,0.007086787597079288,1.2065150619594172,0.019471831566316863,0.03125901520949592
0.583,-0.0012,1.803,0.007081282580522331,1.211707094820013,0.019418937084572832,0.03162025942349808
0.5839999999999999,0.0035,0.803,0.007715330085883303,1.2051635767000937,0.025511128424993677,0.031164983402812825
0.585,-0.0066,-0.197,0.0077581592372709595,1.2068986741114471,0.025922648670709186,0.03128570565504249
0.5859999999999999,-0.003,-0.197,0.007756766586163883,1.2086312806391268,0.025909267501407166,0.03140625459994937
0.587,0.0007,-1.197,0.0077414068309228255,1.2103614069800732,0.025761684604101574,0.031526630981790656
0.5879999999999999,0.013,-1.197,0.0077528152995405,1.205547618902545,0.025871301901121753,0.0311917037698238
0.589,0.0051,-1.197,0.007790049333866775,1.2379092238950975,0.026229061942086386,0.033443315589946496
0.5899999999999999,0.0065,-0.197,0.007803117380229067,1.2362176522106276,0.026354625150223687,0.03332562171165419
0.591,0.0029,-0.197,0.007801372512269096,1.2569263135531625,0.02633785973535172,0.034766460837788386
0.5919999999999999,-0.0083,-1.197,0.007828587728360613,1.2569263135531625,0.026599354816396203,0.034766460837788386
0.593,0.0022,-1.197,0.007781747339734863,1.2362176522106276,0.026149292940030516,0.03332562171165419
0.5939999999999999,-0.0014,0.803,0.007823550146220335,1.2345237626995074,0.02655095163835012,0.03320776656676574
0.595,0.0073,-1.197,0.007820259208426848,1.2345237626995074,0.026519330943437162,0.03320776656676574
0.5959999999999999,0.0106,-0.197,0.00787104470885793,1.2345237626995074,0.027007299089876015,0.03320776656676574
0.597,0.0132,-1.197,0.007651959551696938,1.2345237626995074,0.024902238055827686,0.03320776656676574
0.5979999999999999,-0.0005,0.803,0.007760647495402178,1.2281018213638297,0.025946556886594543,0.03276094945052957
0.599,-0.0143,1.803,0.007763173533107492,1.2345237626995074,0.025970828104293173,0.03320776656676574
0.5999999999999999,-0.0089,0.803,0.007838836101585225,1.2459611737949792,0.026697825435844244,0.03400354322926728
0.601,-0.0042,-1.197,0.00782153304678571,1.2572945448618538,0.026531570510588413,0.03479208113589719
0.6019999999999999,-0.0027,-0.197,0.007810090785271721,1.2526611267514407,0.026421628517408167,0.03446970346064352
0.603,-0.0016,-0.197,0.007852659111840762,1.2622777275392272,0.02683064265011495,0.03513879425537278
0.6039999999999999,0.0045,-2.197,0.007784497454407538,1.2622777275392272,0.026175717182145463,0.03513879425537278
0.605,0.0121,0.803,0.007789875471779238,1.2606188553540634,0.026227391403057115,0.035023375498452435
0.6059999999999999,0.0096,-0.197,0.007891028747309313,1.2493156416772249,0.027199314017733577,0.03423693584176671
0.607,0.0121,-0.197,0.00787795776417298,1.2493156416772249,0.027073722591853554,0.03423693584176671
0.6079999999999999,-0.0002,-0.197,0.007904337417380308,1.2493156416772246,0.02732718923823914,0.034236935841766694
0.609,-0.002,1.803,0.00789613340523381,1.2493156416772249,0.027248361687727523,0.03423693584176671
0.6099999999999999,-0.01,1.803,0.00788611952873881,1.2493156416772249,0.02715214421009208,0.03423693584176671
0.611,-0.0144,0.803,0.007887516441483784,1.2395984872417234,0.027165566326978113,0.03356084886184195
0.6119999999999999,-0.0155,-1.197,0.007872925107471198,1.2442805486051591,0.02702536673946289,0.03388661097131945
0.613,-0.0043,-1.197,0.00787140205959035,1.2298045562627269,0.027010732663889217,0.03287942002780083
0.6139999999999999,0.0001,-1.197,0.007843485604277927,1.2345237626995067,0.026742499785640195,0.03320776656676569
0.615,0.0011,-3.197,0.007838899729426724,1.2294280913365923,0.026698436798528763,0.032853226862234984
0.6159999999999999,0.0,-1.197,0.007877508102884932,1.2358431408557193,0.027069402059745146,0.03329956446901509
0.617,0.0033,-1.197,0.007889849200949104,1.2358431408557198,0.027187980447203716,0.03329956446901512
0.6179999999999999,0.0036,-1.197,0.007977557861395526,1.230752932110226,0.028030721625323166,0.032945404835063606
0.619,-0.0030000000000030645,-0.197,0.007993603979237686,1.2307529321102262,0.02818489937910161,0.03294540483506363
0.6199999999999999,-0.0168,-2.197,0.007993620329025331,1.235468515974043,0.028185056474640775,0.03327349932756464
0.621,-0.018599999999998,-0.197,0.008007924536777468,1.223933057004465,0.02832249723398819,0.032470900823182075
0.6219999999999999,-0.0096,-0.197,0.008008393882875848,1.2222221422723811,0.02832700690591661,0.03235186112058176
0.623,-0.008199999999999668,-1.197,0.008033045149563456,1.2205088291747341,0.028563866497942215,0.03223265454775817
0.6239999999999999,-0.0067,-1.197,0.008076011793236996,1.2105604648781825,0.028976707826551915,0.03154048076199701
0.625,0.0022999999999992007,-0.197,0.00810230245651078,1.2122878379714483,0.029229319420756163,0.03166066558210882
0.6259999999999999,-0.0013,0.803,0.008092970221395794,1.2105604648781836,0.029139651436143686,0.031540480761997086
0.627,-0.0045999999999967135,1.803,0.008084285842440475,1.2122878379714486,0.029056208322147985,0.03166066558210883
0.6279999999999999,0.0102,4.803,0.008068477319330422,1.2122878379714486,0.028904313477074704,0.03166066558210883
0.629,0.003699999999997824,0.803,0.008012045828758566,1.2187931075970535,0.028362096316243545,0.032113280400980396
0.6299999999999999,-0.0061,1.803,0.008012045828758566,1.220508829174738,0.028362096316243545,0.03223265454775843
0.631,-0.011599999999994537,0.803,0.008012375039090879,1.2252638394071198,0.02836525950562405,0.032563492194608745
0.6319999999999999,0.013,1.803,0.008005787246230914,1.2187931075970535,0.028301961260185624,0.032113280400980396
0.633,0.031099999999994913,-0.197,0.007993079418727251,1.2187931075970535,0.028179859184207415,0.032113280400980396
0.6339999999999999,0.0082,0.803,0.007993079418727251,1.2088306234368307,0.028179859184207415,0.03142012420251295
0.635,0.005300000000000555,0.803,0.007986810792079293,1.2187931075970535,0.028119627620076776,0.032113280400980396
0.6359999999999999,0.0078,0.803,0.00796478335443114,1.2187931075970535,0.027907978865437583,0.032113280400980396
0.637,0.005600000000000467,0.803,0.007975471927560556,1.2303767573637339,0.028010679108100643,0.032919231859223005
0.6379999999999999,0.0077,-3.197,0.007977198148456637,1.2239330570044682,0.02802726535425072,0.03247090082318229
0.639,0.005899999999998779,-0.197,0.007870839797250175,1.2174552521533224,0.02700533021418175,0.032020196911103624
0.6399999999999999,0.0004,-2.197,0.007855532799160616,1.2174552521533213,0.026858254229463606,0.03202019691110354
0.641,-0.007599999999997691,-0.197,0.007832902490489388,1.2174552521533215,0.026640812840053173,0.03202019691110356
0.6419999999999999,0.0028,-0.197,0.00783448627433627,1.223933057004464,0.02665603049197278,0.032470900823182
0.643,-0.009499999999998978,-0.197,0.007794757858188181,1.2290515110972788,0.026274303396164347,0.03282702567356533
0.6439999999999999,-0.0049,-0.197,0.007801917198702182,1.222600826066264,0.02634309330845599,0.0323782086675156
0.645,-0.0092999999999992,-0.197,0.0078007675188421916,1.2208880443883887,0.02633204670764443,0.03225903906909546
0.6459999999999999,-0.0057,-1.197,0.007771938146517206,1.2161159249287532,0.026055042144196062,0.03192701101965769
0.647,0.013199999999998201,-0.197,0.007699289446838761,1.2178354182042512,0.025357003313774537,0.032046647588505985
0.6479999999999999,0.0051,-1.197,0.007613046725307261,1.2130512898338375,0.024528347484603807,0.03171378399937662
0.649,0.011999999999998534,1.803,0.007716421728038389,1.2130512898338368,0.02552161737547108,0.03171378399937657
0.6499999999999999,0.0054,1.803,0.0075913261220515145,1.201300589291757,0.024319646922036274,0.030896209709060686
0.651,-0.0043999999999971805,0.803,0.007556918501237994,1.2061313277988872,0.023989044234079514,0.03123231627500757
0.6519999999999999,0.0083,1.803,0.007545306578763148,1.199557394569061,0.023877472068037135,0.03077492407309482
0.653,0.0034999999999983126,-0.197,0.007545670807039909,1.2061313277988888,0.023880971724348145,0.031232316275007676
0.6539999999999999,-0.0041,-0.197,0.007545678099826597,1.2273477314775454,0.023881041796466607,0.03270848240812597
0.655,-0.016399999999997514,-0.197,0.00754231854829688,1.2178354182042428,0.023848761832325142,0.032046647588505395
0.6559999999999999,-0.0052,-0.197,0.007446535735421416,1.2178354182042428,0.02292844084970596,0.032046647588505395
0.657,-0.006699999999998534,-0.197,0.007394655512717925,1.229428091336584,0.02242995415774528,0.032853226862234415
0.6579999999999999,-0.0001,0.803,0.007313480213908568,1.2409124697988692,0.021649988227304632,0.03365227135642419
0.6589999999999998,-0.0038,-0.197,0.007324393305273953,1.252291533005451,0.021754845734275774,0.03444398836872192
0.6599999999999999,0.0016,0.803,0.007431025694291879,1.252291533005451,0.02277941394326755,0.03444398836872192
0.6609999999999998,-0.001,-1.197,0.007368051046413525,1.252291533005451,0.022174327413903887,0.03444398836872192
0.6619999999999999,-0.0017,-1.197,0.007255160089771577,1.2619109503465564,0.02108962429205444,0.035113275129774434
0.6629999999999998,-0.001,-1.197,0.00712724512509464,1.2572945448618482,0.01986056427127348,0.0347920811358968
0.6639999999999999,-0.0003,-1.197,0.007142986129598071,1.2622777275392218,0.020011810369577623,0.035138794255372405
0.6649999999999998,0.0092,-1.197,0.00717816154855521,1.2576626683560241,0.02034979038046712,0.03481769393263362
0.6659999999999999,-0.0046,-0.197,0.007299473128672282,1.2141955675584617,0.021515402344291883,0.031793399001502125
0.6669999999999998,0.0121,-1.197,0.007320909462268264,1.207665532855029,0.021721371526095486,0.03133906111166495
0.6679999999999999,0.0056,-0.197,0.00734139508141686,1.207665532855029,0.021918205849273186,0.03133906111166495
0.6689999999999998,0.0038,-1.197,0.007366832001277954,1.207665532855029,0.022162614322762106,0.03133906111166495
0.6699999999999999,0.0057,-0.197,0.007372128315664293,1.2093970407659462,0.022213503507512125,0.03145953361850614
0.6709999999999998,0.001,-0.197,0.007186729025292603,1.1878600625276705,0.020432110249479284,0.029961062983870232
0.6719999999999999,-0.0066,-0.197,0.007179111587735817,1.1878600625276703,0.020358918750849806,0.029961062983870218
0.6729999999999998,-0.0102,0.803,0.007296802760914823,1.18962039790668,0.021489744343605535,0.03008354120915201
0.6739999999999999,-0.0066,0.803,0.007323419065193504,1.1847223375333398,0.02174548483161245,0.029742750613789844
0.6749999999999998,-0.0033,-0.197,0.007394093374744039,1.1900094562450672,0.02242455290300068,0.030110610582059553
0.6759999999999999,0.0014,0.803,0.007391060051444841,1.1917666168004903,0.02239540747496915,0.030232867913775784
0.6769999999999998,0.0007,-1.197,0.007393503398207156,1.1917666168004903,0.0224188841637995,0.030232867913775784
0.6779999999999999,0.0084,-1.197,0.007380168831361856,1.1815762802090606,0.02229076011634828,0.029523858508167737
0.6789999999999998,0.0019,0.803,0.007377384173157396,1.0840648924836775,0.02226400396565641,0.022739343548246343
0.6799999999999999,0.0026,-1.197,0.007418091007999328,1.0894156071861805,0.022655132113978307,0.023111628312028377
0.6809999999999998,-0.0013,-0.197,0.007545579147081296,1.100038959906061,0.02388009101745883,0.023850765525986712
0.6819999999999999,0.0009,-0.197,0.0074833109990899436,1.1053123483325404,0.023281792831960895,0.024217670187108804
0.6829999999999998,-0.0012,0.803,0.007389242902738224,1.1405216230038613,0.02237794755671207,0.026667413302326266
0.6839999999999999,-0.0015,1.803,0.0067130297410442534,1.1474338366860006,0.015880611106180262,0.027148341922322107
0.6849999999999998,-0.0029,-0.197,0.006777175868697407,1.152490383316556,0.01649695369897635,0.027500159459337974
0.6859999999999999,0.0051,1.803,0.006772746276022864,1.1629356158466164,0.01645439233582095,0.028226903668533605
0.6869999999999998,0.0018,-0.197,0.006727661098259546,1.1629356158466164,0.016021195253222778,0.028226903668533605
0.688,-0.0007,-0.19700000000011103,0.006755502698871676,1.1629356158466164,0.016288708896472756,0.028226903668533605
0.6889999999999998,-0.0014,-1.196999999999889,0.0068092985988517,1.1228488645135473,0.016805602210045317,0.025437802103495978
0.69,0.0026,-0.19700000000011103,0.006785557417037568,1.1247109564269253,0.016577487090852366,0.025567360206787883
0.6909999999999998,0.0033,-1.196999999999667,0.006793942799733622,1.1143228380394952,0.016658057324809728,0.02484458980787366
0.692,0.0026,1.802999999999778,0.006754276524360872,1.1161991535312152,0.016276927303337532,0.024975137539990425
0.6929999999999998,0.004,-0.197,0.006748728356580942,1.1161991535312152,0.016223618206750445,0.024975137539990425
0.694,0.0004,-0.196999999999889,0.006832902237498254,1.128836071481867,0.017032395757451663,0.025854371862087746
0.6949999999999998,0.0029,0.803,0.0068155072232420144,1.1413330811877083,0.016865257247604477,0.026723871838258143
0.696,0.0,0.803,0.006755704083977641,1.1431650647132436,0.01629064388807556,0.02685133510101395
0.6969999999999998,-0.0065,0.803,0.006741799534665277,1.1362268823383124,0.01615704321273655,0.026368599666564477
0.698,-0.0126,0.802999999999889,0.006646139714389542,1.1362268823383124,0.015237903994014663,0.026368599666564477
0.6989999999999998,-0.0036,-0.19700000000011103,0.006709175550728432,1.1292460719947834,0.015843578447479058,0.02588289832118492
0.7,0.0052,-1.196999999999889,0.006614935824527256,1.1166137941028824,0.014938084081470038,0.025003986838796313
0.7009999999999998,-0.0003,-0.19700000000011103,0.0066149077481778285,1.110977441840569,0.014937814312262829,0.024611828372641094
0.702,-0.0028,-1.197000000000111,0.006601188808015636,1.1161991535312152,0.014805997046601833,0.024975137539990425
0.7029999999999998,0.0016,-2.196999999999556,0.00655867608831236,1.103417520437748,0.014397517207718804,0.024085834424142336
0.704,-0.0039,1.803,0.0065517898125517695,1.1034175204377483,0.0143313510148047,0.02408583442414235
0.7049999999999998,-0.0017,0.803,0.006541441176627155,1.1105606968741428,0.014231917029760927,0.024582832657113467
0.706,-0.0039,1.803,0.006332763971434902,1.1105606968741428,0.012226859913903815,0.024582832657113467
0.7069999999999999,0.0052,1.803,0.0063683962426710275,1.1176582207786847,0.012569229550924411,0.0250766545401983
0.708,0.004,1.803,0.006333354600976251,1.1176582207786847,0.012232534927442671,0.0250766545401983
0.7089999999999999,0.0127,1.803,0.00635719852633111,1.1157843588735095,0.012461637249177723,0.02494627752039532
0.71,0.0026,1.803,0.006383225398222295,1.122848864513547,0.012711714226396402,0.025437802103495964
0.7109999999999999,-0.0065,1.803,0.006485762290996197,1.1209836794404973,0.013696931209270881,0.025308028788539497
0.712,-0.0075,0.803,0.0066794158875224715,1.113907344683283,0.015557635263499531,0.02481568117518239
0.7129999999999999,-0.0064,1.803,0.006713830077902201,1.1067857676654362,0.015888301074572505,0.024320185757233
0.714,-0.0071,0.803,0.006738949902518161,1.1067857676654362,0.016129662765462082,0.024320185757233
0.7149999999999999,-0.0133,-0.197,0.006775124748278536,1.1015194330748694,0.016477245683491147,0.023953771878330202
0.716,-0.0056,-0.197,0.006741830779643981,1.0962277990346692,0.016157343427447728,0.02358559774866573
0.7169999999999999,-0.0064,-1.197,0.0067290988760361214,1.0981350328369466,0.016035010018277198,0.023718296673021725
0.718,-0.0071,-1.197,0.006661718815612952,1.0909104973879424,0.01538759445847089,0.02321563775311906
0.7189999999999999,-0.0041,0.803,0.0066421144284776615,1.0909104973879424,0.015199227377881435,0.02321563775311906
0.72,0.0035,-0.197,0.00665743616616382,1.0836377975498155,0.015346444986755508,0.022709627716734907
0.7209999999999999,0.0183,-0.197,0.006669827660262573,1.0836377975498155,0.015465507600211134,0.022709627716734907
0.722,0.0162,0.803,0.006679340826685775,1.0836377975498155,0.015556914047856444,0.022709627716734907
0.7229999999999999,0.0103,0.803,0.006647756173730967,1.0909104973879424,0.015253435605634776,0.02321563775311906
0.724,0.0122,1.803,0.006610632909511342,1.0889906107693499,0.01489673988978586,0.023082058488286143
0.7249999999999999,0.0009,0.803,0.0065981568110455415,1.0943172412097821,0.01477686436249029,0.02345266754997708
0.726,0.0023,0.803,0.006631345361956757,1.0962277990346692,0.015095753721336225,0.02358559774866573
0.7269999999999999,0.0012,0.803,0.00665023849222016,1.0943172412097821,0.015277286750976669,0.02345266754997708
0.728,-0.01,-0.197,0.006682557513618777,1.0870673334142624,0.01558782130971362,0.022948243307392435
0.7289999999999999,-0.0086,-1.197,0.0066363234701126,1.0817050029056943,0.01514358544867886,0.02257515035482487
0.73,-0.0151,-2.197,0.006641809794802714,1.079768748549337,0.015196300331215653,0.02244043227775356
0.7309999999999999,-0.0064,-1.197,0.006646459517140292,1.0724204927691414,0.01524097679145064,0.02192916531260208
0.732,-0.0054,-3.197,0.0066590780843612755,1.079768748549337,0.015362221217620929,0.02244043227775356
0.7329999999999999,0.0037,-1.197,0.006702861687879733,1.079768748549337,0.01578291223517443,0.02244043227775356
0.734,0.0124,-1.197,0.006731352966176731,1.0909104973879424,0.016056668251010615,0.02321563775311906
0.7349999999999999,0.0047,1.803,0.006732371773147187,1.0851406472936993,0.016066457370832857,0.02281419095604198
0.736,-0.0,0.803,0.006779647614253464,1.0851406472936993,0.01652070325519258,0.02281419095604198
0.7369999999999999,0.0083,0.803,0.006778171943439352,1.071988758557745,0.0165065243981211,0.021899126695736345
0.738,0.0115,-1.197,0.0067811474048115345,1.071988758557745,0.016535113864765316,0.021899126695736345
0.7389999999999999,-0.0016,0.803,0.006780794994811083,1.0739390399094266,0.01653172776335355,0.02203482072404618
0.74,-0.0034,1.803,0.006783606080508822,1.073939039909428,0.016558737840359054,0.022034820724046274
0.7409999999999999,-0.002,0.803,0.00677868219872691,1.0758857859498796,0.01651142714250221,0.022170268777270664
0.742,-0.0006,-0.197,0.006773297092783244,1.0758857859498836,0.016459684811651817,0.022170268777270945
0.7429999999999999,0.0143,1.803,0.006773283890615747,1.0700349225641126,0.0164595579597522,0.021763185347374408
0.744,0.0005000000000003996,1.803,0.006860206857681576,1.0773994489229053,0.017294749870081772,0.02227558436475562
0.7449999999999999,0.0023,0.803,0.0069766243685819365,1.0773994489229055,0.01841333758753797,0.022275584364755636
0.746,0.0036999999999976687,-0.197,0.007028426445666693,1.0827831022899126,0.01891107342399063,0.02265016089022111
0.7469999999999999,-0.0068,-0.197,0.007100600744417407,1.1044744260064818,0.019604554013587343,0.02415937036501616
0.748,-0.010499999999998623,-0.197,0.0071115113090810395,1.1097267374302264,0.019709387242960334,0.024524808559054756
0.7489999999999999,-0.0043,-0.197,0.007000427008557902,1.1078394598497248,0.018642043222233555,0.02439349812160618
0.75,-0.005399999999998557,-1.197,0.006999920123934206,1.1205706558423445,0.018637172864588488,0.025279291993321695
0.7509999999999999,0.0011,-1.197,0.007024028129469204,1.1134916962880108,0.01886881257819562,0.02478676175539387
0.752,0.0035999999999988008,-0.197,0.007030809917796621,1.1153694099578657,0.018933974812525886,0.02491740676805082
0.7529999999999999,-0.0018,-0.197,0.007040294213261652,1.108257228100571,0.019025103856033697,0.024422565033828045
0.754,0.0017999999999994893,-1.197,0.0073036469141216104,1.0866414185642848,0.021555505805556506,0.0229186095821555
0.7549999999999999,-0.0005,-0.197,0.0077196543008934216,1.0754554428575804,0.025552677275854245,0.022140326949800986
0.756,0.00849999999999798,-1.197,0.008067684254602492,1.0808487792643249,0.028896693382323067,0.022515577188660228
0.7569999999999999,-0.0006,-0.197,0.008355861622425107,1.0915555101631595,0.031665621025614876,0.023260515576364948
0.758,0.005499999999997247,-0.197,0.0083808728705185,1.0857890876525402,0.03190593946825419,0.022859307259048174
0.7589999999999999,-0.0069,-1.197,0.008371604889393822,1.07264514958607,0.03181688886262361,0.021944796179630584
0.76,-0.011600000000000976,-0.197,0.008320278385446314,1.0593381381767153,0.031323722530070874,0.021018939004539734
0.7609999999999999,-0.016,-0.197,0.0083168087988175,1.0478607388524024,0.03129038530307103,0.02022038009533735
0.762,-0.0069999999999997555,-0.197,0.00835265136234305,1.0342348872927705,0.03163477551560649,0.019272339093107545
0.7629999999999999,-0.0059,-1.197,0.008528674934512375,1.0458618288573764,0.03332608298549298,0.02008130264929604
0.764,-0.006999999999999845,0.803,0.008784540944516464,1.0342348872927711,0.035784549704903065,0.01927233909310759
0.7649999999999999,-0.0063,0.803,0.008784540944516464,1.045861828857377,0.035784549704903065,0.020081302649296088
0.766,-0.0020000000000012213,0.803,0.008693460846263141,1.0593381381767124,0.0349094143543623,0.021018939004539532
0.7669999999999999,-0.0075,-0.197,0.00867874049793409,1.0593381381767126,0.03476797514379847,0.021018939004539546
0.768,0.0023000000000007992,-0.197,0.008770807737268816,1.059338138176707,0.03565259535516914,0.02101893900453916
0.7689999999999999,0.0059,-0.197,0.008743160796054607,1.085789087652527,0.03538695208013025,0.022859307259047248
0.77,0.006999999999999267,-0.197,0.008744121100890699,1.085789087652526,0.03539617908718751,0.022859307259047185
0.7709999999999999,0.0037,-0.197,0.008738225523568685,1.0857890876525256,0.0353395319356661,0.022859307259047158
0.772,0.0012000000000013766,-1.197,0.008571418904323874,1.098775804611711,0.03373678477130407,0.023762879421695433
0.7729999999999999,0.0074,-0.197,0.008419275270389468,1.0987758046117104,0.032274925649837055,0.023762879421695388
0.774,0.005200000000000488,-1.197,0.008356160878829512,1.0968696849820878,0.03166849640523559,0.023630258017731835
0.7749999999999999,0.0074,0.803,0.008391108406983419,1.0857890876525227,0.03200428674679231,0.022859307259046956
0.776,0.00520000000000031,-0.197,0.008434599286556677,1.0857890876525227,0.032422165151301835,0.022859307259046956
0.7769999999999999,0.0066,-0.197,0.008440932913376206,1.0857890876525227,0.032483021264033365,0.022859307259046956
0.778,0.003000000000000067,0.803,0.008524933692347149,1.0857890876525242,0.033290135579456835,0.022859307259047064
0.7789999999999999,0.0033,-0.197,0.00847914500629632,1.1187016723718208,0.032850178897521315,0.025149254398622253
0.78,-0.003600000000000155,-0.197,0.00846042979188142,1.1134916962879973,0.0326703553571264,0.024786761755392926
0.7809999999999999,-0.0043,-1.197,0.008365877487543076,1.0919795083262955,0.031761857610764395,0.023290015944966783
0.782,0.00769999999999969,-0.197,0.008454729541947623,1.091979508326293,0.03261558499214383,0.023290015944966613
0.7829999999999999,0.0063,1.803,0.008486390538558354,1.0436282376757327,0.03291979697586763,0.019925896874240435
0.784,0.0019000000000014654,-1.197,0.008479466313867505,1.0436282376757327,0.032853266153896006,0.019925896874240435
0.7849999999999999,0.0085,-0.197,0.008423567374951261,1.0436282376757327,0.03231616597019546,0.019925896874240435
0.7859999999999998,0.0049,-0.197,0.008418129356183348,1.0375954941941181,0.032263915230989315,0.01950615883794411
0.7869999999999999,-0.0027,-0.197,0.008420744007026991,1.0431845875189696,0.0322890378804646,0.019895029185904307
0.7879999999999998,-0.0001,0.803,0.00844159315406823,1.0487438951919148,0.03248936513037229,0.020281827148211272
0.7889999999999999,0.0024,-1.197,0.008380947954741359,1.0431845875189696,0.03190666090860121,0.019895029185904307
0.7899999999999998,0.0003,0.803,0.008388973788346408,1.0431845875189696,0.03198377644580454,0.019895029185904307
0.7909999999999999,-0.0019,-1.197,0.008386114042633822,1.0371492634789377,0.031956298823199426,0.019475111603017615
0.7919999999999998,-0.0026,-1.197,0.008391885978000047,1.0371492634789377,0.03201175797154126,0.019475111603017615
0.7929999999999999,-0.0116,-1.197,0.008393397963395575,1.0447456301739177,0.0320262857541689,0.020003641292578433
0.7939999999999998,-0.0127,-0.197,0.008271261810837491,1.0331061265911117,0.030852750956420476,0.019193803713341003
0.7949999999999999,-0.009,-1.197,0.008371128861636507,1.0270115772949546,0.031812314990545584,0.018769765435984066
0.7959999999999998,-0.0101,-2.197,0.008382308025850597,1.0326579559384885,0.031919729035774655,0.01916262150408066
0.7969999999999999,-0.0076,-1.197,0.00839349537111319,1.0346823749008502,0.032027221687910015,0.01930347377842191
0.7979999999999998,-0.0014,-0.197,0.008368549826138875,1.0422967206909255,0.03178753454808274,0.019833254393053983
0.7989999999999999,-0.0035,1.803,0.008343806197260117,1.0443024547182027,0.03154978750182641,0.0199728066323474
0.7999999999999998,0.0078,-0.197,0.008385560592620944,1.0518471628345334,0.03195098104598667,0.020497742091451335
0.8009999999999999,0.0031,0.803,0.00836821975437049,1.0443024547182027,0.03178436308166724,0.0199728066323474
0.8019999999999998,0.0046,-0.197,0.008438213016393102,1.0367028406915215,0.032456887366009636,0.019444051004349854
0.8029999999999999,0.0195,0.803,0.008436985752749001,1.0502966751507326,0.03244509530803009,0.020389864364230945
0.8039999999999998,0.0253,0.803,0.008578142399867327,1.0577986305839486,0.03380138690439481,0.020911825235187448
0.8049999999999999,0.0235,-1.197,0.008743148735315356,1.0577986305839486,0.03538683619554652,0.020911825235187448
0.8059999999999998,0.0221,-2.197,0.008792348199453659,1.0577986305839486,0.03585956504763162,0.020911825235187448
0.8069999999999999,0.0083,-1.197,0.008769702991532638,1.0522871608073958,0.03564198050005118,0.020528355673093995
0.8079999999999998,-0.0007,-0.197,0.008769640471479354,1.0597750260468886,0.03564137978145518,0.021049336195679565
0.8089999999999999,-0.0087,-0.197,0.008760603526183576,1.0672103554900865,0.035554549063868096,0.02156666145394977
0.8099999999999998,-0.001,0.803,0.008756808284959812,1.0672103554900865,0.03551808281248672,0.02156666145394977
0.8109999999999999,-0.0101,-0.197,0.008679710823628407,1.0691693532049464,0.03477729843541672,0.021702961937544056
0.8119999999999998,-0.0188,1.803,0.008541819617700449,1.0691693532049464,0.03345238255202997,0.021702961937544056
0.813,-0.022,0.8030000000001111,0.008587749093383572,1.0765398008737423,0.03389369199913125,0.022215772939794275
0.8139999999999998,-0.0071,1.803,0.008583225417411296,1.0691693532049464,0.03385022664463943,0.021702961937544056
0.815,0.0042,1.802999999999778,0.00855467160074361,1.074594239654145,0.03357586973420602,0.02208040732242685
0.8159999999999998,0.0024,-0.19700000000011103,0.008538624157164262,1.0726451495860425,0.03342167924219497,0.02194479617962867
0.817,-0.0142,-1.196999999999556,0.008537788139357055,1.0706925113976735,0.033413646436447064,0.021808938170535287
0.8179999999999998,0.0014,2.802999999999778,0.008537788139357055,1.0945374036679807,0.033413646436447064,0.02346798571461512
0.819,-0.0043,0.802999999999889,0.008548749366700461,1.0945374036679805,0.0335189664538547,0.023467985714615107
0.8199999999999998,-0.0014,-0.19699999999977796,0.00852835952892217,1.101738156306133,0.03332305243779879,0.023968989906390365
0.821,-0.0068,1.802999999999889,0.008660121510515496,1.1088921507944003,0.034589076192284754,0.024466740823088785
0.8219999999999998,-0.002,0.802999999999889,0.008668413640268954,1.1160002863467484,0.034668750413302155,0.024961301028998985
0.823,-0.0005,-0.196999999999889,0.008696597586176642,1.1088921507944003,0.03493955345210594,0.024466740823088785
0.8239999999999998,0.0144,0.803,0.008711638509987811,1.1160002863467484,0.03508407288482915,0.024961301028998985
0.825,0.0086,0.803,0.008706711135328282,1.1088921507944003,0.035036728625955825,0.024466740823088785
0.8259999999999998,-0.004,0.803,0.008675198425642117,1.1141236359393054,0.03473394144449069,0.024830729994570713
0.827,-0.012,0.8030000000002221,0.008840673112246192,1.1462229124654757,0.03632389084775231,0.027064089880779844
0.8279999999999998,0.0047,2.802999999999778,0.008816808683119837,1.1480470931230322,0.03609459151727881,0.0271910102461801
0.829,-0.0065,0.803,0.008845291233329056,1.1462229124654757,0.03636826367002849,0.027064089880779844
0.8299999999999998,-0.0083,0.802999999999778,0.008858807280019313,1.1462229124654757,0.036498131451081,0.027064089880779844
0.831,-0.0138,-1.196999999999778,0.008857272728203174,1.1480470931230322,0.03648338684092693,0.0271910102461801
0.8319999999999999,-0.0091,0.802999999999778,0.008882024339447321,1.1411385941224013,0.03672121058505981,0.026710340081251435
0.833,-0.0014,-1.197,0.008855482548318598,1.1429708893769155,0.03646618605029469,0.026837825033062954
0.8339999999999999,0.0077,-1.197,0.0088362872261725,1.132341508113012,0.03628174943574092,0.026098268373252548
0.835,-0.0036,-1.197,0.008835194501844928,1.132341508113012,0.03627125008730153,0.026098268373252548
0.8359999999999999,-0.0021,-1.197,0.008803755480230982,1.1393033520657454,0.03596917093138916,0.026582650100840897
0.837,0.0102,-1.197,0.008993136021361429,1.1393033520657456,0.03778881769754477,0.02658265010084091
0.8379999999999999,0.0055,0.803,0.009022879619416566,1.1393033520657454,0.03807460652089374,0.026582650100840897
0.839,0.004,0.803,0.009042812970780896,1.1443958240457848,0.03826613442620141,0.026936967203053195
0.8399999999999999,-0.0026,-1.197,0.009049382759732383,1.1393033520657454,0.03832925968262183,0.026582650100840897
0.841,-0.0037,0.803,0.009053668555615737,1.144395824045785,0.03837043938658189,0.026936967203053212
0.8419999999999999,0.0017,-1.197,0.009052918207528092,1.1443958240457848,0.03836322973102265,0.026936967203053195
0.843,0.001,0.803,0.00906300112876061,1.1393033520657454,0.03846011061912569,0.026582650100840897
0.8439999999999999,0.0129,-1.197,0.008997384397290668,1.132341508113012,0.037829637855069445,0.026098268373252548
0.845,0.0049,-1.197,0.008921924578820987,1.1323415081130122,0.03710458862966638,0.02609826837325256
0.8459999999999999,-0.0057,0.803,0.008951929774549726,1.1253365958516843,0.037392890991935254,0.02561089009735562
0.847,-0.0021,-1.197,0.00889605787125274,1.1093095225997402,0.03685605057767491,0.02449578015196341
0.8479999999999999,-0.0083,0.803,0.008866032642103538,1.1021582372317826,0.03656755572599533,0.023998217726760165
0.849,-0.0094,-1.197,0.008883225029257308,1.1093095225997402,0.0367327473106223,0.02449578015196341
0.8499999999999999,-0.0003,-0.197,0.008946693360867364,1.103635867498082,0.03734257735798698,0.024101026279492215
0.851,0.0109,-0.197,0.008920296019840963,1.1267838311288598,0.03708894075970147,0.025711583868796708
0.8519999999999999,0.0033,1.803,0.008934415335226488,1.1249251704562506,0.03722460499652454,0.025582264499716987
0.853,0.0156,-1.197,0.008922562558664639,1.1319326288073057,0.03711071860454365,0.026069819923988564
0.8539999999999999,0.017,-1.197,0.008755322287850621,1.1526994349163178,0.0355038047360903,0.027514704567751087
0.855,0.0093,-0.197,0.008417990644121064,1.1730986737500722,0.032262582427977686,0.0289340151146216
0.8559999999999999,0.0057,0.803,0.008087772584879584,1.1663385706224352,0.029089710389286826,0.028463669836291346
0.857,-0.0005,-1.197,0.00783411059917019,1.1458189866745117,0.0266524208492027,0.027035986080440017
0.8579999999999999,-0.0038,-1.197,0.007896059760783022,1.1512847775967614,0.027247654081307554,0.027416277461219465
0.859,-0.0064,-1.197,0.00789590822036839,1.1531009505214325,0.027246198018167276,0.027542640675451802
0.8599999999999999,-0.0003,0.803,0.00789373001204788,1.1653377742218107,0.0272252688894259,0.028394037782946007
0.861,-0.0043,-0.197,0.007954920955253117,1.1756688696208855,0.02781321684467398,0.029112840713787204
0.8619999999999999,-0.0113,-1.197,0.007958829842590725,1.1876731944985808,0.027850775055040727,0.029948061333822332
0.863,-0.0052,-0.197,0.00774613889136133,1.1774474315072656,0.0258071522029519,0.029236587078255678
0.8639999999999999,0.0002,-1.197,0.007429385066431294,1.1756688696208848,0.02276365011049382,0.029112840713787155
0.865,-0.0035,-0.197,0.007521192423459942,1.16354070193562,0.023645773264907043,0.028269003527008053
0.8659999999999999,0.0016,-0.197,0.0075136013360304135,1.1581327541169983,0.023572834949226386,0.02789273667516873
0.867,-0.0075,-2.197,0.007522630601297173,1.1581327541169981,0.02365959187391013,0.027892736675168714
0.8679999999999999,0.0049,-0.197,0.007391648906914665,1.1531009505214398,0.022401065442493172,0.027542640675452312
0.869,9.999999999629186e-05,-1.197,0.007401127470881536,1.121198605596368,0.022492139415390085,0.025322982628842645
0.8699999999999999,-0.0166,-1.197,0.007435089123053725,1.1263729343589663,0.022818457051719244,0.025682995051148287
0.871,-0.0053000000000004,-1.197,0.007463030578305494,1.126372934358967,0.02308693013975177,0.025682995051148332
0.8719999999999999,-0.0071,-0.197,0.007501693815118437,1.113708068266375,0.023458422550829642,0.0248018161911717
0.873,-0.008999999999998955,-1.197,0.007761196218654473,1.1118275488375953,0.025951829247131648,0.024670975963229202
0.8739999999999999,-0.0043,-0.197,0.00776109358422386,1.1189170368650259,0.02595084309296478,0.025164238736965383
0.875,0.0001000000000039302,-1.197,0.007631433814257521,1.1170452866466083,0.024705018259476654,0.02503400864123694
0.8759999999999999,0.0178,2.803,0.007599257484448227,1.1222387653634986,0.024395854740697248,0.025395353453065556
0.877,0.0012000000000014432,0.803,0.0075938893583385875,1.127408320241507,0.0243442755591329,0.025755033724509924
0.8779999999999999,0.0077,-0.197,0.007499168881350997,1.132554278882456,0.023434161940223852,0.02611307224900492
0.879,0.005899999999997979,-0.197,0.007511714328126163,1.1000562284323254,0.0235547037948312,0.023851967012064493
0.8799999999999999,-0.0032,0.803,0.007565401108931208,1.098152331302605,0.024070548646124106,0.023719500242182008
0.881,-0.007899999999999024,-0.197,0.007527885428591496,1.0981523313026063,0.02371008243347736,0.023719500242182102
0.8819999999999999,-0.0035,0.803,0.0074207696914297735,1.0928443936261778,0.022680870015098824,0.02335019176024892
0.883,-0.0023999999999997556,0.803,0.007365114507966749,1.0909279104105662,0.022146111934866434,0.023216849292768373
0.8839999999999999,-0.0013,-1.197,0.007374633705706794,1.1072210902730124,0.022237576333904857,0.02435047404265675
0.885,0.0041000000000033085,-1.197,0.007390566314141064,1.100056228432331,0.02239066344222542,0.023851967012064882
0.8859999999999999,0.019,-0.197,0.00739058306726814,1.100056228432331,0.02239082441321708,0.023851967012064882
0.887,0.0077999999999996,-0.197,0.007390592839908063,1.094757521850194,0.0223909183127937,0.02348330079867876
0.8879999999999999,0.006,-1.197,0.007320180038130705,1.0894330441024775,0.02171436291652482,0.02311284151411925
0.889,0.004199999999999689,0.803,0.007301459107382991,1.0947575218501915,0.021534484451233942,0.02348330079867859
0.8899999999999999,0.0028,-1.197,0.00732399663929817,1.0947575218501897,0.021751034403102207,0.023483300798678466
0.891,-0.0014999999999985567,-1.197,0.007320919655677448,1.0947575218501884,0.021721469468597637,0.023483300798678376
0.8919999999999999,0.005,0.803,0.007323049286167331,1.0928443936261734,0.021741931841399463,0.02335019176024861
0.893,0.004000000000000245,-0.197,0.007333119174705897,1.0985737834039053,0.02183868750597499,0.023748823464349818
0.8939999999999999,0.0051,-0.197,0.007338992373343509,1.0966673126408768,0.021895119633817302,0.023616177629702827
0.895,0.011599999999997756,-0.197,0.007234693917408646,1.10237683371757,0.020892976821657052,0.024013426936295636
0.8959999999999999,0.0015,-1.197,0.007245525807624978,1.095180280357796,0.02099705411431789,0.02351271491621073
0.897,-0.002100000000000799,-0.197,0.007223646670730834,1.0951802803577952,0.02078683029481638,0.02351271491621068
0.8979999999999999,-0.0057,-1.197,0.007220605714787901,1.087936123792195,0.020757611529178956,0.023008690824893867
0.899,-0.011199999999996692,-1.197,0.007173012736323719,1.093267891926386,0.020300318457582917,0.02337965735006655
0.8999999999999999,0.0037,-2.197,0.007160637116417979,1.098995073883129,0.02018140836995601,0.023778135441396175
0.901,0.005899999999998712,-0.197,0.007223341398938048,1.1118275488375855,0.020783897116849803,0.024670975963228522
0.9019999999999999,0.0001,-1.197,0.007153526276611232,1.1137080682663643,0.020113084472570562,0.02480181619117096
0.903,0.00919999999999969,-2.197,0.007146913037431788,1.108056935549509,0.020049541728343216,0.024408629350614632
0.9039999999999999,0.0078,-2.197,0.0069746053016627825,1.1137080682663554,0.018393937555369094,0.02480181619117034
0.905,-0.0027000000000014434,-0.197,0.006803505383308316,1.113708068266354,0.016749938592937476,0.024801816191170247
0.9059999999999999,-0.0092,0.803,0.006742017779348996,1.1137080682663547,0.016159140198153267,0.024801816191170296
0.907,-0.012899999999997247,1.803,0.006718227714292004,1.1348084298326944,0.015930555388493396,0.02626990850372916
0.9079999999999999,-0.0005,0.803,0.006890027184480828,1.1278188397906612,0.017581275935019916,0.025783596296405836
0.909,-0.008500000000000311,1.803,0.007323075995058327,1.143586539103767,0.021742188471499037,0.026880659873991058
0.9099999999999999,-0.0099,1.803,0.007468434364405588,1.138490447194943,0.02313885195729088,0.026526090909287973
0.911,0.010399999999996714,1.803,0.007752567755037429,1.1435865391037656,0.02586892339089149,0.026880659873990964
0.9119999999999999,-0.0044,0.803,0.007772214223438413,1.1454149184407958,0.026057694805730797,0.027007872369411778
0.9129999999999998,-0.0018,-0.197,0.007803855457772409,1.1508826283722222,0.02636171690530526,0.027388297268406595
0.9139999999999999,-0.0137,-0.197,0.008426116917569068,1.2088306234367912,0.03234066303283968,0.0314201242025102
0.9149999999999998,-0.0025,-1.197,0.008797772989563336,1.2022714498506515,0.035911688680404154,0.03096375892704913
0.9159999999999999,-0.0044,-0.197,0.008805032760723943,1.2088306234367912,0.035981443571992136,0.0314201242025102
0.9169999999999998,-0.0025,0.803,0.008843543293624346,1.2088306234367912,0.03635146874055937,0.0314201242025102
0.9179999999999999,-0.004,-0.197,0.008819055490802596,1.208830623436791,0.036116179777137505,0.03142012420251018
0.9189999999999998,-0.0083,-1.197,0.008806538444470144,1.2105604648781436,0.03599591080576005,0.031540480761994304
0.9199999999999999,0.0066,-0.197,0.008817508979574923,1.205747471513335,0.03610132025599843,0.031205608843470203
0.9209999999999998,0.0102,-0.197,0.008764443577521661,1.1991714339610526,0.03559144586940845,0.0307480702298663
0.9219999999999999,0.02,-0.197,0.008751175797699238,1.1925591352195555,0.035463963539366386,0.030288008684465084
0.9229999999999998,-0.0003,-1.197,0.00872511877846174,1.1925591352195555,0.03521359689394367,0.030288008684465084
0.9239999999999999,-0.0028,-0.197,0.008697965665399137,1.1859099687425771,0.03495269852455212,0.029825382005813843
0.9249999999999998,-0.005,-1.197,0.008713924975584167,1.1978116629494946,0.03510604219436591,0.03065346192836244
0.9259999999999999,-0.0028,-1.197,0.00883212773355012,1.1978116629494946,0.03624178330588416,0.03065346192836244
0.9269999999999998,-0.001,-1.197,0.008651844474748866,1.1738876130312506,0.03450954700055154,0.028988906860913825
0.9279999999999999,-0.0064,-0.197,0.008656568498092824,1.1738876130312506,0.034554937375664875,0.028988906860913825
0.9289999999999998,-0.0111,-0.197,0.008693416767806876,1.1756688696208697,0.03490899083027729,0.029112840713786108
0.9299999999999999,-0.0035,0.803,0.00869999000301697,1.182375628989454,0.03497214919977941,0.029579474512465075
0.9309999999999998,0.0055,0.803,0.008729943173712099,1.1806044913775318,0.03525995168395309,0.02945624470408611
0.9319999999999999,-0.0007,-0.197,0.0087141251197401,1.180604491377532,0.035107965262406234,0.029456244704086126
0.9329999999999998,-0.004,-2.197,0.00871298496707062,1.1788306927177432,0.035097010202791566,0.029332829748931172
0.9339999999999999,0.0091,-0.197,0.008722365001968239,1.1837531314250371,0.03518713746753585,0.029675316506918705
0.9349999999999998,0.0036,-1.197,0.008727646271241675,1.183753131425037,0.03523788209260261,0.029675316506918688
0.9359999999999999,0.0021,0.803,0.008720782309459848,1.178830692717743,0.035171930301649,0.029332829748931154
0.9369999999999998,0.0007,0.803,0.008589912203245953,1.1806044913775318,0.033914476055626315,0.02945624470408611
0.938,0.0017,-1.196999999999778,0.00872165917185851,1.1872833705958297,0.035180355559167875,0.029920938695516763
0.9389999999999998,-0.007,0.802999999999778,0.008787468879941623,1.1806044913775318,0.035812682522541564,0.02945624470408611
0.94,-0.0015,-1.196999999999889,0.008789983118138639,1.1908031441124964,0.03583684036567178,0.030165832719039564
0.9409999999999998,-0.0041,-0.19699999999977796,0.008787364156790187,1.1960633833248249,0.035811676299078936,0.030531822501989984
0.942,0.0042,1.802999999999778,0.00894900752769041,1.1911918161510513,0.037364812832396156,0.030192875214501785
0.9429999999999998,0.0031,-0.19699999999977796,0.008937042526025228,1.1894338064381025,0.03724984813508811,0.030070558801255996
0.944,0.0038,1.802999999999778,0.008928128651714278,1.1960633833248249,0.03716419993455485,0.030531822501989984
0.9449999999999998,0.0063,-0.196999999999889,0.008935788856799779,1.1960633833248249,0.037237802361333845,0.030531822501989984
0.946,0.0009,0.802999999999889,0.008867057186980075,1.1978116629494946,0.03657739997799842,0.03065346192836244
0.9469999999999998,0.0001,-0.19700000000011103,0.008910328022509198,1.1929472351418762,0.036993164108090254,0.030315011374000632
0.948,-0.0006,-1.196999999999667,0.009064862927249834,1.1929472351418762,0.038477999551008175,0.030315011374000632
0.9489999999999998,0.0084,1.803,0.009093575727616921,1.1863002439517802,0.03875388404274829,0.029852536044507067
0.95,0.0095,1.802999999999889,0.009041709579243483,1.1796157983714273,0.03825553258278671,0.029387454764293882
0.9509999999999998,-0.0043,0.802999999999778,0.009071282538011346,1.1697153857400895,0.038539681833107665,0.028698617294398855
0.952,0.0012,-1.196999999999667,0.009090939173858444,1.176456085312866,0.03872855094098519,0.029167612538530056
0.9529999999999998,-0.0003,1.8029999999996669,0.009092915169325583,1.1697153857400868,0.03874753712478346,0.02869861729439867
0.954,0.0073,-1.196999999999889,0.00926906061048729,1.1474338366859735,0.040440015562481946,0.027148341922320223
0.9549999999999998,-0.0018,-0.19700000000022205,0.009520699071793209,1.1247109564268976,0.04285786224103952,0.02556736020678595
0.956,-0.0007,-2.196999999999778,0.00963752180036531,1.124710956426897,0.04398034345791002,0.025567360206785905
0.9569999999999999,-0.0153,-0.19700000000022205,0.009594695997245103,1.124710956426897,0.043568855383736525,0.025567360206785905
0.958,-0.0251,-2.196999999999667,0.009514794148917174,1.1441852553123064,0.04280112529355992,0.02692231653756991
0.9589999999999999,-0.016,0.802999999999778,0.009516557126708092,1.1441852553123064,0.042818064715196905,0.02692231653756991
0.96,-0.0208,-1.197,0.009506592492457229,1.144185255312303,0.04272232037746151,0.026922316537569678
0.9609999999999999,-0.007,0.803,0.009473301345894665,1.1335672611303989,0.042402445237055955,0.026183552152692243
0.962,0.0133,1.803,0.009426289268420207,1.1335672611303922,0.041950733703040796,0.02618355215269178
0.9629999999999999,0.0322,3.803,0.009421797450824734,1.131719741163532,0.041907574457043434,0.026055007916512753
0.964,0.0253,-0.197,0.009496184307106166,1.1386853865628703,0.04262231421683615,0.026539654135992373
0.9649999999999999,0.005,-1.197,0.009409126031001757,1.140521623003808,0.041785822201157764,0.02666741330232256
0.966,-0.0084,-0.197,0.009431833300155826,1.1354117748526553,0.04200400305879913,0.02631188722446532
0.9669999999999999,0.0036,-2.197,0.009517825121255432,1.1478371942086865,0.04283024813258391,0.02717640618446312
0.968,0.0014,0.803,0.009514592513800475,1.1478371942086878,0.042799187899750325,0.02717640618446321
0.9689999999999999,-0.0044,0.803,0.009507537184000268,1.1601295403288747,0.04273139736552504,0.028031666355509167
0.97,-0.0135,-0.197,0.009476009283839862,1.1532934203016563,0.042428464227684634,0.027556032076535526
0.9709999999999999,-0.0022,-0.197,0.009454177729580729,1.1532934203016563,0.04221869760187053,0.027556032076535526
0.972,0.0022,-0.197,0.009501226436468573,1.1601295403288698,0.04267076108647795,0.028031666355508827
0.9729999999999999,0.0058,-0.197,0.009509727522610617,1.161931888413035,0.04275244304712102,0.028157067683756164
0.974,0.0068,1.803,0.0095902061681144,1.1619318884130274,0.043525715243733186,0.02815706768375564
0.9749999999999999,0.0144,-1.197,0.00968639916130171,1.1740766751988037,0.04444997740887058,0.029002061171749104
0.976,0.0013,-1.197,0.009681346318797813,1.169113495423216,0.044401427602923114,0.028656739787019308
0.9769999999999999,0.0031,0.803,0.009737360597180786,1.1623302147617505,0.04493963601604571,0.02818478189370467
0.978,0.0111,0.803,0.009823226490419178,1.1555071142643405,0.04576467112272375,0.027710053469901557
0.9789999999999999,0.0068,-1.197,0.009980989540489864,1.1555071142643405,0.047280523924528924,0.027710053469901557
0.98,0.0079,-0.197,0.01000917444663589,1.1555071142643405,0.047551336189700824,0.027710053469901557
0.9809999999999999,-0.0059,-0.197,0.01004080645461099,1.1605284852948206,0.047855269638593295,0.02805942360676753
0.982,0.0032,-0.197,0.010035365153648185,1.1587239542761183,0.047802987362697655,0.02793387039726438
0.9829999999999999,0.0047,-1.197,0.010067745490324936,1.1587239542761183,0.0481141110640514,0.02793387039726438
0.984,0.0033,-1.197,0.010059982975448637,1.1587239542761183,0.04803952560237947,0.02793387039726438
0.9849999999999999,0.0022,0.803,0.010167022154491043,1.1655282232729833,0.04906800241860265,0.02840728858848702
0.986,-0.0116,0.803,0.010344219782140531,1.1655282232729833,0.05077059070036671,0.02840728858848702
0.9869999999999999,-0.017,-1.197,0.010374555060303449,1.163731445084505,0.05106206463153244,0.028282274794880453
0.988,-0.0123,-0.197,0.010375548833439547,1.1619318884130274,0.051071613215893846,0.02815706768375564
0.9889999999999999,-0.0047,1.803,0.010398409057909803,1.1551064350433151,0.05129126373163633,0.027682175554997586
0.99,0.0018,1.803,0.010390469462285086,1.1532934203016476,0.05121497680470677,0.027556032076534925
0.9909999999999999,-0.017,0.803,0.010514906089347385,1.1587239542761234,0.052410615515387476,0.027933870397264738
0.992,0.0019,-0.197,0.010614842049859225,1.160528485294826,0.05337084166260694,0.028059423606767917
0.9929999999999999,-0.0003,-1.197,0.01066974827876187,1.1500613906280415,0.05389840347686787,0.027331158303501923
0.9939999999999998,0.0063,-0.197,0.010683234925625902,1.1569166085962719,0.054027988772199324,0.02780812135308915
0.9950000000000001,-0.0035000000000023983,0.803,0.010680410924786735,1.1569166085962752,0.05400085460115969,0.027808121353089382
0.996,-0.0089,0.803,0.010699736930585327,1.1587239542761314,0.05418654687843485,0.027933870397265293
0.9969999999999999,-0.0168,-0.197,0.010700275117037516,1.1637314450845189,0.054191717997027426,0.02828227479488141
0.9979999999999998,-0.0092,-0.197,0.01071765337837628,1.1705066054111337,0.05435869553789689,0.028753667702561454
0.9990000000000001,-0.005599999999993871,-0.197,0.010718837299035732,1.1637314450845222,0.05437007113850769,0.028282274794881643
1.0,0.0082,1.803,0.010685975245358722,1.1514775509508195,0.054054318900470646,0.02742968998395132
1.001,-0.0084,-1.196999999999778,0.01065359086966102,1.139091841955199,0.05374315639052882,0.026567933937501922
1.0019999999999998,-0.0019,-0.197,0.01065572527900208,1.1372532969578433,0.05376366468051431,0.02644001414956723
1.0030000000000001,0.020200000000001286,-0.197,0.010655969599252253,1.1321286973556963,0.0537660122107858,0.02608346171527834
1.004,0.0231,-0.197,0.010663426318291843,1.1265699705185195,0.053837659459259835,0.02569670416557396
1.005,0.0152,-0.19699999999977796,0.010643509584650759,1.1265699705185208,0.05364629122392769,0.025696704165574055
1.0059999999999998,-0.0015,0.803,0.010657774566299807,1.1335672611304073,0.05378335508261146,0.02618355215269283
1.0070000000000001,-0.003699999999999201,2.802999999999556,0.01067735952080574,1.1105606968741133,0.05397153544644027,0.02458283265711141
1.008,-0.0019,0.803,0.010577210915910506,1.1124433578429607,0.0530092661238118,0.02471382188622152
1.009,-0.0073,1.802999999999778,0.010279803531472727,1.0889906107693261,0.05015165265363889,0.023082058488284492
1.0099999999999998,-0.0059,0.803,0.010155814391993158,1.08706733341424,0.04896031358920455,0.022948243307390873
1.0110000000000001,-0.004399999999999512,1.8029999999995558,0.009952628437515652,1.0797687485493146,0.04700801868717149,0.022440432277751998
1.012,-0.0033,-0.197,0.009966933140468185,1.0851406472936769,0.047145464204609654,0.02281419095604042
1.013,-0.012,-1.196999999999556,0.00988328954829055,1.0719887585577224,0.04634178188800441,0.02189912669573477
1.0139999999999998,0.0048,0.803,0.009377298818486165,1.0061904623899496,0.041480013146098345,0.017321102168540096
1.0150000000000001,0.007000000000002887,0.8030000000002221,0.009029554400261113,1.0082680246699818,0.03813874058295776,0.01746565197649425
1.016,0.0135,1.803,0.00901677506380735,1.0024842819250186,0.038015951419335677,0.017063238575425143
1.017,-0.0003,0.8030000000002221,0.008977600713714846,1.0279126468586264,0.03763954801993378,0.0188324588308507
1.0179999999999998,0.0016,1.803,0.008975393804119153,1.0024842819250186,0.03761834311743942,0.017063238575425143
1.0190000000000001,0.002999999999999334,-0.197,0.008977250408272554,1.0082680246699818,0.03763618213998947,0.01746565197649425
1.02,0.0015,-0.197,0.00897149259610283,1.0061904623899496,0.03758085869317582,0.017321102168540096
1.021,0.0139,-1.196999999999556,0.008869727798729991,1.0140187787398682,0.03660306032306548,0.017865770136312183
1.0219999999999998,0.0204,0.803,0.008868274830998002,1.0140187787398682,0.0365890996066209,0.017865770136312183
1.0230000000000001,0.012400000000000666,-1.196999999999334,0.008872854480294522,1.0140187787398682,0.0366331027760215,0.017865770136312183
1.024,0.0139,1.803,0.008886439587151934,1.0140187787398682,0.03676363411579595,0.017865770136312183
1.025,-0.0039,0.803,0.008868957593542155,0.9999318765307369,0.03659565987225381,0.01688565077788444
1.0259999999999998,-0.0108,-0.197,0.008758654996649783,0.9919923995019757,0.03553582678414621,0.01633324862330449
1.0270000000000001,-0.013000000000002575,-0.197,0.008766374779374527,0.9919923995019757,0.03561000165758703,0.01633324862330449
1.028,-0.0188,-0.197,0.008764737915742943,0.9898806785175074,0.03559427399308639,0.01618632216738476
1.029,-0.0134,-0.197,0.008726448700154318,0.9898806785175074,0.035226375333020324,0.01618632216738476
1.0299999999999998,-0.0087,-1.197,0.008713122744241414,0.9898806785175074,0.0350983340229781,0.01618632216738476
1.0310000000000001,-0.004400000000001643,-0.197,0.008700802053060107,0.9919923995019756,0.03497995171331185,0.016333248623304483
1.032,-0.0081,-0.197,0.008683330669248177,0.9999318765307368,0.03481207941310682,0.016885650777884433
1.033,0.0006,-2.197,0.008688565481354417,0.9999318765307369,0.034862377658447616,0.01688565077788444
1.0339999999999998,0.0173,-1.197,0.008693239862901833,0.9940996346629919,0.03490729105459572,0.016479862970689735
1.0350000000000001,0.019399999999995025,-1.197,0.008730407012075038,0.9861132017190016,0.035264408435275604,0.01592419378118433
1.036,0.0082,-0.197,0.008829873728643887,0.9839888635737164,0.03622012589211797,0.015776389465577533
1.037,-0.0016,-0.197,0.008767627789681574,0.9898806785175074,0.03562204110018006,0.01618632216738476
1.0379999999999998,-0.0071,-0.197,0.008601365908895433,0.9898806785175074,0.03402452800880569,0.01618632216738476
1.0390000000000001,-0.005700000000004663,-0.197,0.008513839310548861,0.9898806785175074,0.03318353615883398,0.01618632216738476
1.04,-0.0162,1.803,0.008518650750892722,0.9835183113699821,0.03322976647272999,0.015743650023137743
1.041,-0.0151,0.803,0.008673241190884596,0.9689881025406081,0.034715135521369594,0.014732686878491521
1.0419999999999998,-0.0116,0.803,0.00863633101120732,0.968988102540608,0.03436048721015945,0.014732686878491514
1.0429999999999997,-0.0062,-1.197,0.008638462875398514,0.9711452547547428,0.034380971045289664,0.014882774286834443
1.044,0.0029,1.803,0.008648623914744157,0.9999318765307368,0.034478602524615425,0.016885650777884433
1.045,0.009,0.803,0.008647876369645171,1.0020224152531156,0.03447141980133348,0.01703110344312819
1.0459999999999998,0.0014,-1.197,0.008695053333207027,0.9999318765307368,0.03492471562924667,0.016885650777884433
1.0469999999999997,0.0061,-1.197,0.008840838714283487,1.0233808034158454,0.03632548202079382,0.018517148379930248
1.048,0.0017,-0.197,0.008717478327597361,1.0233808034158454,0.03514018427391234,0.018517148379930248
1.049,-0.0005,-0.197,0.008696217999585155,1.0233808034158454,0.03493590622673868,0.018517148379930248
1.0499999999999998,0.0046,-0.197,0.00871404776163927,1.0233808034158454,0.03510722197369679,0.018517148379930248
1.0509999999999997,-0.0048,-0.197,0.008687542124224594,1.044745630173904,0.03485254481880744,0.020003641292577475
1.052,0.0014,0.803,0.008655191873582877,1.039164932867871,0.034541710196553534,0.019615355111416724
