time_sec,bts_raw,diy_raw,bts_rms,diy_rms,bts_norm_rms,diy_norm_rms
0.0,0.0091,0.5699999999995559,0.0030717203936228804,0.9407938174719007,0.0,0.03148475792858974
0.001,0.0025,-0.43,0.0030727336962316004,0.9407938174719007,4.914320139153781e-06,0.03148475792858974
0.002,0.0085,-0.43,0.003134443694752271,0.9404377390165484,0.00030419578443969863,0.031431065906858686
0.003,-0.0059,0.57,0.003136698258428945,0.972847747104829,0.000315129978811585,0.036318075588075156
0.004,0.0038,-0.43,0.0032230569273640416,0.972847747104829,0.0007339526900985456,0.036318075588075156
0.005,0.002,-0.43,0.0032235951823449383,0.9725034051457849,0.0007365631218391307,0.03626615327806172
0.006,0.0066,-0.43,0.003229254206913344,0.9628616749428424,0.000764008287937748,0.03481230517296064
0.007,-0.0011,0.57,0.0032592401655477062,0.9725034051457849,0.0009094343424456154,0.03626615327806172
0.008,0.0,-0.43,0.003323638002053431,0.972847747104829,0.0012217512970597788,0.036318075588075156
0.009000000000000001,-0.008599999999999986,-0.43,0.003335503452636143,0.972847747104829,0.0012792964195700361,0.036318075588075156
0.01,-0.0009,1.57,0.0033729331834693654,0.972847747104829,0.0014608233183008752,0.036318075588075156
0.011,0.0055,-0.43,0.003373287725407043,0.9731919672262714,0.0014625427775912295,0.03636997952655541
0.012,0.0078,-0.43000000000088817,0.0033876023112387847,0.9728477471048312,0.00153196572867337,0.03631807558807549
0.013000000000000001,0.005599999999999988,-2.43,0.003388826861332936,0.9731919672262714,0.0015379045579404658,0.03636997952655541
0.014,-0.0013,0.57,0.0033893387907820306,0.9728477471048312,0.0015403873159831878,0.03631807558807549
0.015,0.0012,-0.43,0.0034776877859170967,0.9628616749428515,0.001968862721385238,0.034812305172962014
0.016,-0.0042,-2.429999999998224,0.0034906976095646866,0.9728477471048379,0.0020319578301987366,0.036318075588076495
0.017,-0.002,1.57,0.0035207335484290455,0.9632094637723135,0.002177626279079932,0.0348647472264157
0.018000000000000002,-0.0026999999999999867,0.57,0.003537979687409265,0.9635571270699742,0.0022612666915132903,0.03491717035129872
0.019,0.0012,-0.43,0.0035460367242713337,0.9635571270699764,0.002300341749815158,0.03491717035129905
0.02,-0.0013,-0.43,0.003582679626076968,0.9632094637723158,0.00247805268113106,0.03486474722641604
0.021,0.0066,-1.43,0.003603726037047529,0.9632094637723158,0.0025801236719678305,0.03486474722641604
0.022,0.0011,-1.43,0.0036145027360558464,0.9635571270699764,0.002632388561561939,0.03491717035129905
0.023,0.0004,1.57,0.0036353649164757146,0.9635571270699813,0.0027335660701381047,0.034917170351299785
0.024,-0.0004,0.57,0.0036380177313410167,0.9538249677907081,0.002746431705147639,0.03344968671206717
0.025,-0.0025,-0.43,0.0036496449968497517,0.942927464418208,0.002802821676476188,0.0318064842686295
0.026000000000000002,-0.00030000000000000274,0.57,0.003667464699473375,0.942927464418208,0.00288924376078092,0.0318064842686295
0.027,-0.0011,1.57,0.0037193201300101193,0.9429274644182036,0.0031407324912136967,0.031806484268628844
0.028,-0.0007,-0.43,0.003730694013046001,0.9116588184373179,0.003195893606938267,0.027091577218594055
0.029,0.0043,-1.43,0.0038216702289012405,0.9112913558284923,0.003637110520734793,0.027036168613883922
0.03,0.0007,-0.43,0.0038274957769996094,0.9112913558284923,0.0036653632934949333,0.027036168613883922
0.031,0.0046,-0.43,0.003840940658133532,0.911291355828495,0.003730568346315658,0.027036168613884325
0.032,-0.0016,-0.43,0.004018433483261346,0.9116588184373204,0.004591373951250151,0.02709157721859444
0.033,-0.0009,0.57,0.004039406609438223,0.901366481120815,0.00469308952512224,0.025539625982695314
0.034,0.0041,0.57,0.004046465363466443,0.9247383399617966,0.004727323106265422,0.029063799753734968
0.035,-0.0024,-0.43,0.004049989043005937,0.9243760768045138,0.00474441226519568,0.029009175159012055
0.036000000000000004,-0.00019999999999996532,-0.43,0.0040570293848860095,0.9243760768045087,0.004778556551009247,0.029009175159011285
0.037,0.0048,-0.43,0.004099863325533375,0.934415003793767,0.00498629281394907,0.030522915397887384
0.038,-0.0046,-0.43,0.004108168600563728,0.9344150037937671,0.005026571778980485,0.0305229153978874
0.039,-0.0131,0.57,0.0041265357501959225,0.9454106331862917,0.005115648874568311,0.03218091397493086
0.04,-0.003,0.57,0.004138840232964596,0.9454106331862918,0.005175323217604244,0.03218091397493087
0.041,-0.0019,-1.43,0.004173777472101333,0.9340564936277226,0.005344762017444087,0.03046885670566179
0.042,0.0017,0.57,0.004173877568413259,0.9336978458052269,0.005345247465046135,0.030414777256625256
0.043000000000000003,0.0027999999999999943,0.57,0.004207255131833868,0.9333390601675985,0.005507122141675046,0.030360677026850698
0.044,0.002,1.57,0.004223589272031573,0.9232884345036065,0.0055863395377801885,0.028845172779260828
0.045,-0.0005,-0.43,0.004223603841602865,0.8890736387992485,0.005586410197361049,0.023686024488011152
0.046,0.0034,1.57,0.00422533940822017,0.9006230072758142,0.005594827357158003,0.02542751975093033
0.047,-0.0002,0.57,0.004276743866805393,0.9120261329925423,0.005844128961529438,0.02714696349873764
0.048,-0.0081,0.57,0.004280576253247067,0.9123932996729621,0.00586271528876206,0.027202327481274893
0.049,-0.0034,0.57,0.004302229062717341,0.9123932996729621,0.00596772719412313,0.027202327481274893
0.05,-0.0008,0.57,0.0043173560922099815,0.9123932996729622,0.006041090338598955,0.02720232748127491
0.051000000000000004,-0.006199999999999965,-0.43,0.00430708187161775,0.9120261329925398,0.005991262371379674,0.027146963498737256
0.052000000000000005,-0.0011999999999999403,2.57,0.004300190532051532,0.9123932996729648,0.005957840717744742,0.027202327481275296
0.053,0.0074,0.57,0.004219355821326123,0.9127603186570477,0.005565808127043774,0.027257669193116823
0.054,-0.0006,-0.43,0.004178502777619696,0.9127603186570477,0.005367678828150693,0.027257669193116823
0.055,0.0019,0.57,0.004284019476507196,0.913127190122882,0.005879414250419949,0.027312988661116058
0.056,0.0044,-1.43,0.004279410121672158,0.9134939142482037,0.00585705977792634,0.027368285912073263
0.057,0.0065,0.57,0.004246087651897743,0.9138604912103921,0.005695452294742609,0.02742356097273496
0.058,0.0028,0.57,0.004306820643915444,0.9134939142482037,0.0059899954679420424,0.027368285912073263
0.059000000000000004,0.004999999999999962,0.57,0.004316499700652701,0.925100461259259,0.006036937006474152,0.029118402957833328
0.06,-0.0005,0.57,0.004233964715042671,0.9365631828529468,0.005636658414000676,0.03084683299243419
0.061,0.0031,-0.43,0.004236903096614081,0.9354897099355279,0.005650908991872117,0.030684967172294308
0.062,0.0009,0.57,0.004201511373316034,0.9358476710565949,0.005479266032438062,0.03073894307564455
0.063,-0.0006,-0.43,0.004128267375227013,0.9358476710565906,0.005124046918440419,0.030738943075643895
0.064,-0.0078,-0.43,0.004112615607887559,0.9358476710565672,0.0050481388976895475,0.030738943075640363
0.065,0.003,-1.43,0.004126424486629949,0.9354897099355001,0.005115109267960856,0.030684967172290106
0.066,-0.0046,0.57,0.004127334297338611,0.9457648393593471,0.005119521672557389,0.03223432368072769
0.067,-0.0035,0.57,0.004121676801465256,0.9142269211864681,0.005092083920331792,0.02747881386979359
0.068,-0.0024,-0.43,0.004127152960741308,0.902480543484733,0.005118642225406633,0.025707612165948236
0.069,0.0051,-0.43,0.0041307120673355294,0.9021093422316968,0.00513590319864687,0.025651639822086843
0.07,-0.0039,0.57,0.004130121174915345,0.9021093422316968,0.005133037485585838,0.025651639822086843
0.07100000000000001,-0.002800000000000015,0.57,0.004136357584742189,0.9021093422316968,0.005163282857643836,0.025651639822086843
0.07200000000000001,-0.003899999999999965,0.57,0.004083392925021053,0.8917067889139897,0.004906414581877924,0.02408306943992184
0.073,-0.0014,0.57,0.004089463321466092,0.8928329045659565,0.0049358548213935295,0.024252873102986072
0.074,0.0029,0.57,0.004090452786534546,0.8808012621596845,0.004940653534108812,0.022438657174368402
0.075,0.0036,0.57,0.0040992416546526455,0.8808012621596845,0.004983277831353739,0.022438657174368402
0.076,-0.0062,-0.43,0.004091996873408581,0.8811814395735352,0.0049481420544741726,0.022495983007086735
0.077,0.0029,0.57,0.004098863137976582,0.8811814395735352,0.004981442099255373,0.022495983007086735
0.078,-0.0083,-0.43,0.004102241112275015,0.8800404146222512,0.004997824616167379,0.02232393121468219
0.079,0.0021,-0.43,0.004104739365978732,0.9127603186570473,0.005009940659670317,0.02725766919311677
0.08,0.0032,0.57,0.004089152678213771,0.9021093422317016,0.004934348262170415,0.02565163982208756
0.081,0.0118,0.57,0.0041324846078190335,0.9127603186570495,0.0051444996744879345,0.027257669193117107
0.082,0.0041,0.57,0.004107134525294519,0.9131271901228839,0.005021556715486971,0.027312988661116342
0.083,-0.0024,2.57,0.004106152505933944,0.9131271901228839,0.0050167941130035846,0.027312988661116342
0.084,-0.0017,-0.43,0.004121732146136029,0.9127603186570473,0.00509235233119725,0.02725766919311677
0.085,-0.0024,0.5699999999991118,0.004114347711150622,0.9127603186570473,0.005056539260893504,0.02725766919311677
0.08600000000000001,0.005899999999999954,-1.43,0.004107983565433683,0.9127603186570473,0.005025674394666852,0.02725766919311677
0.08700000000000001,0.0025999999999999097,0.57,0.004198829544737302,0.9131271901228817,0.005466259686573752,0.027312988661116006
0.088,-0.0039,1.57,0.004172349549056995,0.9134939142482008,0.00533783686901008,0.027368285912072826
0.089,-0.0032,-0.43,0.00414713653155834,0.9134939142482008,0.005215558648667795,0.027368285912072826
0.09,-0.0054,-0.43,0.003935494441155867,0.9134939142482007,0.004189135763532522,0.02736828591207281
0.091,-0.0003,-0.43,0.0039396074827632716,0.9134939142482007,0.004209083213613576,0.02736828591207281
0.092,-0.0053,-0.43,0.003944253048835148,0.9032224883283625,0.004231613303547549,0.025819487844098925
0.093,0.0037,0.5699999999995559,0.00394084392605164,0.9134939142481955,0.004215079722554402,0.027368285912072025
0.094,0.0001,-0.43,0.004000057140622161,0.9247383399617884,0.004502252271370325,0.029063799753733747
0.095,0.0012,1.57,0.004000057140622161,0.9134939142481955,0.004502252271370325,0.027368285912072025
0.096,0.0066,1.57,0.004001905907126014,0.9138604912103814,0.004511218428552091,0.027423560972733338
0.097,0.0018,0.5699999999991118,0.004055628917256248,0.9021093422316888,0.004771764555984321,0.025651639822085636
0.098,0.0043,-1.43,0.00405559462842503,0.9123932996729541,0.0047715982618365,0.027202327481273686
0.099,0.0036,-0.43,0.0039745755709854206,0.9454106331862838,0.004378671625504558,0.03218091397492967
0.1,0.0086,-0.43,0.004016560768566369,0.9454106331862838,0.00458229165000942,0.03218091397492967
0.101,0.0006,0.57,0.004022304348655549,0.9755981074506583,0.0046101468939022125,0.03673279432558025
0.10200000000000001,-0.0018999999999999653,0.57,0.004073074452126975,0.9759413575046919,0.004856371999620356,0.0367845519904525
0.10300000000000001,0.0005999999999998501,0.57,0.004074438364986021,0.9436376079871537,0.0048629867111325735,0.031913564726216495
0.10400000000000001,-0.010199999999999855,0.57,0.004012030481184258,0.9432826030309911,0.004560320639250663,0.03186003457426711
0.105,0.0003,0.57,0.004011607902085642,0.9432826030309912,0.004558271212991573,0.03186003457426713
0.106,0.0039,0.57,0.004008328963477435,0.9432826030309912,0.004542368999873112,0.03186003457426713
0.107,-0.0073,-0.43,0.0039895736539234325,0.9443472175324638,0.004451409404324722,0.03202056465995202
0.108,-0.0029,1.57,0.0039386142592555745,0.954176050426606,0.004204266273200561,0.03350262542889398
0.109,-0.0018,1.5699999999986678,0.003934238065221423,0.954176050426606,0.004183042585143506,0.03350262542889398
0.11,0.0018,-1.43,0.003916032874858508,0.9639046649716597,0.004094750960442554,0.03496957456809189
0.111,0.0007,0.57,0.003915943099381868,0.9635571270699693,0.004094315566879901,0.03491717035129798
0.112,-0.0,-0.43,0.004039450104684837,0.9635571270699693,0.004693300468590218,0.03491717035129798
0.113,0.0043,-2.429999999999112,0.004135095323810636,0.9632094637723088,0.005157161138165949,0.034864747226414985
0.114,0.0036,-0.43,0.004168367208228117,0.9635571270699694,0.005318523292228659,0.034917170351297995
0.115,-0.0015,-1.43,0.00414295948773393,0.9639046649716598,0.005195300800309589,0.0349695745680919
0.116,-0.0036,-0.43,0.0041428010789213736,0.953824967790696,0.0051945325484457645,0.033449686712065343
0.117,0.0029,-0.43,0.0041322478997667805,0.953824967790696,0.005143351686573687,0.033449686712065343
0.11800000000000001,-0.00319999999999997,-0.43,0.004138968123607905,0.953824967790696,0.005175943462295825,0.033449686712065343
0.11900000000000001,-0.0009999999999999501,-0.43,0.004161148164732688,0.954176050426606,0.005283512338413168,0.03350262542889398
0.12,0.0026,-0.43,0.004177255106840193,0.9545270039315346,0.005361627868066332,0.03355554467444216
0.121,0.0004,0.570000000000444,0.004188004928675642,0.954176050426606,0.0054137624086109315,0.03350262542889398
0.122,-0.0025,1.57,0.0042159189704161736,0.9649465276555544,0.005549140070042157,0.035126673974201966
0.123,-0.001,-0.43,0.004198931149126998,0.9645993651292318,0.005466752448059027,0.03507432635915439
0.124,0.0027,0.57,0.004266490903628156,0.9642520776129665,0.005794404088629384,0.03502195989724141
0.125,0.0005,0.57,0.004263371348195864,0.9642520776129665,0.005779274852847107,0.03502195989724141
0.126,-0.0024,0.57,0.004249715899048242,0.9938674313511529,0.0057130485862039015,0.039487571878483126
0.127,-0.002,-1.43,0.0043196420220000045,1.0229529505539094,0.006052176652506695,0.043873291670342006
0.128,-0.0016,-2.43,0.004316013895306529,1.0320334330792582,0.006034580945238488,0.04524251089085626
0.129,0.0024,-0.4300000000004441,0.00424938058928468,1.0423208426616772,0.005711422399209266,0.04679371908824329
0.13,0.006,-1.43,0.0042504210548884635,1.0423208426616772,0.005716468454579862,0.04679371908824329
0.131,0.0006,0.57,0.004251188189137719,1.0521894340249496,0.005720188906158797,0.04828177491966779
0.132,0.0013,-0.43,0.004096256788304754,1.0518710657903605,0.004968801811377186,0.04823376911107957
0.133,-0.0037,-0.4299999999995559,0.004076158687507,1.0518710657903605,0.004871329940033727,0.04823376911107957
0.134,-0.0033,0.57,0.004114457466983759,1.0219702250880722,0.005057071555290592,0.043725109391200244
0.135,-0.0007,-0.43,0.004127704147751103,1.0219702250880722,0.005121315374966663,0.043725109391200244
0.136,-0.0087,0.57,0.0041558735859762875,1.0216424398681665,0.005257931659566523,0.043675683623126516
0.137,-0.001,0.5699999999995559,0.00411423719905913,1.0216424398681665,0.005056003298790807,0.043675683623126516
0.138,-0.0003,-0.43,0.004132632430970125,1.0216424398681663,0.0051452165879570105,0.04367568362312648
0.139,0.0005,0.57,0.00412011197604251,1.0216424398681663,0.0050844948220475465,0.04367568362312648
0.14,-0.0035,0.57,0.004107869075566983,1.0310593624583335,0.005025119141129744,0.04509563365029276
0.14100000000000001,-0.002699999999999939,0.5699999999991118,0.004095120300749713,1.0413563947883426,0.004963290068259608,0.04664829283345259
0.14200000000000002,-0.0004999999999997808,-1.43,0.004100455498186686,1.0416779766287512,0.00498916473589122,0.04669678321219916
0.14300000000000002,0.00739999999999985,1.57,0.004132792748794336,1.0416779766287512,0.005145994098155255,0.04669678321219916
0.14400000000000002,0.0019999999999999805,0.57,0.004133702671953066,1.0413563947883449,0.005150407048112697,0.04664829283345293
0.145,0.0013,0.5699999999995559,0.004212510870027747,1.041356394788345,0.005532611447465867,0.04664829283345297
0.146,0.0074,-0.43,0.004231556043154654,1.031059362458336,0.005624976824842582,0.04509563365029313
0.147,-0.0001,-1.43,0.004196037673000243,1.0209865537244824,0.0054527196528411865,0.04357678448292177
0.148,0.0006,2.57,0.004192694272495363,1.0300843707350458,0.005436504812088786,0.04494861751941632
0.149,0.0067,0.57,0.004192469911505171,1.0209865537244869,0.005435416705018839,0.043576784482922445
0.15,-0.0023,-2.43,0.004177458953359871,1.021314549447426,0.005362616483952968,0.04362624199212871
0.151,0.0089,0.57,0.004170943097957904,1.0307344676909784,0.005331015855325206,0.04504664372504757
0.152,-0.0016,-0.43,0.004171101557385956,1.030409470482201,0.005331784352664317,0.04499763835296198
0.153,0.0021,-0.43,0.004296813574998139,1.030409470482201,0.005941463134272903,0.04499763835296198
0.154,-0.0001,-0.43,0.004296388456472968,1.0300843707350458,0.005939401392290005,0.04494861751941632
0.155,0.001,0.57,0.004190092562764106,1.0391025352577223,0.005423887027017944,0.04630843999181673
0.156,0.0021,1.57,0.004198597315269091,1.0391025352577223,0.005465133418919141,0.04630843999181673
0.157,0.0014,-1.43,0.004183361836659207,1.0387801561217038,0.005391244317363606,0.04625982939121295
0.158,0.0021,0.57,0.004131100497616064,1.0387801561217038,0.005137787009794559,0.04625982939121295
0.159,-0.0033,-1.43,0.004127460339469926,1.0284573305191822,0.005120132952326109,0.04470328091644494
0.16,0.0004,-0.43,0.004147105634371934,1.0183587848454436,0.005215408803336213,0.04318055095169641
0.161,-0.0104,-0.43,0.004143722752793383,1.019344992018047,0.005199002487072163,0.0433292582271488
0.162,-0.0089,-0.43,0.004183665128674402,1.0294338632370061,0.005392715224519565,0.04485052940934969
0.163,-0.0053,0.57,0.004214503322103041,1.029759168352417,0.005542274451661904,0.04489958120976985
0.164,-0.0063,0.57,0.004199910057461924,1.0008714587096061,0.005471499962674422,0.04054368853896132
0.165,-0.003,-0.43,0.0042287458402452726,1.0012060441718653,0.005611347888497369,0.04059413969555471
0.166,0.0035,0.57,0.004287201250321219,1.020658452597871,0.005894845233226,0.04352731108020615
0.167,0.0042,0.57,0.0043156362794342035,1.020658452597871,0.006032749581862667,0.04352731108020615
0.168,0.0049,0.57,0.004308118889027503,1.020658452597871,0.005996291703681345,0.04352731108020615
0.169,-0.0063,0.57,0.004306684584833828,1.020658452597869,0.005989335607916868,0.043527311080205855
0.17,0.0049,-0.43,0.004377622533277533,1.0209865537245195,0.0063333708306303645,0.043576784482927365
0.171,-0.0056,1.57,0.004409333239362254,1.031384154881129,0.006487161574084369,0.04514460814330317
0.17200000000000001,0.0008999999999997612,-0.43,0.0044093133944805765,1.0310593624583704,0.006487065330276404,0.04509563365029832
0.17300000000000001,-0.00769999999999972,-0.43,0.004406333607943806,1.020986553724517,0.006472613946393626,0.043576784482927
0.17400000000000002,0.0023999999999999,0.57,0.004418240696193234,1.0213145494474565,0.006530361003471434,0.043626241992133295
0.17500000000000002,-0.0011999999999996918,-2.43,0.004499045136275065,1.020986553724517,0.00692224678745141,0.043576784482927
0.176,0.0099,-2.43,0.004518419694579146,1.0505966280832313,0.007016209618733594,0.048041600402084404
0.177,0.0023,-1.43,0.0045121081187991085,1.0778421391184358,0.006985599706453969,0.0521498707806679
0.178,0.0034,1.57,0.004523618674743162,1.0691507886696783,0.007041423659142862,0.050839327640097624
0.179,0.0023,-0.43,0.0045827957183741785,1.0505966280832,0.007328420785952637,0.048041600402079686
0.18,0.0033,1.57,0.004586200531224671,1.0597562969442507,0.007344933464610756,0.049422759896972805
0.181,-0.0032,-0.43,0.004595580171017183,1.0597562969442444,0.007390422889323256,0.04942275989697187
0.182,-0.0007,0.57,0.004659060144640945,1.0594402026004976,0.007698288387869906,0.049375096961687785
0.183,-0.0061,-0.43,0.004657223977074052,1.0694640129241249,0.007689383333076611,0.050886557803067736
0.184,0.0037,-0.43,0.004648846048833068,1.0697771454684248,0.00764875201413521,0.05093377413733491
0.185,-0.0054,-0.43,0.004663128068902952,1.0694640129241269,0.007718017027620066,0.050886557803068035
0.186,0.0007,-1.43,0.004670493245711455,1.0694640129241269,0.007753736699519635,0.050886557803068035
0.187,-0.0047,0.57,0.004589816277039482,1.0694640129241269,0.00736246912703072,0.050886557803068035
0.188,-0.0022,1.57,0.004590622680677284,1.0694640129241288,0.007366380027489708,0.05088655780306834
0.189,0.0003,-1.43,0.004598400980922791,1.0694640129241288,0.0074041032675326475,0.05088655780306834
0.19,0.0043,1.57,0.004599019361108537,1.0691507886696745,0.007407102290898734,0.050839327640097055
0.191,0.0021,0.57,0.004599185838557998,1.068837472624436,0.0074079096740788004,0.05079208363626373
0.192,-0.0074,-0.43,0.004603808993455127,1.078463448111709,0.007430331074183642,0.052243556134182224
0.193,0.0038,-0.43,0.004638837520000088,1.0697771454684295,0.0076002126001596115,0.05093377413733561
0.194,0.0081,-0.43,0.004579518027325088,1.059756296944251,0.007312524623252712,0.049422759896972875
0.195,-0.0042,-0.43,0.004575508616956941,1.059756296944251,0.007293079764482236,0.049422759896972875
0.196,0.0037,0.57,0.004628579467837834,1.0694640129241335,0.00755046304667417,0.05088655780306904
0.197,-0.0007,-1.43,0.004593895848172357,1.0694640129241315,0.007382254251834379,0.05088655780306874
0.198,-0.0043,0.57,0.004605095108624369,1.0607040147908258,0.0074365684820646505,0.04956566348029369
0.199,-0.0007,0.57,0.004607867358263442,1.0310593624583368,0.007450013352446726,0.04509563365029326
0.2,-0.0083,-1.43,0.0045838221927218216,1.031059362458337,0.007333398986458129,0.045095633650293294
0.201,0.0007,-0.43,0.004615824777002869,1.0127995226204234,0.007488605282271366,0.042342286171259076
0.202,-0.0105,0.57,0.00453222498636184,1.0127995226204234,0.007083162592949546,0.042342286171259076
0.203,-0.0001,-0.43,0.004539290370559514,1.0131301688563774,0.007117428329122227,0.04239214334351783
0.20400000000000001,-0.0036999999999999724,-1.43,0.004539660385577836,1.013460707217476,0.007119222829837691,0.042441984249644786
0.20500000000000002,-0.00269999999999997,0.57,0.004571785162904403,1.023934732845469,0.007275021738103802,0.044021331731011845
0.20600000000000002,-0.0015999999999998695,-0.43,0.004598911301888249,1.023934732845469,0.0074065782247432575,0.044021331731011845
0.20700000000000002,0.0030999999999999778,-0.43,0.004629424660271615,1.0137911378092272,0.007554562065232936,0.04249180890554923
0.20800000000000002,0.002300000000000058,-0.43,0.004651990584297083,1.0042122968413214,0.00766400239820223,0.04104744368300812
0.209,0.0044,0.57,0.004650725832546366,1.0042122968413214,0.007657868598736905,0.04104744368300812
0.21,-0.0007,1.57,0.004639625609303953,0.9948779167219021,0.007604034679668841,0.03963993999194141
0.211,0.0058,1.57,0.0047354894264105855,0.9948779167219021,0.008068955506842451,0.03963993999194141
0.212,-0.0051,0.57,0.0046202865355012305,1.0055455241979356,0.007510243941301598,0.04124847711013004
0.213,0.0025,-0.43,0.004551485425193937,1.0058785549266327,0.007176571967036799,0.04129869383302785
0.214,0.0061,0.5699999999986677,0.004522851450425878,1.0055455241979332,0.007037702770751545,0.041248477110129675
0.215,0.0072,-2.43,0.004578327775795816,1.0157714640908608,0.007306752135339799,0.042790416474049346
0.216,0.0061,-0.43,0.004572061649860155,1.0157714640908608,0.007276362645946309,0.042790416474049346
0.217,0.0014,-0.43,0.004635109980438634,1.0154416779089268,0.007582134759859284,0.04274068898680365
0.218,-0.003,-0.4299999999995559,0.00462113021789798,1.0151117845871467,0.0075143356364751,0.042690945344256055
0.219,0.0079,0.57,0.0046067179954421,1.0252423134237567,0.007444439166797237,0.04421849795595249
0.22,-0.0059,1.57,0.004564269256835995,1.0249155746732028,0.007238571058673873,0.04416922998191077
0.221,-0.0004,-0.43,0.004552117031203705,1.0249155746732048,0.007179635133071408,0.04416922998191107
0.222,-0.0019,0.57,0.004519878400965681,1.0239347328454689,0.007023284060376962,0.04402133173101181
0.223,-0.0034,0.57,0.004565624359768233,1.0239347328454689,0.007245143043758305,0.04402133173101181
0.224,0.0089,-0.43,0.004521012151000496,1.0242617844838868,0.007028782527055042,0.044070646884493185
0.225,0.0042,2.57,0.004590440232849325,1.0242617844838868,0.007365495191086875,0.044070646884493185
0.226,-0.0001,-2.429999999998668,0.0046001200048320775,0.9955510038338069,0.007412440198420219,0.03974143281549212
0.227,-0.0038,0.57,0.004516493132688737,0.9659872666422081,0.00700686616909092,0.03528360394131404
0.228,0.0075,-1.43,0.004543853421808881,0.955929529485139,0.007139558238250834,0.03376702737262442
0.229,-0.003,-1.43,0.004540373832710243,0.9450562942570588,0.007122682909364613,0.032127484251220945
0.23,-0.0067,-1.4299999999995558,0.004592700129637455,0.9450562942570588,0.007376455250009792,0.032127484251220945
0.231,-0.0077,-0.43,0.0046435476882058105,0.933697845805213,0.0076230559978504794,0.03041477725662316
0.232,-0.0001,1.57,0.004727207575448298,0.9340564936277087,0.00802879014397533,0.030468856705659696
0.233,0.0024,0.57,0.004742857550055666,0.933697845805213,0.00810468947032502,0.03041477725662316
0.234,0.0049,-0.43,0.004734629176290432,0.933697845805213,0.008064783461439823,0.03041477725662316
0.23500000000000001,0.0026999999999999004,-0.43,0.004725137328704107,0.933697845805213,0.008018749850798895,0.03041477725662316
0.23600000000000002,-0.0008999999999999389,0.57,0.00469581106427396,0.933697845805213,0.007876523184593748,0.03041477725662316
0.23700000000000002,0.001299999999999889,0.57,0.004700373087132167,0.9236511242427439,0.007898648106225686,0.028899861697005435
0.23800000000000002,-0.0026999999999999004,-0.43,0.004739710000568604,0.9236511242427439,0.008089424468833718,0.028899861697005435
0.23900000000000002,0.0009000000000000722,-0.43,0.004745527596930951,0.912026132992523,0.008117638677224108,0.02714696349873473
0.24,0.0035,-0.43,0.004766611180203316,0.901366481120798,0.008219889946478997,0.025539625982692753
0.241,-0.0034,1.57,0.004747732773268797,0.9236511242427438,0.008128333352629268,0.028899861697005418
0.242,0.0057,0.5699999999995559,0.004743084529027287,0.9232884345035899,0.0081057902740946,0.028845172779258316
0.243,-0.0005,-0.43,0.004719853446491388,0.9232884345035899,0.007993124052002537,0.028845172779258316
0.244,0.0006,0.57,0.0047147177462688586,0.9562798394656628,0.00796821690697494,0.033819849583022615
0.245,0.0071,1.57,0.004650679145712444,0.967373176918847,0.007657642176692592,0.035492581270810016
0.246,-0.0048,-0.4299999999995559,0.004678406940547992,0.9673731769188472,0.0077921165769379306,0.03549258127081003
0.247,0.0032,0.57,0.0046732350502089025,0.9673731769188472,0.0077670339168991985,0.03549258127081003
0.248,0.0017,-0.43,0.004690584405301247,0.9573300002866607,0.007851174907357457,0.0339782002407908
0.249,-0.0048,0.57,0.004720329464943774,0.9569800747257297,0.007995432648711004,0.03392543599589098
0.25,-0.0059,1.569999999999556,0.004735011310783244,0.9569800747257297,0.008066636739244232,0.03392543599589098
0.251,0.0017,0.57,0.004692047228900009,0.9471803394684944,0.007858269316677597,0.03244776277393383
0.252,-0.003,0.57,0.004694627349905102,0.9475338840919869,0.00787078240063462,0.03250107272662016
0.253,-0.0022,0.57,0.004584575815992727,0.9583790103759794,0.007337053912425629,0.03413637738311764
0.254,0.0054,1.569999999999556,0.004597991184754586,0.9583790103759795,0.0074021158359944,0.03413637738311766
0.255,-0.0051,0.57,0.004591050173035537,0.948240577889407,0.007368453282100343,0.03260763300331741
0.256,0.0057,0.57,0.004591780139629701,0.948240577889407,0.007371993477796813,0.03260763300331741
0.257,-0.0048,-0.43,0.004594735217759957,0.9803926721658115,0.0073863250307241585,0.03745575262032517
0.258,0.0018,0.57,0.004619627743397772,0.9803926721658115,0.0075070489280117045,0.03745575262032517
0.259,0.0007,0.57,0.0046409752347369845,0.9807342441575164,0.007610580099949795,0.03750725725512031
0.26,-0.0095,-0.43,0.0046214960883299485,0.9803926721658115,0.007516110036754612,0.03745575262032517
0.261,-0.0004,1.57,0.004632672806080984,0.969448327443413,0.007570314939279173,0.035805487107671015
0.262,-0.004,0.5699999999995559,0.004603370479954091,0.969448327443413,0.0074282043691787526,0.035805487107671015
0.263,0.0014,-0.43,0.004600150584773001,0.9691027776020644,0.007412588505173049,0.035753382664641765
0.264,-0.0095,1.57,0.00459717553233427,0.969448327443413,0.007398160080742994,0.035805487107671015
0.265,-0.0018,-0.43,0.004588395116565133,1.0005847248666324,0.007355576775742999,0.04050045278713034
0.266,-0.0084,-0.43,0.004531936432707532,0.9708292968848973,0.007081763163971088,0.0360137194231834
0.267,-0.0022,-0.43,0.004492763033561058,0.9711742324201248,0.006891779813797136,0.03606573123680161
0.268,-0.0033,1.57,0.004508230073098478,0.9810756972272954,0.006966791940715321,0.03755874395802842
0.269,-0.0008,-0.43,0.004628229706661542,0.9814170314992616,0.007548766773144667,0.03761021274776418
0.27,0.0036,-0.4300000000004441,0.0046703931959897,0.9908782254461106,0.007753251477870835,0.03903683832243773
0.271,0.0014,-1.43,0.004638388139295994,0.9800509811278411,0.00759803319133813,0.037404230034894216
0.272,0.0065,-0.43,0.004638407004108281,0.9908782254461106,0.007598124682000589,0.03903683832243773
0.273,0.0043,0.57,0.004654362955417611,0.9908782254461106,0.007675507935713759,0.03903683832243773
0.274,0.0083,0.57,0.004650379100085606,0.9908782254461107,0.007656187013887378,0.03903683832243774
0.275,0.0032,0.57,0.004580745102549258,0.9912161841344339,0.007318475698908201,0.03908779811785612
0.276,-0.0047,0.57,0.004586649861094507,0.9594268735081606,0.0073471126268959954,0.03429438157915519
0.277,-0.0055,-0.43,0.004587019464767278,0.9287139084185687,0.0073489051326657145,0.02966326401439369
0.278,0.0029,0.57,0.004575764018871235,0.9283531966139283,0.0072943184139835715,0.029608873343567415
0.279,-0.0073,-0.43,0.004533095731206904,0.918248000115921,0.007087385535722355,0.028085140520612218
0.28,0.0076,-0.43,0.004549811543641273,0.9080303528905175,0.007168453967779687,0.026544451583608915
0.281,0.0094,0.57,0.004540337353876968,0.8976964151783609,0.007122505994133689,0.024986227546551092
0.28200000000000003,0.003900000000000083,-0.43,0.004482960891196521,0.8980694404392539,0.006844241333964597,0.025042474927186014
0.28300000000000003,0.005399999999999579,-0.43,0.0045143016775289575,0.898069440439254,0.00699623803872485,0.02504247492718603
0.28400000000000003,-0.0021999999999999446,-0.43,0.004516614566048365,0.898069440439254,0.007007455097215303,0.02504247492718603
0.28500000000000003,-0.0012000000000000554,-0.43,0.004497882233979649,0.898069440439254,0.0069166069379917785,0.02504247492718603
0.28600000000000003,-0.0022000000000003054,0.57,0.0044961738137971425,0.909872766877016,0.006908321433112211,0.026822263763238787
0.28700000000000003,-0.007699999999999395,0.57,0.004582763661276118,0.9095045826589563,0.00732826531527562,0.026766746349197176
0.28800000000000003,0.0031999999999995725,-0.43,0.004629784450582569,0.9095045826589563,0.007556306978110667,0.026766746349197176
0.289,-0.0045,-0.43,0.00462469941625721,0.909872766877016,0.007531645552808536,0.026822263763238787
0.29,-0.0008,2.57,0.004624060816207062,0.9102408021678832,0.007528548467041364,0.026877758720987577
0.291,0.0002,-0.43,0.004663383052181071,0.9106086887121306,0.007719253646817556,0.0269332312496716
0.292,0.0057,-0.43,0.004651901587737161,0.8991875877319656,0.007663570782233836,0.02521107706482276
0.293,0.0031,2.57,0.0046263792757001015,0.9326725309479342,0.007539792543668038,0.030260173048559783
0.294,0.0024,1.57,0.004640806522861236,0.9326725309479343,0.007609761880237766,0.0302601730485598
0.295,-0.0066,-0.43,0.004643124370387265,0.9323133507346287,0.007621002988943725,0.030206013321880786
0.296,-0.003,0.57,0.004604986851109145,0.9211613962445648,0.00743604345421739,0.028524442943713105
0.297,-0.0041,-0.43,0.004580065248457915,0.921524923134494,0.007315178539082478,0.02857925809296043
0.298,0.0068,-0.43,0.004581348479311534,0.9211613962445648,0.007321401958594925,0.028524442943713105
0.299,-0.0038,0.57,0.004578413767359046,0.9215249231344916,0.007307169177659974,0.02857925809296008
0.3,0.0053,0.57,0.004588972604598408,0.9215249231344916,0.007358377480140306,0.02857925809296008
0.301,0.0017,0.57,0.004551134567829977,0.9098727668770261,0.007174870377210775,0.02682226376324031
0.302,0.0028,1.57,0.004549040857710867,0.9098727668770235,0.007164716291239467,0.026822263763239908
0.303,0.0035,-0.43,0.0045407671693636275,0.9095045826589637,0.007124590515464272,0.026766746349198296
0.304,-0.0027,-0.43,0.004542871226864247,0.9091362493327725,0.007134794784218988,0.026711206451580618
0.305,0.0028,0.57,0.004540281948032998,0.8976964151783609,0.007122237286590152,0.024986227546551092
0.306,-0.0023,2.57,0.0045595319971748404,0.8973232348475602,0.00721559627270483,0.02492995678338143
0.307,0.0057,-0.43,0.004548904823432703,0.907661421315074,0.007164056551506203,0.026488821477748167
0.308,0.005,0.57,0.004527567722935869,0.907661421315074,0.007060575773128263,0.026488821477748167
0.309,-0.0012,-0.43,0.004548406740705152,0.907661421315074,0.00716164094736396,0.026488821477748167
0.31,-0.0033,-0.43,0.004562788769096983,0.9076614213150713,0.007231390981716617,0.026488821477747764
0.311,-0.0026,1.57,0.004463197512239538,0.9076614213150713,0.006748392798304831,0.026488821477747764
0.312,-0.0048,-0.43,0.004504670237528832,0.8958289589481389,0.006949527432086368,0.02470463932073257
0.313,-0.0019,0.57,0.004486973253081978,0.8958289589481415,0.006863700507018717,0.024704639320732972
0.314,0.0054,2.57,0.004489719601851233,0.8962027614981424,0.006877019763230774,0.024761003906503567
0.315,0.0007,-0.43,0.004413279068135301,0.8950808855273986,0.006506298074511951,0.024591839532486292
0.316,0.0014,0.57,0.004442725197244614,0.8950808855273986,0.006649106061047002,0.024591839532486292
0.317,-0.004,-1.43,0.004364161328233418,0.8950808855273986,0.006268086610027069,0.024591839532486292
0.318,-0.0109,0.57,0.004364161328233418,0.9058145094939164,0.006268086610027069,0.026210331082874922
0.319,-0.0101,-1.43,0.004353112146797429,0.8939576016546394,0.006214500233771082,0.024422462865069987
0.32,0.0022,-0.43,0.004355018771712408,0.8943321863731114,0.006223746992969035,0.024478945391721074
0.321,0.0004,1.57,0.004341389218625568,0.8943321863731092,0.006157646317172956,0.024478945391720738
0.322,-0.0043,0.57,0.004361458083754167,0.9178831754041683,0.006254976401219633,0.02803012967663384
0.323,-0.0028,0.57,0.0043131359323992525,0.9182480001158914,0.006020623386111276,0.02808514052060775
0.324,-0.0039,0.57,0.0043810530668405455,0.9178831754041683,0.006350008249730719,0.02803012967663384
0.325,0.0048,-0.43,0.004308130137613222,0.9290744801773612,0.0059963462571295065,0.02971763356811895
0.326,-0.0006,0.57,0.00429706741650529,0.9287139084185372,0.005942694216103749,0.029663264014388936
0.327,0.002,-0.43,0.004276035432952242,0.9287139084185372,0.005840693195429719,0.029663264014388936
0.328,-0.0042,0.57,0.004244108159419841,0.9287139084185372,0.005685852142067835,0.029663264014388936
0.329,0.0049,0.57,0.00423455439562204,0.9283531966138967,0.005639518249869966,0.029608873343562644
0.33,0.006,0.57,0.004206296367808748,0.9287139084185321,0.005502472323035682,0.029663264014388166
0.331,0.0027,0.57,0.004137619071561755,0.9390631808686948,0.005169400822829481,0.031223800331433408
0.332,0.0053,1.57,0.004029173025896668,0.9489467454023126,0.00464345863967776,0.0327141139231225
0.333,0.0028,0.57,0.004042585531576519,0.9489467454023126,0.004708506677856867,0.0327141139231225
0.334,-0.0027,-0.43,0.0040166132628431175,0.9590777130049581,0.004582546237019455,0.03424173269505739
0.335,0.0024,1.5699999999991119,0.004027775163178161,0.9594268735081458,0.004636679277964669,0.03429438157915297
0.336,0.0089,-0.43,0.004036529408506117,0.9597759069889233,0.004679135661426081,0.03434701130991336
0.337,0.0067,0.57,0.004057773130069354,0.9594268735081458,0.004782163570177516,0.03429438157915297
0.338,-0.0016,0.57,0.003984272715798103,0.9594268735081433,0.004425700887676746,0.03429438157915258
0.339,-0.0005,0.57,0.00399440714023841,0.9594268735081433,0.004474850870808285,0.03429438157915258
0.34,-0.007,0.57,0.004051128821788051,0.9594268735081433,0.004749939970123035,0.03429438157915258
0.341,-0.0009,0.57,0.004076274458004096,0.9369207338416798,0.004871891404378635,0.030900747053137514
0.342,-0.003,2.57,0.004076234976219074,0.9369207338416777,0.004871699925417076,0.0309007470531372
0.343,-0.0037,-0.43,0.004038088692390308,0.937278148432589,0.004686697884328496,0.03095464054681464
0.34400000000000003,-0.0015999999999996948,-0.43,0.004032714381481965,0.9035932322947303,0.004660633523984741,0.02587539123505017
0.34500000000000003,0.0038999999999997943,0.57,0.0040399262417598935,0.8920823187475716,0.004695609640595511,0.024139694477697256
0.34600000000000003,0.00019999999999980016,0.57,0.003992524385582897,0.8920823187475694,0.004465719877715947,0.02413969447769692
0.34700000000000003,-0.003399999999999839,-0.4299999999995559,0.003988481192537248,0.8920823187475694,0.004446111179544509,0.02413969447769692
0.34800000000000003,-0.0004999999999996559,0.57,0.003967520998695907,0.9028515921209006,0.004344458324978995,0.025763561497161414
0.34900000000000003,0.0056999999999997,0.57,0.003926945894566949,0.9032224883283408,0.004147676978860605,0.02581948784409566
0.35000000000000003,0.00030000000000003884,-0.43,0.003977853257268387,0.9032224883283408,0.004394567765089709,0.02581948784409566
0.35100000000000003,0.000999999999999878,0.5699999999995559,0.003957843197388316,0.9032224883283408,0.004297522875036059,0.02581948784409566
0.352,-0.0012,-0.43,0.003984522906837024,0.9032224883283408,0.004426914265448227,0.02581948784409566
0.353,-0.0026,-0.43,0.0039955742236870775,0.8917067889139598,0.004480510998046195,0.024083069439917337
0.354,-0.0052,0.57,0.004043142453524003,0.8920823187475694,0.004711207640746829,0.02413969447769692
0.355,-0.0066,-0.4300000000004441,0.00404840064347811,0.8924576905651239,0.004736708837096859,0.02419629568870088
0.356,-0.0048,-1.43,0.004063502288605003,0.903963824207379,0.0048099488723467336,0.025931271698268855
0.357,-0.0019,-0.43,0.00409536676671055,0.8811814395735049,0.004964485380128472,0.022495983007082162
0.358,0.0047,0.57,0.004055396194209586,0.8920823187475694,0.004770635894570432,0.02413969447769692
0.359,-0.0037,0.5699999999995559,0.004033293179139624,0.8920823187475694,0.004663440579805036,0.02413969447769692
0.36,-0.0004,-0.43,0.004036443838813467,0.8920823187475694,0.004678720665095992,0.02413969447769692
0.361,0.0061,-0.43,0.004037455204799405,0.8920823187475694,0.004683625592992141,0.02413969447769692
0.362,-0.0,0.57,0.0040322776797996635,0.880040414622221,0.004658515605947555,0.02232393121467764
0.363,0.0021,0.5699999999991118,0.004004724264712951,0.8804209205801764,0.004524886913493934,0.02238130658759403
0.364,-0.0047,-1.43,0.004018171325305583,0.8804209205801764,0.004590102536264579,0.02238130658759403
0.365,0.0054,-0.43,0.0040070442871129,0.8444710766597404,0.004536138569914478,0.016960535485074018
0.366,-0.0011,-0.43,0.00400723418263882,0.8444710766597404,0.004537059526200719,0.016960535485074018
0.367,-0.0022,-1.4299999999995558,0.004092121343294963,0.8440743647855126,0.004948745709161432,0.01690071646976479
0.368,-0.0011,-0.43,0.004073057924888367,0.8325451335001973,0.004856291845734599,0.015162257634615872
0.369,0.0015,0.57,0.003928879171132596,0.8666728340235877,0.004157052993369352,0.020308273099998407
0.37,-0.0011,-0.43,0.003829765945619677,0.8554482259384679,0.003676373168800559,0.018615747500176773
0.371,0.0044,2.5699999999991117,0.00386695709159517,0.8678314348506058,0.003856742977476418,0.020482975106948843
0.372,-0.0007,0.57,0.003900083843825675,0.8554482259384679,0.00401740126872149,0.018615747500176773
0.373,0.0088,-0.43,0.0040788253745877075,0.8550566070351584,0.004884262852584003,0.018556696438954946
0.374,-0.0024,1.57,0.004069397324021296,0.8550566070351584,0.004838538645054324,0.018556696438954946
0.375,-0.0009,-0.4299999999995559,0.004145023844941402,0.8550566070351584,0.005205312530380924,0.018556696438954946
0.376,-0.002,0.57,0.004124063246379207,0.8554482259384679,0.005103657712998157,0.018615747500176773
0.377,0.0017,-0.43,0.00412843691987507,0.8550566070351584,0.005124869176935821,0.018556696438954946
0.378,0.0006,-0.43,0.004124494757938986,0.8662862894030371,0.005105750459952771,0.020249987174931445
0.379,0.0054,0.5699999999991118,0.004128749145415192,0.8658995722258372,0.00512638340994635,0.02019167523055548
0.38,-0.0008,-1.43,0.004136314876737012,0.8655126822606896,0.005163075732143382,0.020133337231993675
0.381,-0.0,-1.43,0.004345409309058835,0.8655126822606896,0.006177142972177502,0.020133337231993675
0.382,0.0051,-0.43,0.004337702897431146,0.8655126822606896,0.006139768377918437,0.020133337231993675
0.383,-0.0029,-1.4299999999991118,0.004349639445632986,0.853095815896728,0.006197658310023106,0.018261034517172897
0.384,0.0037,0.57,0.0043660369837965245,0.852703116608418,0.006277183173904995,0.01820182054787828
0.385,0.0029,0.57,0.0043703079389639755,0.853095815896728,0.006297896473971734,0.018261034517172897
0.386,-0.0047,-0.43,0.004376030686678703,0.8404955318423424,0.006325650684909084,0.01636107478892691
0.387,0.0001,0.5699999999995559,0.004356767817373899,0.8408939321185144,0.006232229523502951,0.016421148393393422
0.388,-0.0043,-0.43,0.004304883944372128,0.8408939321185144,0.005980602852658806,0.016421148393393422
0.389,0.0081,-0.43,0.004315278903299899,0.8408939321185144,0.006031016377271114,0.016421148393393422
0.39,-0.0046,-1.43,0.004315053318632264,0.8404955318423424,0.006029922335604091,0.01636107478892691
0.391,0.0001,-0.4299999999995559,0.004373674527658986,0.8400969426323056,0.006314223772926423,0.016300972695679282
0.392,-0.0013,0.57,0.004373674527658986,0.8396981642193537,0.006314223772926423,0.016240842073081237
0.393,0.0023,-0.43,0.004371861821296613,0.801924815000115,0.0063054325004019834,0.010545109976268209
0.394,0.0034,0.57,0.004384745306330523,0.8023423676584475,0.006367914891565084,0.010608071512042282
0.395,0.0023,-0.4299999999995559,0.004384469129297033,0.8023423676584475,0.006366575486785138,0.010608071512042282
0.396,-0.0024,0.57,0.00437588892442348,0.8023423676584476,0.006324963165603579,0.010608071512042298
0.397,0.0002,-1.43,0.004383620523481599,0.8023423676584475,0.006362459913990688,0.010608071512042282
0.398,-0.0038,0.57,0.004371856817561757,0.8155323457676935,0.006305408233263264,0.0125969494703365
0.399,-0.0074,0.57,0.004372994631057671,0.8155323457676935,0.006310926406935622,0.0125969494703365
0.4,0.0035,0.57,0.004354056747176864,0.8268937506957997,0.006219081361489654,0.014310102263283584
0.401,0.0049,0.57,0.004355307555028477,0.8268937506957997,0.006225147535762272,0.014310102263283584
0.402,-0.0041,0.57,0.004432741907612489,0.8264886018046331,0.006600689052275921,0.01424901105503482
0.403,0.0071,0.57,0.004456118432152767,0.8264886018046332,0.006714060639739636,0.014249011055034835
0.404,-0.0034,0.57,0.0044508276203832735,0.8268937506958026,0.006688401233943635,0.01431010226328402
0.405,-0.0045,1.57,0.004425512786896283,0.8268937506958026,0.006565629225903913,0.01431010226328402
0.406,-0.0056,1.57,0.004395248607030594,0.8385006910629075,0.006418853852655048,0.016060278622044465
0.40700000000000003,-0.0002000000000001388,-1.43,0.004373161866513262,0.8272987011754356,0.006311737466297669,0.014371163553641892
0.40800000000000003,-0.002699999999999961,0.57,0.004369507020402603,0.8272987011754356,0.006294012175064277,0.014371163553641892
0.40900000000000003,-0.0019999999999997004,-0.43,0.004353122553348918,0.8396981642193565,0.006214550703517355,0.016240842073081657
0.41000000000000003,0.0033999999999997223,-0.43,0.004343498845772065,0.8392991963338029,0.006167877597624536,0.016180682880467943
0.41100000000000003,-0.0015999999999999613,-0.43,0.004396402764558117,0.8392991963338003,0.006424451291694928,0.01618068288046756
0.41200000000000003,-0.000900000000000161,0.57,0.004391021494563054,0.8396981642193567,0.006398353181137047,0.016240842073081692
0.41300000000000003,-0.0037999999999995394,0.57,0.004401183192843545,0.8396981642193567,0.006447635437077259,0.016240842073081692
0.41400000000000003,0.004499999999999794,-0.43,0.004396227898519452,0.839299196333806,0.006423603225492325,0.016180682880468412
0.41500000000000004,0.0008000000000004219,-0.43,0.004393129335974003,0.8281080080642633,0.006408575801119299,0.014493196556225638
0.41600000000000004,0.0083999999999995,-0.43,0.00436376998041596,0.828512365053749,0.00626618864939399,0.01455416835595187
0.417,-0.0006,-0.43,0.004421606508820537,0.8412921437292434,0.006546684538649013,0.01648119354955336
0.418,-0.0018,-2.43,0.004417341297527296,0.8297242536694669,0.006525999095252598,0.01473690547164271
0.419,-0.005,-0.43,0.004464885326575813,0.8297242536694619,0.006756578368846675,0.014736905471641956
0.42,-0.0058,1.57,0.004483103110231626,0.8420880020248123,0.0068449310685634954,0.016601198678361944
0.421,-0.0051,-0.43,0.004481788956791388,0.8420880020248123,0.006838557680533378,0.016601198678361944
0.422,-0.0127,-0.43,0.004475260922851575,0.8048431344681992,0.006806897988370908,0.010985154775225447
0.423,0.0003,0.57,0.004481220645312332,0.8175832294802633,0.006835801480635341,0.012906196186075577
0.424,-0.0088,0.57,0.004506351182439283,0.8179927891822589,0.00695767968725195,0.012967952487500645
0.425,0.0024,0.57,0.004531245458214256,0.8048431344681908,0.007078412072363579,0.010985154775224175
0.426,-0.002,-0.43,0.004631196642683086,0.8048431344681933,0.00756315583453342,0.010985154775224559
0.427,-0.0009,-1.43,0.004628718556206807,0.8044268798801988,0.007551137598152555,0.010922388971654283
0.428,-0.0046,-0.43,0.004710192847043156,0.8044268798801988,0.007946272027724506,0.010922388971654283
0.429,0.0055,-0.43,0.00487257128726486,0.8048431344681934,0.008733775811963163,0.010985154775224576
0.43,0.0146,0.57,0.005105881492407045,0.8163533175329212,0.009865284830032973,0.012720741385282787
0.431,0.0008,0.57,0.005177018400176355,0.8044268798802047,0.010210284966694464,0.01092238897165517
0.432,0.0062,-0.43,0.005190865847045105,0.7923209394560993,0.010277442384860912,0.009096969863715311
0.433,0.0047,-0.43,0.005170809967937596,0.7923209394560994,0.01018017528048528,0.009096969863715327
0.434,0.0033,0.57,0.005162744618249972,0.7935880979330562,0.01014105990659981,0.009288040959028094
0.435,-0.0033,-0.43,0.005175689338401424,0.7931659367082042,0.010203839276147023,0.009224384511079483
0.436,0.0079,0.57,0.005169363546489311,0.8060906085428595,0.010173160418397845,0.011173257717480987
0.437,0.0003,0.57,0.005154669377990059,0.8436774663705209,0.010101896565366605,0.016840869326523095
0.438,-0.0034,0.57,0.005165279897196707,0.8546648086868891,0.010153355515314414,0.01849761831975605
0.439,0.0002,-0.43,0.005203085096436877,0.8546648086868891,0.01033670336263258,0.01849761831975605
0.44,-0.01,-0.43,0.005147713763241896,0.8546648086868892,0.01006816318962777,0.018497618319756066
0.441,-0.0009,-0.43,0.005130414898257454,0.8546648086868892,0.009984267066351298,0.018497618319756066
0.442,0.0027,-0.43,0.0051777894761081125,0.8550566070352277,0.010214024534665219,0.018556696438965393
0.443,-0.005,0.57,0.005239009096804893,0.8546648086868891,0.010510927762104437,0.01849761831975605
0.444,0.0015,-0.43,0.005234886047783757,0.8550566070352251,0.01049093177801743,0.018556696438965008
0.445,-0.0028,0.57,0.005223769356165185,0.8902030854182549,0.01043701799053501,0.023856330417786505
0.446,0.0026,0.57,0.005219450165262829,0.8902030854182572,0.0104160707565561,0.023856330417786856
0.447,-0.0011,1.57,0.005227729312896176,0.8902030854182599,0.010456223008804796,0.023856330417787258
0.448,0.0011,0.57,0.005265642238324903,0.8913311008646414,0.010640093307139449,0.024026420545256916
0.449,0.004,-1.43,0.005252025866703895,0.8909552543993324,0.010574056558883318,0.023969747763515768
0.45,-0.0011,-0.43,0.005238892484177886,0.8909552543993323,0.010510362213593609,0.02396974776351575
0.451,0.0083,-0.43,0.005228050311316463,0.8905792493175327,0.010457779788574111,0.023913051064461066
0.452,0.0047,-0.43,0.005207126490340946,0.8905792493175327,0.01035630333531804,0.023913051064461066
0.453,0.0014,0.57,0.005207298732322755,0.8902030854182577,0.010357138675356375,0.023856330417786925
0.454,0.0021,0.57,0.0051691323076416724,0.901737988173383,0.010172038955059918,0.025595644437167615
0.455,-0.0041,-1.43,0.005198668163052322,0.9017379881733805,0.010315282096666984,0.02559564443716723
0.456,-0.0019,0.57,0.005179250435405993,0.8898267625000871,0.010221109902489475,0.023799585793121796
0.457,0.0006,-0.43,0.0052218059067991075,0.8777539149487156,0.010427495643825462,0.02197915666201222
0.458,0.0028,1.57,0.005222907240958638,0.867059206318338,0.01043283689982692,0.02036653304056538
0.459,-0.0023,-0.43,0.005229009589913698,0.8670592063183326,0.010462432102787937,0.020366533040564558
0.46,0.0068,-0.4299999999995559,0.005287466962383034,0.8781354116732693,0.010745938964741996,0.022036681429706443
0.461,0.0057,0.57,0.0052839356188870085,0.8781354116732693,0.010728812637116425,0.022036681429706443
0.462,-0.003,0.57,0.00532920057831444,0.8781354116732693,0.010948338867284921,0.022036681429706443
0.463,0.0003,-0.43,0.005391351359888407,0.8886968376116755,0.011249758043476438,0.023629207746511203
0.464,-0.0044,0.57,0.005456327823454559,0.8991342153023671,0.011564881226547577,0.025203029193330496
0.465,-0.0019,0.57,0.005440034827451292,0.8995066443079774,0.011485863371765626,0.025259186666387143
0.466,0.0072,1.57,0.005440329508645156,0.8995066443079774,0.011487292518116553,0.025259186666387143
0.467,0.001,-0.43,0.0053775715452723605,0.8995066443079774,0.01118292862855271,0.025259186666387143
0.468,-0.0066,-0.4299999999991118,0.005409639326252706,0.8995066443079774,0.011338451115649389,0.025259186666387143
0.46900000000000003,0.004299999999999755,1.57,0.005431733510941151,0.8666728340236483,0.01144560360478564,0.02030827310000753
0.47000000000000003,-0.00010000000000019985,-0.43,0.005415070773440693,0.8666728340236483,0.011364792575812398,0.02030827310000753
0.47100000000000003,-0.0036999999999996615,0.57,0.005405488904586553,0.8546648086868781,0.01131832237956953,0.01849761831975439
0.47200000000000003,0.0024000000000004218,1.569999999999556,0.005397158776161475,0.8658995722258923,0.011277922880418128,0.020191675230563786
0.47300000000000003,0.00999999999999974,0.57,0.005326125572772807,0.8781354116732638,0.010933425689788669,0.02203668142970562
0.47400000000000003,0.0053000000000002385,-0.43,0.005326046363457111,0.8781354116732638,0.01093304154004704,0.02203668142970562
0.47500000000000003,0.009599999999999394,-0.43,0.005254422654125019,0.9105559857329483,0.010585680510693507,0.026925284322636238
0.47600000000000003,-0.001300000000000422,-0.43,0.005270890099706046,0.9218362485717817,0.010665544411923846,0.02862620193888265
0.47700000000000004,-0.0089000000000002,-0.43,0.005267465111600404,0.9221995094380014,0.010648933887210821,0.028680976975198204
0.47800000000000004,-0.012500000000000205,0.57,0.005266726446112064,0.9120261329925144,0.010645351503573191,0.02714696349873344
0.47900000000000004,-0.016199999999999576,-1.43,0.0052470260608435335,0.9225626272695377,0.01054980847502368,0.02873573044373504
0.48,-0.0086,-0.43,0.005218016979603263,0.9225626272695377,0.010409120085464027,0.02873573044373504
0.481,-0.0038,-0.43,0.005009628339951673,0.9336978458051977,0.009398475802307293,0.030414777256620854
0.482,0.0023,-0.43,0.00504117587362612,0.9336978458051977,0.009551475191377069,0.030414777256620854
0.483,0.0001,1.57,0.005002804628289824,0.9336978458051978,0.009365382130826508,0.030414777256620867
0.484,0.0052,-0.4299999999991118,0.005004727555031126,0.943992479437454,0.009374707950704572,0.03196707474721004
0.485,-0.0014,1.57,0.004995483999332831,0.9436376079871327,0.009329878507323487,0.03191356472621333
0.486,0.0026,2.57,0.0050115810629698205,0.943992479437454,0.009407946128320166,0.03196707474721004
0.487,0.0033,-1.43,0.0049493778974082775,0.943992479437454,0.009106272899999603,0.03196707474721004
0.488,-0.0076,-0.43,0.004951519747522556,0.9436376079871326,0.00911666045556402,0.03191356472621331
0.489,0.0029,-0.43,0.00495366351130466,0.9436376079871326,0.009127057292044377,0.03191356472621331
0.49,0.0018,-1.43,0.004987330913999863,0.9436376079871326,0.009290337632659542,0.03191356472621331
0.491,-0.007,0.57,0.004886357700921166,0.9742238978561798,0.008800637230945858,0.036525581307492005
0.492,-0.0081,-0.4299999999995559,0.004901003500570606,0.9742238978561798,0.008871666504483575,0.036525581307492005
0.493,0.001,0.57,0.004894998179594372,0.9742238978561798,0.008842541868307153,0.036525581307492005
0.494,-0.0001,2.57,0.004872435640811799,0.9847751363539206,0.008733117953106048,0.038116571490117976
0.495,0.0009,-0.43,0.004888075507112713,0.9955510038337926,0.008808968256139752,0.03974143281548996
0.496,-0.0038,0.570000000000444,0.004894799628890488,0.9952145171809329,0.008841578936094859,0.039690694983964395
0.497,0.0063,1.57,0.004889588839960175,0.9952145171809329,0.008816307625470811,0.039690694983964395
0.498,-0.0002,-0.43,0.004900967792447461,0.9844349664422166,0.008871493327046556,0.03806527827083746
0.499,-0.0064,0.57,0.00491932740760759,0.9844349664422166,0.008960533881913486,0.03806527827083746
0.5,-0.001,-0.4299999999995559,0.004903990811012288,0.9749112447847124,0.008886154377838611,0.03662922432680083
0.501,0.0015,0.57,0.0049028799835648855,0.9847751363539206,0.008880767081241407,0.038116571490117976
0.502,0.0041,-0.43,0.0048332036050895075,1.0157714640908488,0.008542850226968835,0.04279041647404754
0.503,0.0033,1.57,0.0048372662311216355,1.0161011432372573,0.008562553171336813,0.04284012782172153
0.504,-0.0065,0.5699999999995559,0.004845713395569889,1.026221905493571,0.008603520272387935,0.04436620775953495
0.505,0.0,-0.43,0.004883091119761241,1.035273716106647,0.008784794949042846,0.04573110362682835
0.506,-0.0087,-0.43,0.0048734860650649844,1.0262219054935708,0.0087382123059851,0.04436620775953491
0.507,-0.0011,0.57,0.004870634987620335,1.0262219054935708,0.00872438513611111,0.04436620775953491
0.508,-0.0037,0.5699999999991118,0.00489203027460239,1.0262219054935708,0.008828148107600648,0.04436620775953491
0.509,-0.0081,-1.43,0.004884329938065106,1.0157714640908488,0.008790802976345893,0.04279041647404754
0.51,0.0028,-0.43,0.00501291310318779,1.0157714640908488,0.009414406263735782,0.04279041647404754
0.511,0.0071,-0.43,0.004981803226442255,1.015771464090851,0.009263529425463058,0.042790416474047875
0.512,0.0082,-1.43,0.004955728776893044,1.024915574673193,0.009137073427586078,0.044169229981909294
0.513,0.0092,-1.43,0.004959868093141953,1.024588731726485,0.00915714830455697,0.04411994629643632
0.514,0.0016,0.57,0.0049599408642636515,1.0245887317264848,0.009157501230312648,0.044119946296436285
0.515,-0.001,-0.43,0.0049405678092312765,1.0336548442915061,0.00906354568960522,0.045486998712948284
0.516,-0.0017,-0.43,0.0050111121131686575,1.0333307655830746,0.00940567181319231,0.045438131838825106
0.517,0.0059,-0.43,0.004987084334321629,1.0323579190475165,0.009289141769283466,0.045291439174489447
0.518,0.0052,0.57,0.004987529840400549,1.032682303056905,0.009291302386928098,0.045340352084044896
0.519,0.0026,-0.43,0.00499438129609279,1.032682303056909,0.009324530611548415,0.0453403520840455
0.52,0.0048,0.5699999999991118,0.004990147553444356,1.0222979052083265,0.009303997784945435,0.04377451931160702
0.521,0.0041,-1.43,0.00506183119559089,1.0226254803299824,0.009651649476766895,0.04382391339958432
0.522,0.0092,1.57,0.00506490350847453,1.03170884505588,0.009666549595396734,0.045193567218632075
0.523,0.0001,0.57,0.005062687714869239,1.021314549447408,0.009655803428313988,0.043626241992125996
0.524,0.0012,-2.429999999998224,0.005025380334876703,1.0213145494474078,0.009474869907311827,0.04362624199212597
0.525,0.0048,1.57,0.004999229376693506,1.021642439868155,0.009348042857473092,0.043675683623124774
0.526,-0.0006,0.57,0.00493149957741569,1.0219702250880656,0.009019566532881104,0.04372510939119924
0.527,0.0001,0.57,0.0049366085219437585,1.0502777770251839,0.009044343918005793,0.047993521789968685
0.528,-0.0006,-1.4299999999995558,0.004859592060314215,1.0594402026004899,0.008670829091165929,0.04937509696168661
0.529,0.0001,-0.43,0.004697630127405163,1.0591240139187537,0.007885345286207952,0.04932741980145491
0.53,-0.0006,1.57,0.004419457778761543,1.0591240139187537,0.006536263616693768,0.04932741980145491
0.531,-0.0057,0.57,0.004444820825773848,1.05944020260049,0.006659269450933475,0.04937509696168665
0.532,-0.0002,-0.43,0.0044340480582906305,1.0685240647076568,0.006607023628469767,0.05074482577939131
0.533,0.0049,-1.43,0.004435712773625625,1.0784634481116928,0.00661509717335786,0.05224355613417978
0.534,0.0013,-0.43,0.004505307732010716,1.0688374726244245,0.006952619156062958,0.05079208363626199
0.535,-0.0052,0.57,0.004477226146720063,1.0691507886696665,0.0068164289410712646,0.05083932764009585
0.536,-0.0008,0.57,0.004480529153054278,1.0591240139187577,0.006832447877969581,0.049327419801455503
0.537,-0.0015,-0.43,0.0045052626384462086,1.0294338632369722,0.006952400461064744,0.04485052940934457
0.538,-0.0037,0.57,0.004592640605373072,1.0203302459657786,0.007376166568930016,0.043477821768629736
0.539,-0.0058,-0.43,0.004568927416814535,1.0307344676909644,0.0072611622266003555,0.04504664372504546
0.54,-0.0003,-2.43,0.004575543095714804,1.0307344676909602,0.007293246979737264,0.04504664372504483
0.541,-0.0039,-0.43,0.004606259425443672,1.0317088450558864,0.007442215191689414,0.045193567218633046
0.542,0.0012,-0.43,0.00475202401858544,1.0313841548810785,0.008149145055964629,0.045144608143295566
0.543,-0.0017,1.57,0.004692848394574096,1.0313841548810805,0.007862154814033554,0.04514460814329587
0.544,-0.0042,1.57,0.0047203675456170165,1.0313841548810783,0.007995617332553537,0.04514460814329553
0.545,-0.0038,-0.43,0.004771819395953501,1.0008714587095449,0.008245148777680983,0.04054368853895208
0.546,0.0013,0.57,0.004775185962815654,1.0008714587095449,0.00826147597075057,0.04054368853895208
0.547,0.0035,-0.43,0.004767718700945484,1.0111446696126931,0.008225261206200355,0.04209275575930301
0.548,-0.0044,0.57,0.004727523565658324,1.000871458709538,0.008030322634901083,0.04054368853895104
0.549,0.001,0.57,0.004733629456358149,1.0104819695732148,0.008059935014633852,0.041992829171816466
0.55,0.0003,-1.43,0.004692085196047719,1.010150456519111,0.00785845344994343,0.041942841294601456
0.551,0.0011,2.57,0.0046953508660925874,1.0196735157779564,0.00787429131311601,0.04337879535749488
0.552,0.0051,0.57,0.004693174005214266,1.0287829444179968,0.00786373396217029,0.04475237927740527
0.553,-0.0032,1.57,0.004675182252474099,1.0291084552913543,0.007776477468336363,0.0448014621034603
0.554,-0.0064,-1.43,0.004667683546014063,1.0291084552913543,0.0077401102036544845,0.0448014621034603
0.555,0.0027,0.57,0.004624154757166321,1.056908044567633,0.007529004062382781,0.04899328030840982
0.556,-0.0009,0.57,0.0046398317309972745,1.0569080445676273,0.007605034329704169,0.04899328030840895
0.557,0.0046,-0.43,0.004558655344721419,1.08584723269535,0.007211344679183,0.0533569352683676
0.558,0.0006,-0.43,0.004563727007482786,1.1122295692309954,0.007235941255006156,0.057335050105970196
0.559,0.0115,-0.43,0.004604038093490788,1.1380004466569382,0.0074314421647003765,0.06122096482499694
0.56,0.0039,-0.43,0.004532832441826899,1.129771989670914,0.007086108633549749,0.05998022002658035
0.561,-0.0026,-1.43,0.00452414783986246,1.129771989670914,0.0070439900068264925,0.05998022002658035
0.562,0.0036,-0.43,0.004473774398446341,1.129771989670914,0.006799688634759145,0.05998022002658035
0.5630000000000001,0.0003999999999999223,-0.43,0.0044206310820780765,1.1214831611301908,0.0065419539090784485,0.05873037197920806
0.5640000000000001,-0.00030000000000092144,-1.43,0.00432827957956089,1.138883055748782,0.006094067123042617,0.06135405085091896
0.5650000000000001,-0.008599999999999634,-0.43,0.004445975811841947,1.1479218094881192,0.006664870908233652,0.06271697791067016
0.5660000000000001,-0.005299999999999278,-1.43,0.004446744347565873,1.1482135457854832,0.0066685981566915594,0.06276096796786781
0.5670000000000001,0.0011999999999990783,0.57,0.00448371437992424,1.1482135457854834,0.006847895607423868,0.06276096796786784
0.5680000000000001,-0.007099999999999634,-0.43,0.004512694347904812,1.1485052079777707,0.006988442803348742,0.0628049468509792
0.5690000000000001,-0.0038000000000005217,-0.43,0.00450909091053836,1.1482135457854812,0.006970966834504151,0.06276096796786751
0.5700000000000001,-0.008499999999999511,0.57,0.004501565096941636,1.1574688241066613,0.006934468105493064,0.06415654413171042
0.5710000000000001,-0.004099999999999756,-1.43,0.0045447783353695075,1.1574688241066653,0.007144043888735545,0.06415654413171101
0.5720000000000001,-0.0018999999999989119,-0.43,0.004527767189744042,1.1490883102728253,0.007061543148267794,0.0628928711289772
0.5730000000000001,0.007899999999999279,0.57,0.004459115741604849,1.1400588049652798,0.006728597006346104,0.061531338613021846
0.5740000000000001,0.0014000000000003996,0.57,0.004462010906687845,1.1397649813676798,0.006742637992672503,0.06148703381796811
0.5750000000000001,0.004999999999999156,0.57,0.0045047926687329255,1.1223787590554934,0.006950121199561907,0.05886541655307888
0.5760000000000001,-0.0025999999999999223,-2.43,0.0044958818722143695,1.1131326123836973,0.006906905573341071,0.05747121732375643
0.577,-0.0019,-1.43,0.004504139489975698,1.1131326123836973,0.006946953409907081,0.05747121732375643
0.578,-0.0011,-0.43,0.004507291734945807,1.112831679422077,0.00696224118357592,0.05742584052863716
0.579,0.0029,-1.43,0.004515528487360427,1.1041124094729522,0.007002187827277469,0.05611108748882164
0.58,0.0098,0.57,0.004528974497352358,1.1041124094729542,0.007067398354839497,0.056111087488821945
0.581,-0.0022,-1.43,0.004529317416169493,1.1032019827174842,0.007069061444260799,0.05597380691931695
0.582,0.0026,1.57,0.0045035230026924935,1.1028983401225128,0.006943963566749359,0.05592802154656379
0.583,-0.0079,0.57,0.004554368852490832,1.1032019827174842,0.0071905560273885375,0.05597380691931695
0.584,-0.0014,0.57,0.004527906592681121,1.0944059944547924,0.007062219225340181,0.054647485750912654
0.585,0.0022,-0.43,0.0045426864936457655,1.0944059944547924,0.007133898864117585,0.054647485750912654
0.586,-0.0054,-0.43,0.004609585860281476,1.0940999107356641,0.007458347752263446,0.05460133228823631
0.587,0.0095,0.57,0.004617956519412514,1.1025946139076679,0.007498943817438505,0.05588222356501615
0.588,-0.006,1.57,0.004627415309346951,1.1113257922820794,0.007544817104911381,0.05719877224121367
0.589,0.0038,-0.4299999999991118,0.004632584720372558,1.111024369923809,0.00756988774076299,0.057153321651414665
0.59,0.0056,1.57,0.004596454881772641,1.111024369923809,0.007394665065988439,0.057153321651414665
0.591,0.0136,-0.43,0.004605572440008684,1.0843038700558927,0.007438883446237052,0.05312421616073543
0.592,-0.0031,-0.43,0.004743698527997186,1.1110243699237894,0.008108768049417814,0.057153321651411716
0.593,-0.0052,0.5699999999995559,0.004814429238641772,1.1110243699237894,0.008451798209200417,0.057153321651411716
0.594,-0.007,-0.43,0.005003008868682879,1.1013788714656567,0.009366372656922247,0.05569890534220698
0.595,0.002,-0.43,0.005007648616939233,1.0919549223682123,0.009388874531584948,0.05427789580869948
0.596,-0.0027,1.57,0.005025845486591936,1.0919549223682106,0.009477125802463246,0.05427789580869921
0.597,-0.0013,0.5699999999991118,0.0050242316923931555,1.0919549223682106,0.009469299215160234,0.05427789580869921
0.598,0.0024,-1.43,0.005019825790749482,1.0919549223682106,0.009447931450987608,0.05427789580869921
0.599,-0.0013,-0.43,0.005005054733476003,1.0919549223682106,0.009376294702388543,0.05427789580869921
0.6,0.002,-1.43,0.0050075980761208425,1.0916481514010663,0.00938862941846718,0.054231638717918286
0.601,-0.0005,-1.4299999999991118,0.005010423609907391,1.0830675964642997,0.009402332706578354,0.05293780210633932
0.602,0.0002,0.57,0.005009430580487109,1.063181994958425,0.009397516707451472,0.049939310812806954
0.603,-0.002,1.57,0.004984122386586696,1.0628669194104132,0.009274776900112462,0.0498918014987317
0.604,-0.0013,-2.43,0.004976447123648825,1.0628669194104068,0.009237553370927505,0.04989180149873073
0.605,0.0038,-0.4299999999986677,0.004976447123648825,1.0540520956909851,0.009237553370927505,0.048562640187271286
0.606,0.0009,2.57,0.004981291969532645,1.0540520956909851,0.009261049929105746,0.048562640187271286
0.607,0.0024,-2.43,0.0049844687835171346,1.0537342902286908,0.009276456857705331,0.04851471923746019
0.608,0.0071,-2.43,0.0049659692799583115,1.0628669194103946,0.00918673787137181,0.04989180149872889
0.609,0.0006,0.5699999999995559,0.004965942849247377,1.0631819949584065,0.009186609687575658,0.04993931081280418
0.61,-0.0002,-0.43,0.0048347838806541334,1.0731708561349056,0.008550514255429657,0.051445501775204155
0.611,-0.0023,-0.43,0.004840006862224711,1.0734829074019394,0.008575844697982392,0.05149255506685642
0.612,-0.0045,0.57,0.004866445138087058,1.0644413645245638,0.00870406518256099,0.05012920744119366
0.613,0.002,-2.429999999998224,0.004865002007272084,1.0647559741732893,0.008697066279403701,0.050176646503687486
0.614,-0.0103,1.57,0.004864914326212466,1.0647559741732893,0.008696641043355359,0.050176646503687486
0.615,-0.0013,0.57,0.004897980207967774,1.0647559741732893,0.008857004124660612,0.050176646503687486
0.616,-0.006,-0.43,0.004822765433481329,1.0647559741732893,0.008492227129279573,0.050176646503687486
0.617,0.0078,0.5699999999995559,0.004796056084834072,1.0559569198557768,0.008362691994531723,0.04884986301390545
0.618,-0.0049,-0.43,0.0048110930604573065,1.065699245856022,0.008435618395294248,0.05031887966305528
0.619,-0.0002,1.57,0.0047789781473910435,1.0660134842697293,0.008279867326767866,0.05036626274811391
0.62,-0.0079,0.57,0.0047745956254944075,1.0660134842697293,0.008258612949811187,0.05036626274811391
0.621,0.0012,-0.4299999999995559,0.004764293718982874,1.0660134842697293,0.008208650711279837,0.05036626274811391
0.622,0.0048,0.57,0.00475008397611156,1.0569080445675882,0.00813973622811976,0.04899328030840305
0.623,0.0016,-0.43,0.004760811150959976,1.0569080445675885,0.008191760935191604,0.04899328030840309
0.624,0.0063,-1.43,0.0047316894765619885,1.0666416833681676,0.008050526490763706,0.050460987040296654
0.625,-0.0039,0.57,0.004755826454215445,1.0663276300798379,0.008167586127598672,0.05041363186974858
0.626,-0.0028,0.57,0.00472972094606252,1.0660134842697295,0.008040979501547625,0.05036626274811395
0.627,-0.0017,-0.43,0.004725648855791808,1.0381350975178896,0.008021230657467286,0.0461625629038611
0.628,-0.0028,-0.43,0.004730101502887918,1.028782944417953,0.0080428251279726,0.04475237927739867
0.629,-0.0035,-0.4300000000004441,0.004744812716022209,1.028782944417953,0.00811417164416143,0.04475237927739867
0.63,0.0008,-1.43,0.0047365692565403995,1.0196735157778996,0.008074192472491354,0.0433787953574863
0.631,0.003,-0.43,0.0046456610300781515,1.0196735157778996,0.007633305293998331,0.0433787953574863
0.632,-0.0068,0.57,0.0046410122323432765,1.0196735157778993,0.00761075953112873,0.043378795357486274
0.633,-0.0003,-0.43,0.004654609360838745,1.0091552639337877,0.007676702953976866,0.04179277913522456
0.634,-0.0039,-0.43,0.004632935846820666,1.0088233149062715,0.00757159063559468,0.0417427255188625
0.635,-0.0094,-0.43,0.00468820837208843,1.019016362344233,0.007839651609412142,0.04327970512635691
0.636,-0.0029,-1.43,0.004686889385642189,1.0193449920179465,0.007833254782244965,0.043329258227133634
0.637,0.0033,-1.4299999999995558,0.00465598549176092,1.0196735157778993,0.007683376920713712,0.043378795357486274
0.638,-0.0043,-0.43,0.004561813055353942,1.0193449920179465,0.007226658960249178,0.043329258227133634
0.639,0.0004,-0.43,0.0045465726360766415,1.0091552639337877,0.007152745897419708,0.04179277913522456
0.64,0.0029,-0.43,0.004621274947808144,1.0091552639337917,0.007515037548328614,0.041792779135225167
0.641,0.012,-2.429999999999112,0.004602071979702896,1.0081590889561516,0.007421906896064374,0.04164256884380369
0.642,0.0083,-0.43,0.004401746549397266,1.0081590889561516,0.0064503676065532384,0.04164256884380369
0.643,0.0137,-0.43,0.004423841039838401,1.0186876266542588,0.006557521578530443,0.04323013603970044
0.644,0.0047,0.57,0.004408947320661964,1.0183587848453495,0.006485289943611311,0.04318055095168221
0.645,0.0057,-0.4299999999995559,0.004381695332730215,1.018687626654261,0.0063531231141050245,0.04323013603970077
0.646,0.0003,0.57,0.004377271293725321,1.018687626654261,0.00633166738726582,0.04323013603970077
0.647,0.0028,-0.43,0.00437041591300153,1.0084912566163857,0.0062984201270075545,0.04169265542714948
0.648,0.0021,0.57,0.0043726919937966124,1.0084912566163902,0.0063094586752096,0.041692655427150144
0.649,-0.0019,-0.4299999999995559,0.004366136121416896,0.9991968508383597,0.006277663972039873,0.04029117934930821
0.65,0.0017,0.57,0.004365591412625686,1.0281316134968839,0.006275022240577244,0.04465416700579817
0.651,-0.0005,-1.43,0.004373342997510338,1.0186876266542657,0.0063126159163274,0.043230136039701474
0.652,0.0009,-0.43,0.004385585507958766,1.0186876266542784,0.0063719897056898,0.04323013603970338
0.653,-0.0016,1.569999999999556,0.004392717084788191,1.0287829444179764,0.006406576463224192,0.044752379277402186
0.654,-0.0064,0.57,0.00439194656852008,1.0287829444179766,0.006402839609513031,0.044752379277402214
0.655,-0.0035,0.57,0.004390226821174412,1.0002019520105454,0.006394499170100023,0.04044273559532006
0.656,-0.002,-0.43,0.004381311618838266,1.0005367613598775,0.006351262176522658,0.04049322051118588
0.657,-0.0017,-1.4299999999991118,0.004429644548888946,0.9800020126539117,0.006585667466204493,0.037396846222908876
0.658,-0.0006,0.57,0.004426784338066663,0.9496018517564649,0.006571796001229258,0.032812895481160016
0.659,-0.002,1.57,0.004402675060702235,0.9185604361933357,0.0064548707053967355,0.02813225183668866
0.66,0.0045,0.57,0.004407690457896621,0.91819573562117,0.00647919440418733,0.02807725971135304
0.661,-0.0057,-0.43,0.0044101644855390094,0.9181957356211676,0.006491192956014972,0.02807725971135269
0.662,0.0034,0.57,0.004413829213053339,0.918560436193336,0.0065089661701300825,0.028132251836688712
0.663,-0.0003,-0.43,0.004419441877247191,0.9181957356211676,0.0065361864974486875,0.02807725971135269
0.664,-0.0057,-1.43,0.004414864549889235,0.8856766571196139,0.006513987351976123,0.02317380362370065
0.665,0.0008,-0.43,0.004309115081441947,0.8739297883352956,0.00600112304271338,0.021402527870958667
0.666,0.0015,0.57,0.004357294272480579,0.8735464549255408,0.006234782728153621,0.021344726154911505
0.667,-0.004,1.57,0.004345838268690626,0.8735464549255408,0.006179223342778794,0.021344726154911505
0.668,0.0044,0.57,0.004275244607782832,0.8735464549255435,0.0058368578475058745,0.021344726154911908
0.669,-0.0032,-0.43,0.0042698156675084415,0.8735464549255412,0.005810528545385157,0.021344726154911554
0.67,-0.0079,0.57,0.004295444264727595,0.8616342280145246,0.005934822246366981,0.019548516537178207
0.671,-0.0018,-0.43,0.004223838329957709,0.8616342280145247,0.00558754742017553,0.019548516537178224
0.672,0.0037,-0.43,0.004284559581742978,0.8739297883352983,0.005882033655536077,0.021402527870959084
0.673,0.0059,1.57,0.004276111054979344,0.8735464549255435,0.005841059947520905,0.021344726154911908
0.674,-0.005,-0.43,0.004275332675449983,0.8735464549255436,0.00583728495852539,0.02134472615491192
0.675,-0.0006,-0.43,0.004255777408582031,0.8624113142461546,0.005742445725932178,0.01966569108174393
0.676,-0.0017,-0.43,0.004457332536057867,0.8624113142461545,0.006719948807026007,0.019665691081743913
0.677,-0.0028,-0.43,0.004456253428693582,0.8624113142461518,0.006714715346649037,0.019665691081743514
0.678,-0.0039,-0.43,0.004454697409910653,0.8624113142461516,0.00670716895885131,0.01966569108174348
0.679,0.0008,0.57,0.004512330434983298,0.8746959511700988,0.006986677896613374,0.021518055308683236
0.68,0.0033,0.57,0.004517564443587613,0.8746959511700965,0.007012061818130344,0.021518055308682886
0.681,-0.0007,-1.43,0.0045563692738270845,0.8635756324840056,0.007200257680946853,0.019841255200237697
0.682,0.0044,-0.43,0.004546697050481116,0.86396338987653,0.007153349283030532,0.019899723995619303
0.683,-0.0065,-0.43,0.0045063248292787385,0.86396338987653,0.006957551879560073,0.019899723995619303
0.684,0.0073,1.57,0.00451061986664263,0.8643509733168232,0.006978381973585441,0.019958166561256215
0.685,0.0019,0.57,0.0045813198601860556,0.8647383830387805,0.0073212631614148005,0.0200165829324168
0.686,0.0004,0.57,0.004510651401344883,0.8758439387663364,0.006978534910744619,0.02169115697781729
0.687,0.0019,-0.43,0.004521042936515941,0.8651256192757901,0.007028931830804228,0.020074973144292997
0.6880000000000001,-0.004699999999998468,0.57,0.004544926209391929,0.8542728306465808,0.007144761048920655,0.01843851310532373
0.6890000000000001,0.0090999999999994,-0.43,0.004526842294517842,0.8546648086868477,0.007057057586701479,0.018497618319749803
0.6900000000000001,0.0036999999999998336,-1.43,0.004531945762383836,0.890203085418215,0.007081808411082616,0.023856330417780496
0.6910000000000001,0.002199999999999156,-0.43,0.0045594878236293905,0.8905792493174903,0.007215382039619714,0.023913051064454672
0.6920000000000001,-0.00539999999999899,1.57,0.004402169680974079,0.8570129120197301,0.0064524197122238945,0.018851681906807107
0.6930000000000001,0.0036999999999990344,-0.43,0.004330292035630469,0.8574036373816754,0.0061038271427117565,0.01891059823355785
0.6940000000000001,-0.004999999999999401,0.57,0.004120819584604218,0.8574036373816755,0.005087926585644634,0.018910598233557868
0.6950000000000001,0.00040000000000007776,-0.43,0.00409912996944061,0.8570129120197274,0.004982736179845071,0.018851681906806705
0.6960000000000001,0.001100000000000089,0.57,0.00406196353136281,0.8574036373816779,0.004802486199656953,0.018910598233558236
0.6970000000000001,0.0018999999999997558,0.57,0.004067213138639827,0.8570129120197274,0.004827945771696034,0.018851681906806705
0.6980000000000001,-0.00030000000000008877,0.57,0.0040580730733013924,0.8574036373816755,0.004783618236387908,0.018910598233557868
0.6990000000000001,-0.0011000000000002442,-2.43,0.0040533902705180555,0.8570129120197274,0.004760907555661538,0.018851681906806705
0.7000000000000001,-0.003299999999999267,-0.43,0.0040525074258266555,0.8570129120197298,0.004756625930992504,0.018851681906807072
0.7010000000000001,0.003299999999999911,-1.43,0.004049322572604961,0.8570129120197271,0.004741180013659484,0.018851681906806656
0.7020000000000001,0.0024999999999999224,1.57,0.004051845358537954,0.8456600956621562,0.004753415033692583,0.01713982415911965
0.7030000000000001,0.0017999999999997558,1.57,0.004065819509276212,0.8581845544222504,0.004821186940929004,0.019028350414523738
0.704,-0.0004,0.57,0.004064757546137984,0.8460560639946595,0.004816036626706655,0.01719953105796176
0.705,-0.0026,0.57,0.004014246607335249,0.8460560639946595,0.004571068419115237,0.01719953105796176
0.706,-0.0066,1.57,0.0040011319758600575,0.8460560639946595,0.004507465012767032,0.01719953105796176
0.707,0.0018,-0.43,0.00402598096060183,0.8460560639946595,0.004627977745195773,0.01719953105796176
0.708,0.0054,0.57,0.004027459756875146,0.8472428586317771,0.004635149618874101,0.017378484326514215
0.709,-0.0022,-0.43,0.004035997114112748,0.8468474452200624,0.0046765541373731696,0.017318861102543742
0.71,-0.0015,-0.4299999999995559,0.004035997114112748,0.8345542100121188,0.0046765541373731696,0.015465200365679716
0.711,0.0029,0.57,0.004019860562740788,0.8468474452200623,0.004598295008558841,0.017318861102543725
0.712,0.005,-0.43,0.0039948581328211365,0.8472428586317746,0.00447703809692695,0.017378484326513847
0.713,-0.0,-0.43,0.0039834404376271814,0.8468474452200625,0.004421664500775598,0.01731886110254376
0.714,-0.0037,0.5699999999995559,0.00399877843770678,0.8468474452200624,0.004496050811475744,0.017318861102543742
0.715,-0.0066,-0.43,0.003970309062133285,0.8357573377059492,0.0043579798892004196,0.015646616447757604
0.716,-0.0051,-0.43,0.00397942100830701,0.8361579955702932,0.004402171052040697,0.01570703046729662
0.717,-0.0004,0.57,0.003978711827979683,0.8357573377059442,0.004398731665686728,0.01564661644775685
0.718,-0.0044,-0.4299999999995559,0.003997924186388161,0.8357573377059442,0.004491907859091271,0.01564661644775685
0.719,-0.0047,0.57,0.003984743279543449,0.8353564876760897,0.004427983030119299,0.0155861734521464
0.72,0.0011,0.57,0.003984125646642411,0.8353564876760896,0.00442498763093839,0.015586173452146383
0.721,-0.0073,1.57,0.0039119409764497735,0.8349554452039571,0.00407490605075381,0.015525701438731521
0.722,-0.004,-0.43,0.003953474854729957,0.8349554452039573,0.004276337264621207,0.015525701438731537
0.723,-0.0014,-0.43,0.003954215820503028,0.8464518470940586,0.00427993080419141,0.01725921002604955
0.724,0.0048,-0.43,0.003917078896097423,0.8337511603562267,0.00409982395956063,0.015344110872824524
0.725,0.0138,0.57,0.003885234177079331,0.8337511603562241,0.003945383279501601,0.015344110872824139
0.726,0.0026,0.5699999999995559,0.0038881262678175147,0.8341527818224577,0.003959409355854914,0.015404670191054532
0.727,0.0012,-0.43,0.003886342788228276,0.8345542100121115,0.003950759827483289,0.01546520036567861
0.728,0.0077,1.57,0.003912238921256223,0.8349554452039546,0.004076351024989633,0.015525701438731136
0.729,0.0041,-0.43,0.0038939264768336414,0.8349554452039546,0.003987539239005277,0.015525701438731136
0.73,-0.006,-0.4299999999995559,0.0039053182018391193,0.8345542100121115,0.004042786884804629,0.01546520036567861
0.731,0.0005,0.57,0.003908912605842632,0.8341527818224578,0.00406021904359975,0.015404670191054548
0.732,-0.0031,0.57,0.003935154966547735,0.8224844858408817,0.004187489377853535,0.013645242199863128
0.733,-0.002,0.57,0.0039856576002419205,0.8228916061521919,0.004432417307287322,0.013706630672750061
0.734,0.0089,0.5699999999991118,0.00394882272322873,0.823298525142933,0.004253775333634615,0.013767988789101213
0.735,-0.0049,-1.43,0.0039012278841240077,0.8102349840934662,0.00402294964117185,0.011798175902729302
0.736,0.0042,0.57,0.0039296370964919175,0.8098215009631103,0.004160728783627107,0.011735827999095198
0.737,0.0057,0.57,0.003932242626447763,0.8098215009631015,0.004173365096042562,0.011735827999093859
0.738,0.0014,0.5700000000008881,0.0039554883746524975,0.8452639418362417,0.0042861024437698386,0.017080089290272295
0.739,-0.0022,2.57,0.003927596776195377,0.8452639418362417,0.004150833627888509,0.017080089290272295
0.74,-0.0058,0.57,0.003821276062981816,0.8456600956621614,0.003635198892856481,0.017139824159120437
0.741,0.0018,-0.43,0.003831063511629858,0.8456600956621614,0.003682666111028122,0.017139824159120437
0.742,0.0025,0.5699999999995559,0.0038315223119567447,0.8570129120197322,0.003684891203184076,0.018851681906807426
0.743,0.0033,-0.43,0.003793492884139295,0.8444710766597942,0.003500455890972785,0.01696053548508212
0.744,-0.0021,-0.43,0.0037987099968462864,0.8570129120197322,0.003525757870681087,0.018851681906807426
0.745,0.0015,0.57,0.0037668547278545067,0.8570129120197322,0.003371266025306077,0.018851681906807426
0.746,-0.0021,-0.4299999999995559,0.0038081927568406186,0.8570129120197323,0.003571747408272207,0.01885168190680744
0.747,-0.0007,0.57,0.0038066304250123197,0.8566220084388135,0.003564170403434976,0.018792738706942494
0.748,0.0008,-0.43,0.0038959310804827173,0.8562309263948319,0.00399726117596557,0.018733768597157814
0.749,-0.0017,-0.43,0.0039415900437835185,0.8558396656431375,0.0042186982481206,0.01867477154056338
0.75,-0.0006,0.5699999999995559,0.0039401305757394926,0.8208539853967615,0.004211620112586864,0.013399383839262322
0.751,0.0015,-0.43,0.00396737998418103,0.8208539853967615,0.004343774432068419,0.013399383839262322
0.752,-0.0035,1.57,0.0039602885226497735,0.8089939006992212,0.004309382225910862,0.011611036592354816
0.753,-0.0013,0.57,0.003957837655069657,0.7961163641966836,0.004297495995870875,0.00966927078388297
0.754,0.0001,0.57,0.00399441337770913,0.7825992162583332,0.00447488112132547,0.007631059850481801
0.755,-0.0013,0.57,0.003994435283869381,0.7821711240268095,0.004474987361932735,0.0075665090835023265
0.756,-0.0049,-0.43,0.0039888983614076385,0.781742797366607,0.004448134367251268,0.007501922967712685
0.757,0.002,1.57,0.003955521562259795,0.7679727008045134,0.004286263397196298,0.005425570656200287
0.758,-0.0027,-0.4299999999995559,0.003956892427162008,0.781742797366607,0.0042929118247627815,0.007501922967712685
0.759,-0.002,0.57,0.003924376642635288,0.781314235892175,0.004135216607791125,0.007437301444976838
0.76,0.0027,1.57,0.003920137217561034,0.781742797366607,0.004114656222530539,0.007501922967712685
0.761,0.0035,0.57,0.003918556517728376,0.7821711240268122,0.004106990136452461,0.007566509083502728
0.762,-0.0016,-0.43,0.003912399062772456,0.8204458539812094,0.004077127680128546,0.013337842904944174
0.763,0.0035,-0.43,0.0039191167122844366,0.8208539853967639,0.004109706970856125,0.013399383839262691
0.764,0.0031,0.57,0.003926391573634774,0.832545133500254,0.004144988630387895,0.015162257634624428
0.765,0.0028,0.57,0.003909863833003591,0.8325451335002569,0.004064832309917022,0.015162257634624862
0.766,0.0013,-0.4299999999991118,0.003857308516811856,0.8440743647855715,0.0038099492704793867,0.016900716469773678
0.767,-0.0056,1.57,0.003830567554568127,0.8444710766597994,0.003680260815950773,0.016960535485082907
0.768,-0.003,-0.43,0.003856840636548118,0.8440743647855715,0.0038076801423995664,0.016900716469773678
0.769,0.0031,-0.43,0.003838747889949989,0.8440743647855741,0.0037199338480402677,0.016900716469774063
0.77,-0.0023,-0.43,0.0038194793984380857,0.8436774663705174,0.0036264854200255847,0.016840869326522574
0.771,-0.006,-0.43,0.0038281973252061907,0.8432803811512403,0.003668765665550942,0.016780994015612758
0.772,-0.0038,-1.43,0.003764087016721866,0.8309343747900831,0.0033578431657955514,0.014919376071951956
0.773,-0.0024,-0.43,0.0038406649682298966,0.8436774663705174,0.003729231304020554,0.016840869326522574
0.774,0.0002,-0.4299999999995559,0.0039208626228071876,0.8440743647855741,0.004118174296578255,0.016900716469774063
0.775,0.0016,0.57,0.0038913427052956707,0.8444710766598018,0.003975008450675362,0.016960535485083274
0.776,0.0012,0.57,0.0036389152530423227,0.8440743647855741,0.002750784510453872,0.016900716469774063
0.777,-0.0053,0.57,0.003650312630886178,0.8436774663705203,0.0028060595714175024,0.01684086932652301
0.778,0.0009,-0.43,0.003650580147399219,0.8436774663705203,0.002807356974361382,0.01684086932652301
0.779,-0.0031,-0.43,0.003584272202027095,0.8313373570546351,0.0024857763640639668,0.014980140580953606
0.78,0.0037,-0.43,0.0035626040770910528,0.8313373570546351,0.002380690181679217,0.014980140580953606
0.781,-0.0046,-0.43,0.003528217195178399,0.8317401440722846,0.0022139205071004427,0.015040875649249785
0.782,0.0077,0.57,0.0035329012951617407,0.8313373570546375,0.0022366374789939848,0.014980140580953974
0.783,-0.0036,0.57,0.0035456748804136217,0.8674454065174241,0.002298586877635929,0.020424767031333925
0.784,0.004,-0.43,0.0035990729298635746,0.8670592063183369,0.0025575570091101937,0.020366533040565214
0.785,-0.0051,-0.43,0.003488784839415656,0.8670592063183424,0.0020226812678134608,0.02036653304056605
0.786,-0.0015,0.5699999999986677,0.0035432983767938984,0.8562309263948501,0.0022870612983088108,0.018733768597160562
0.787,-0.0047,-2.43,0.0035346836325180894,0.8562309263948501,0.0022452814677587376,0.018733768597160562
0.788,-0.0,0.57,0.003494034771416979,0.8558396656431557,0.0020481424147021283,0.018674771540566123
0.789,-0.0008,0.57,0.0035934290243772767,0.8554482259385336,0.002530185167612785,0.018615747500186686
0.79,0.0046,-1.43,0.0036703551760346063,0.8554482259385074,0.0029032620086906474,0.018615747500182734
0.791,-0.0023,-1.43,0.0036413790727356857,0.8554482259385073,0.0027627335557184763,0.018615747500182717
0.792,0.0002,-0.43,0.0036440697922429433,0.8558396656431239,0.0027757830208531152,0.018674771540561318
0.793,0.0042,1.57,0.003649561313378863,0.8554482259385101,0.002802415827953977,0.018615747500183136
0.794,-0.0009,0.57,0.0036659276935718165,0.8666728340236144,0.002881789581751845,0.020308273100002425
0.795,0.0056,-0.43,0.0036601772826079957,0.8670592063182988,0.0028539012094485187,0.02036653304055947
0.796,0.0002,-0.43,0.0037213788019536723,0.8777539149486768,0.0031507166488631997,0.021979156662006376
0.797,0.0085,-0.43,0.003779236562305792,0.8781354116732384,0.003431315508925271,0.022036681429701787
0.798,-0.006,-0.43,0.003781627990378767,0.8777539149486792,0.0034429134689415836,0.02197915666200673
0.799,-0.0002,-0.43,0.0037919480014549944,0.877753914948679,0.003492963511082755,0.021979156662006713
0.8,-0.0057,-0.43,0.0037907301767091195,0.8781354116732383,0.003487057298443894,0.02203668142970177
0.801,0.0023,-0.43,0.0037984364725160966,0.878135411673241,0.0035244313309950813,0.02203668142970219
0.802,-0.0021,0.57,0.0037983500848387153,0.8785167427325004,0.003524012367598484,0.02209418121721451
0.803,-0.0057,-0.43,0.0037824914423386868,0.8662862894030662,0.0034471010426429735,0.02024998717493583
0.804,0.0004,-0.43,0.0037913179108810435,0.9009948208848496,0.0034899076946164685,0.025483584430149617
0.805,0.0015,-0.43,0.0038297194296039202,0.9006230072758121,0.00367614757519105,0.025427519750930012
0.806,0.0041,-0.43,0.003990559277469547,0.9006230072758068,0.0044561894864054465,0.025427519750929207
0.807,-0.0021,1.57,0.003961134734137589,0.9112913558284876,0.004313486186683063,0.027036168613883218
0.808,0.0019,-0.43,0.0039667222315931255,0.8995066443079417,0.004340584460226342,0.02525918666638175
0.809,0.0012,0.57,0.003984367224946895,0.899506644307944,0.004426159238626648,0.0252591866663821
0.81,-0.001,0.57,0.00400353058789789,0.9098200212682375,0.004519097813612603,0.026814310408212146
0.811,0.0019,2.57,0.0040097421579489406,0.8980160015539516,0.004549222717599776,0.02503441703503386
0.812,0.0055,0.57,0.003994397361006057,0.8976429540859505,0.004474803443437544,0.02497816630585451
0.8130000000000001,-0.0023999999999996446,-1.43,0.004012127040235675,0.8980160015539514,0.004560788931828727,0.025034417035033844
0.8140000000000001,0.0008000000000000888,0.57,0.003997034946306484,0.8980160015539492,0.004487595218025983,0.02503441703503351
0.8150000000000001,0.0016000000000000777,-1.43,0.0040406614001618005,0.8980160015539492,0.004699175015547544,0.02503441703503351
0.8160000000000001,0.002300000000000244,0.57,0.004045278211014265,0.8976429540859482,0.004721565648272345,0.02497816630585416
0.8170000000000001,0.004499999999999755,-0.43,0.004055710961272684,0.8980160015539538,0.004772162453472003,0.025034417035034198
0.8180000000000001,0.002299999999999445,-0.43,0.004189261657741168,0.8860547426617419,0.005419857299616861,0.023230814029241886
0.8190000000000001,-0.0026999999999993895,-0.43,0.004228669718735391,0.8968963936634883,0.00561097871401206,0.024865594658163216
0.8200000000000001,0.0027999999999999223,-0.43,0.00423603522421421,0.9076085471940952,0.005646699979898597,0.026480848744745288
0.8210000000000001,0.0021000000000007215,0.57,0.004256870626429895,0.9079775002534869,0.005747747619404089,0.026536482090107318
0.8220000000000001,0.008599999999999934,1.57,0.0042501243403324125,0.9397251773326805,0.005715029446818673,0.03132362082884325
0.8230000000000001,0.007999999999999079,0.57,0.004304263221887228,0.9293832766623964,0.005977592469598387,0.029764196080778075
0.8240000000000001,-0.00029999999999987784,0.57,0.004308872827394555,0.9293832766623964,0.005999948157803735,0.029764196080778075
0.8250000000000001,0.0007999999999994782,-0.43,0.004333189934986135,0.9293832766623986,0.006117881389727638,0.029764196080778408
0.8260000000000001,-0.003899999999999711,-0.43,0.0043983143846003684,0.9290228247534836,0.006433722276286503,0.029709844598863246
0.8270000000000001,-0.001300000000000233,-0.43,0.004455034441313897,0.9286622329384067,0.0067088034954628185,0.0296554720209099
0.8280000000000001,-0.0033999999999997556,0.57,0.004430647601878677,0.9286622329384066,0.006590532077689408,0.029655472020909884
0.8290000000000001,-0.001200000000000244,-0.43,0.004450638374804116,0.9400815256879249,0.006687483429772508,0.03137735354798425
0.8300000000000001,-0.0033999999999998333,0.57,0.004476483776164952,0.9404377390165344,0.006812828588581984,0.03143106590685658
0.8310000000000001,-0.0018999999999993117,-0.43,0.004480905754018087,0.9407938174718868,0.006834274319236923,0.031484757928587646
0.8320000000000001,0.004299999999998801,2.57,0.004488873139581361,0.940793817471887,0.006872914586214486,0.03148475792858766
0.833,-0.0065,-0.43,0.004511035864494265,0.940793817471887,0.0069803994820794935,0.03148475792858766
0.834,0.0011,0.57,0.004563696505521459,0.9404377390165323,0.007235793326439166,0.03143106590685626
0.835,-0.0079,0.57,0.0045645862539921015,0.9407938174718846,0.007240108433091841,0.03148475792858731
0.836,0.0034,0.57,0.004542952392044231,0.9520676126446646,0.0071351884195211745,0.03318470030451499
0.837,0.002,-0.43,0.0045989935302595715,0.9520676126446721,0.007406977016316204,0.033184700304516125
0.838,0.0085,-0.43,0.004578609331116412,0.9311834432987239,0.007308117623763874,0.030035637906882295
0.839,-0.0078,2.5699999999991117,0.004578793608526789,0.9635571270699299,0.0073090113332848145,0.034917170351292035
0.84,0.0035,0.57,0.004581693974474127,0.9948779167218691,0.007323077542789517,0.039639939991936435
0.841,-0.0023,0.57,0.004558987445295545,0.9854551239069365,0.007212955302234403,0.038219104810863956
0.842,0.0032,-0.43,0.004556450543060618,0.9864742263814055,0.007200651820888478,0.038372772272017186
0.843,-0.0048,-1.4299999999991118,0.004556811281352004,0.9864742263814055,0.007202401331286523,0.038372772272017186
0.844,-0.0004,0.57,0.004594255687551918,0.9759413575046391,0.007383999402685293,0.03678455199044453
0.845,-0.0069,-1.43,0.0046019881269646415,0.9755981074506055,0.007421500226628431,0.036732794325572284
0.846,0.0069,0.57,0.004569202028607624,0.9759413575046416,0.007262494040269454,0.03678455199044492
0.847,0.0015,-0.43,0.004603475693644454,0.9868136933289849,0.007428714635068738,0.03842395949340741
0.848,0.0029,-0.43,0.004526015180816816,0.9965597821078258,0.007053046246472663,0.039893543520861365
0.849,-0.0014,0.57,0.00449071970478834,0.9965597821078258,0.006881870067535491,0.039893543520861365
0.85,-0.0025,0.57,0.0045255974471020985,1.0072095766861826,0.00705102031938102,0.04149939468466332
0.851,-0.0015,0.5699999999995559,0.004515399117888573,1.0072095766861826,0.007001560410555699,0.04149939468466332
0.852,-0.0004,-0.43,0.004510210755547436,1.0075420573827942,0.006976397864517765,0.04154952846984266
0.853,-0.0029,2.57,0.004536309186933776,1.0075420573827942,0.00710297016963028,0.04154952846984266
0.854,0.0054,-0.43,0.004502339788038468,1.007542057382792,0.006938225206309762,0.04154952846984233
0.855,-0.0113,0.5699999999991118,0.004502882528942297,1.0078744283996612,0.006940857393902171,0.041599645716736286
0.856,0.0007,-1.43,0.004508981084190102,1.0184059089948043,0.0069704341981224735,0.04318765666341106
0.857,0.0029,-0.43,0.004505510283539996,1.0187347355923073,0.006953601491498583,0.043237239457746116
0.858,0.0046,-0.43,0.0045240000027036665,1.0082066898452655,0.0070432730254227915,0.041649746441701864
0.859,-0.0044,-1.4299999999995558,0.004521800084531245,1.03689006041873,0.007032603851095018,0.04597482742596512
0.86,0.0035,-0.43,0.004550115496277185,1.03689006041873,0.007169928078817355,0.04597482742596512
0.861,0.0002,-0.43,0.004549952380666682,1.0468098506519474,0.007169136999900941,0.04747060338422226
0.862,-0.0041,0.57,0.004568048448335723,1.0167601808398914,0.007256899400806821,0.04293950216114118
0.863,-0.0005,-0.4299999999995559,0.004535555818899201,1.0164307154522507,0.007099316481509233,0.04288982304552233
0.864,-0.0067,0.57,0.0045311561421419585,1.0068769862011788,0.0070779789068224404,0.04144924434481562
0.865,0.0034,-0.43,0.0045385340828667815,1.006544285818947,0.0071137604812282155,0.04139907743388853
0.866,-0.0032,0.57,0.004548318133123458,0.997231734035958,0.007161211217864152,0.03999486517339379
0.867,-0.0119,-0.4300000000004441,0.004542854384027379,0.9968958146875575,0.007134713099743186,0.03994421288403707
0.868,-0.0065,-1.43,0.004609339470856553,0.9968958146875575,0.007457152811578845,0.03994421288403707
0.869,-0.004,-1.43,0.004605704449589913,0.9968958146875575,0.0074395236669746794,0.03994421288403707
0.87,-0.0048,0.57,0.004609596752778176,0.997231734035958,0.007458400578749276,0.03999486517339379
0.871,-0.0055,-2.429999999999112,0.004610217359176027,0.997231734035958,0.007461410398810136,0.03999486517339379
0.872,-0.0078,-0.43,0.004605930724630985,0.9968958146875575,0.007440621056818305,0.03994421288403707
0.873,0.0031,-0.43,0.004565510061673623,0.9864742263813963,0.00724458872027845,0.0383727722720158
0.874,-0.0046,-0.43,0.004526869866641849,0.9864742263813963,0.007057191306128548,0.0383727722720158
0.875,0.0077,-0.43,0.0045883085929914295,0.9861346425757386,0.00735515715327573,0.03832156742994007
0.876,-0.0072,-0.43,0.004603393532304755,0.9864742263813963,0.007428316168586103,0.0383727722720158
0.877,0.0025,0.57,0.004593267919208763,0.9864742263813963,0.007379208918756982,0.0383727722720158
0.878,0.0043,1.57,0.004662169305713907,0.9868136933289734,0.007713367213035504,0.03842395949340567
0.879,0.0057,0.57,0.004794507999604994,0.9868136933289733,0.008355184082923765,0.03842395949340566
0.88,0.0042,0.57,0.004801732507403281,0.9871530435390267,0.008390221537543015,0.038475129112288085
0.881,0.0053,-0.43,0.004812868894772461,0.9871530435390268,0.008444230845576781,0.0384751291122881
0.882,0.0089,0.57,0.004809160283785615,1.0164307154522507,0.00842624480517374,0.04288982304552233
0.883,-0.0078,-0.4299999999995559,0.004790295278362003,0.9857949417912353,0.008334753206039686,0.038270344948968686
0.884,0.0041,0.57,0.0047461534578160285,0.9861346425757386,0.00812067398052381,0.03832156742994007
0.885,-0.0025,1.57,0.004793176866210333,0.9857949417912353,0.008348728345424434,0.038270344948968686
0.886,0.0073,0.57,0.00478675589238405,0.9857949417912353,0.008317587873944404,0.038270344948968686
0.887,0.0018,-1.4299999999982236,0.004777304492287012,0.9857949417912354,0.008271750425742486,0.0382703449489687
0.888,0.0004,2.57,0.0047772129099539476,0.9861346425757386,0.00827130626927837,0.03832156742994007
0.889,0.0018,2.57,0.004701628109314091,0.9864742263813963,0.007904734719178854,0.0383727722720158
0.89,0.0007,0.57,0.004741400517135738,0.9645993651291922,0.008097623144668505,0.035074326359148415
0.891,0.0017,1.5699999999991119,0.004728750571057344,0.9742238978561608,0.008036273371918205,0.03652558130748914
0.892,0.0006,-0.43,0.004723483299512306,0.9738800424730228,0.008010728131622347,0.03647373236682377
0.893,0.0072,0.57,0.004712810741229833,0.9738800424730227,0.007958968304249452,0.03647373236682375
0.894,0.0028,-0.43,0.0046962459214267,0.9642520776129403,0.007878632157022098,0.035021959897237456
0.895,-0.0012,0.570000000000444,0.004708455907010516,0.9639046649716337,0.007937848207130881,0.03496957456808797
0.896,0.0056,1.57,0.0047559085889414,0.9538249677906697,0.008167984465009836,0.033449686712061374
0.897,0.0013,-1.43,0.004787210267289193,0.9635571270699432,0.008319791503667505,0.03491717035129405
0.898,0.002,-0.43,0.004789049124968697,0.9639046649716337,0.008328709604982611,0.03496957456808797
0.899,0.0056,1.5699999999991119,0.004801431196149897,0.9642520776129404,0.008388760236695748,0.03502195989723748
0.9,0.0048,-0.43,0.004804981886488416,0.9642520776129403,0.008405980392736328,0.035021959897237456
0.901,0.0008,0.57,0.004800261809212107,0.9642520776129404,0.008383088937984593,0.03502195989723748
0.902,-0.0053,0.57,0.004822796871705728,0.9639046649716361,0.008492379598539967,0.03496957456808832
0.903,-0.0013,-0.4299999999995559,0.004864777192045079,0.9642520776129428,0.008695975969373755,0.035021959897237845
0.904,0.0008,0.57,0.0048641935615132414,0.9315430591768117,0.008693145475055715,0.030089863326170897
0.905,-0.0028,1.57,0.004835722628211863,0.9315430591768117,0.008555066998103792,0.030089863326170897
0.906,0.0037,0.57,0.004715031244407669,0.9311834432987454,0.007969737311841054,0.03003563790688553
0.907,-0.0046,-0.43000000000088817,0.004773607214099282,0.920745606071787,0.008253819347206166,0.028461747167945785
0.908,-0.0013,-2.43,0.0047728795211992095,0.9538249677906772,0.008250290178482854,0.0334496867120625
0.909,0.0052,0.57,0.004757724394223075,0.9649465276555357,0.008176790766688848,0.035126673974199135
0.91,0.0009,1.57,0.004777976582992221,0.9548778284478509,0.008275009934658701,0.03360844447017735
0.911,-0.0045,-0.43,0.0047722073872578236,0.9851151888016082,0.008247030459879609,0.038167846997345385
0.912,-0.0009,-0.43,0.004774181954743675,0.9854551239069301,0.008256606727302917,0.038219104810863005
0.913,0.0013,-0.43,0.0047567262492964,0.9851151888016083,0.008171949958353074,0.0381678469973454
0.914,0.0027,-0.43,0.004767984467727495,0.9854551239069321,0.008226550123289798,0.038219104810863304
0.915,-0.0034,0.57,0.004744060855110119,0.9854551239069298,0.008110525265290667,0.03821910481086295
0.916,0.0006,-0.43,0.004745374811671561,0.9854551239069298,0.008116897698496996,0.03821910481086295
0.917,0.009,-0.43,0.004743586882978351,0.9854551239069298,0.008108226592838332,0.03821910481086295
0.918,0.0014,-0.43,0.004624869355598736,0.9854551239069277,0.007532469725490332,0.03821910481086264
0.919,-0.0033,0.57,0.00460227604025632,0.9759413575046392,0.007422896549972957,0.03678455199044455
0.92,0.0029,-0.43,0.0046059154625565915,0.9759413575046392,0.007440547038732384,0.03678455199044455
0.921,0.0007,-0.43,0.0047017431301566385,0.9864742263814056,0.007905292547845324,0.03837277227201721
0.922,-0.0061,0.57,0.004679148998760033,0.9562798394656377,0.0077957154146242,0.033819849583018834
0.923,-0.0054,0.57,0.004627202967042606,0.9562798394656356,0.007543787286125111,0.033819849583018514
0.924,-0.0075,-0.43,0.004617840178057868,0.9566300211655582,0.007498379584545749,0.03387265245036262
0.925,0.0038,0.57,0.004643413455849387,0.967719344360133,0.0076224049970864205,0.03554477883991516
0.926,0.0024,-0.43,0.00461665608822881,0.9680653880165327,0.007492636979677834,0.035596957743861825
0.927,-0.0081,0.57,0.004563106230625487,0.9979032334960867,0.0072329306082502005,0.04009611859960837
0.928,-0.0117,0.57,0.004680398730152474,0.9979032334960867,0.007801776368279655,0.04009611859960837
0.929,-0.0029,0.57,0.004664745878270944,0.9871530435390229,0.007725863087711118,0.038475129112287516
0.93,0.0047,0.57,0.00463758534585613,0.9871530435390229,0.007594139799635438,0.038475129112287516
0.931,0.0,-2.43,0.0046202882428456925,0.9868136933289694,0.007510252221589442,0.03842395949340507
0.932,-0.0007,0.57,0.004615861343723254,0.9868136933289694,0.007488782623737637,0.03842395949340507
0.933,0.0001,0.57,0.0046083064613781,0.9864742263813924,0.007452142916962754,0.03837277227201521
0.934,-0.0068,-0.43,0.004552644603424533,0.9864742263813946,0.007182193755507947,0.03837277227201555
0.935,-0.0075,0.57,0.004539931621053645,0.9864742263813921,0.007120538269026092,0.03837277227201518
0.936,0.0016,0.57,0.004612308038561499,0.975598107450592,0.00747154978631405,0.036732794325570244
0.937,-0.002,0.57,0.004563939612956047,0.975598107450592,0.007236972350110373,0.036732794325570244
0.9380000000000001,-0.000899999999998801,0.57,0.004590020540472029,0.9659872666421738,0.007363459764863509,0.03528360394130887
0.9390000000000001,0.009899999999998835,-1.43,0.00462495990780869,0.9336978458051748,0.007532908886058152,0.030414777256617405
0.9400000000000001,-0.0005999999999998779,-1.43,0.004623210573234432,0.8998789191779304,0.007524424954353632,0.025315320897781903
0.9410000000000001,0.000499999999999889,-0.43,0.004622702577912921,0.8998789191779304,0.007521961276062848,0.025315320897781903
0.9420000000000001,-0.0004999999999996447,-0.43,0.004632110858935227,0.8883198765951782,0.007567589605157096,0.023572366904878406
0.9430000000000001,0.0027000000000000778,0.57,0.004680073228335538,0.8886968376115996,0.007800197747914392,0.02362920774649975
0.9440000000000001,0.003400000000000688,-0.43,0.004628134182850001,0.899134215302292,0.007548303501278212,0.02520302919331916
0.9450000000000001,0.00959999999999991,-0.43,0.004621176906856807,0.9098200212682032,0.0075145620688247886,0.026814310408206973
0.9460000000000001,0.008799999999999246,-1.43,0.00462070554739386,0.9094518156965076,0.007512276067306974,0.02675878977431349
0.9470000000000001,0.0020000000000002776,0.57,0.004653865763680584,0.897642954085911,0.007673096652701887,0.024978166305848554
0.9480000000000001,0.004499999999999755,0.57,0.004705723004371248,0.8871880325351951,0.00792459416202834,0.023401699472037962
0.9490000000000001,0.0022999999999996,0.57,0.004727821665431927,0.8875654742611753,0.008031768360697392,0.02345861279843813
0.9500000000000001,-0.0013000000000003996,0.57,0.004694421640709257,0.8758439387663178,0.007869784751131648,0.021691156977814492
0.9510000000000001,-0.004900000000000166,-0.43,0.004714575547718852,0.8762262670683281,0.007967527271724778,0.021748807136624627
0.9520000000000001,-0.0063999999999996005,0.57,0.004734470415753368,0.8879427555463763,0.008064013503780696,0.023515501932445646
0.9530000000000001,-0.0027999999999998334,-0.43,0.004715630340237267,0.8879427555463763,0.007972642809838731,0.023515501932445646
0.9540000000000001,-0.001300000000000244,-0.43,0.004733340600149119,0.8883198765951882,0.008058534118323963,0.023572366904879915
0.9550000000000001,-0.003500000000000444,-0.43,0.004764371424716265,0.8879427555463809,0.008209027568940364,0.02351550193244635
0.9560000000000001,-0.007499999999999478,-0.43,0.0047764092226959326,0.8868104301635812,0.00826740854273187,0.023344761922355753
0.9570000000000001,-0.0027999999999994006,2.57,0.004766648198960855,0.8864326669409929,0.008220069480237355,0.023287800118428768
0.9580000000000001,0.0026000000000003997,1.57,0.004816747554965429,0.8864326669409883,0.008463041591483492,0.02328780011842808
0.9590000000000001,0.0061999999999996,-0.43,0.004823813406891916,0.8639633898765159,0.008497309596049744,0.01989972399561718
0.96,0.0026,-2.429999999998668,0.004796112111011461,0.8968963936634692,0.008362963710571427,0.024865594658160337
0.961,-0.0014,0.57,0.00479755837550663,0.8968963936634692,0.008369977811466842,0.024865594658160337
0.962,-0.0003,-0.43,0.004807946298592039,0.897269751520317,0.008420357213615122,0.024921892189959875
0.963,0.0033,0.57,0.0048105340921790075,0.8976429540859362,0.0084329075080987,0.024978166305852353
0.964,-0.0047,0.5699999999995559,0.004815298615819693,0.898016001553937,0.008456014519054166,0.02503441703503167
0.965,-0.0036,-0.43,0.004855666551580218,0.898016001553937,0.008651791138966957,0.02503441703503167
0.966,0.0029,0.57,0.004865721704960611,0.8976429540859362,0.008700556672909443,0.024978166305852353
0.967,-0.0055,-0.43,0.004870719999856634,0.898016001553945,0.00872479742888656,0.025034417035032876
0.968,0.0046,0.5699999999991118,0.004789279121200459,0.9639046649716524,0.008329825041875747,0.034969574568090786
0.969,-0.0044,-1.43,0.004787590155367066,0.9738800424730547,0.008321633886797334,0.03647373236682857
0.97,-0.0106,1.57,0.004817505913542968,0.9834137507040104,0.008466719482765159,0.03791129215686826
0.971,-0.003,-0.43,0.004888364120941799,0.9834137507040082,0.008810367976954156,0.03791129215686793
0.972,0.0035,-0.4299999999995559,0.004889293214978877,0.9837542737393926,0.008814873901934797,0.037962638622628386
0.973,0.001,0.57,0.004866003625297726,0.9834137507040083,0.008701923931592486,0.03791129215686794
0.974,-0.0067,1.57,0.004845925548415148,0.9834137507040083,0.00860454917233457,0.03791129215686794
0.975,-0.0059,0.57,0.0047937730555007805,0.9837542737393952,0.008351619747273773,0.03796263862262877
0.976,-0.0016,-2.429999999998668,0.00486846621298879,0.9942043739228467,0.008713867001886083,0.039538378456667134
0.977,0.0107,0.57,0.004863543667765835,1.003878713341669,0.008689993617058208,0.040997143609405685
0.978,-0.002,-0.43,0.004816767020602165,1.003878713341669,0.008463135996027417,0.040997143609405685
0.979,0.0027,0.57,0.004676600083607578,1.0038787133416665,0.00778335367296982,0.04099714360940532
0.98,0.0013,-0.43,0.004688257694242637,1.0035450189571593,0.007839890812246163,0.04094682681580218
0.981,0.0049,-0.43,0.004708378924136008,1.0035450189571593,0.007937474855195038,0.04094682681580218
0.982,0.0085,-0.43,0.004709638145481512,0.9738800424730526,0.007943581833273063,0.03647373236682825
0.983,0.0031,-0.43,0.004715823521016295,1.0048791316276982,0.007973579698962183,0.0411479937368038
0.984,0.0023,0.5699999999995559,0.004755239638426546,1.004545769566545,0.008164740185404756,0.041097727053260605
0.985,0.0085,-0.43,0.004708881334986198,1.004879131627698,0.00793991144988844,0.041147993736803765
0.986,0.003,0.57,0.004649457061794732,1.004545769566545,0.0076517153079005175,0.041097727053260605
0.987,0.0052,0.57,0.004646665574309701,1.0045457695665447,0.0076381771377153915,0.04109772705326057
0.988,-0.0057,0.5699999999995559,0.00464311463103932,1.0045457695665447,0.007620955755004586,0.04109772705326057
0.989,-0.0013,-0.43,0.004702283454421871,1.0042122968412839,0.007907913015211591,0.041047443683002456
0.99,-0.0002,0.57,0.004621758759267004,1.0052123831348434,0.007517383939599463,0.04119824375023368
0.991,0.0034,0.57,0.004718237326266417,0.9955510038337632,0.007985286183925891,0.03974143281548552
0.992,0.0067,0.5699999999991118,0.004718997280418854,1.0262219054935426,0.007988971813434801,0.04436620775953066
0.993,0.0019,-1.43,0.004725961645736417,1.054415320099821,0.008022747627729566,0.04861740972628528
0.994,0.0012,-1.43,0.00471921646874259,1.054415320099821,0.007990034834080692,0.04861740972628528
0.995,-0.001,-0.43,0.004706886676268121,1.054415320099821,0.007930237743905024,0.04861740972628528
0.996,-0.0079,-0.4299999999995559,0.004615687680629399,1.054415320099821,0.0074879403915828835,0.04861740972628528
0.997,-0.0071,0.57,0.004533958074850523,1.0455292436440011,0.007091567734305718,0.047277504424523754
0.998,-0.005,0.57,0.004529784508133817,1.0455292436440011,0.007071326749242119,0.047277504424523754
0.999,0.0001,0.57,0.004594508702529972,1.0452088467325573,0.007385226476011126,0.04722919271772649
1.0,-0.0065,0.570000000000444,0.004590503533941366,1.0448883515769558,0.007365802189044613,0.047180866196982
1.0010000000000001,0.004399999999998312,1.57,0.004595022534574616,1.0537798324164391,0.007387718461271409,0.04852158640984175
1.002,-0.0032,0.57,0.00457081922438317,1.0629120702959507,0.007270337124556745,0.049898609667805155
1.0030000000000001,-0.004300000000000266,0.57,0.00453236289775872,1.0625969147113261,0.007083831436342697,0.04985108828524473
1.004,-0.0055,-0.4300000000004441,0.004542216315176596,1.0629120702959507,0.007131618590189389,0.049898609667805155
1.0050000000000001,-0.004399999999998557,-1.43,0.004540435792765885,1.0729034445067336,0.00712298340355721,0.0514051795632446
1.006,0.0021,-0.43,0.004542839592298512,1.0729034445067336,0.007134641362741388,0.0514051795632446
1.0070000000000001,0.008299999999998801,-0.43,0.004604108319423411,1.0729034445067336,0.0074317827467851455,0.0514051795632446
1.008,0.0029,-1.430000000000444,0.004606170218180341,1.0436053867022868,0.007441782553850553,0.046987411701503626
1.0090000000000001,0.0006999999999995115,-2.43,0.004606619657702721,1.0426421270376742,0.007443962247929258,0.04684216461320719
1.01,-0.0015,1.57,0.00460935878642387,1.0426421270376742,0.007457246488315337,0.04684216461320719
1.0110000000000001,-0.005499999999998379,0.57,0.004604366571132565,1.0141214607369773,0.00743303521723607,0.042541617327115956
1.012,0.0018,0.57,0.004610847026047146,1.0141214607369773,0.007464464160400274,0.042541617327115956
1.0130000000000001,0.002500000000000955,0.57,0.004613929757820909,1.0144516761059124,0.007479414808616357,0.04259140953020571
1.014,0.0068,-0.43,0.004602294703336593,1.0144516761059124,0.00742298706227447,0.04259140953020571
1.0150000000000001,0.004599999999998468,-0.43,0.004578752662513933,1.0141214607369793,0.007308812753103666,0.04254161732711626
1.016,-0.0023,0.5700000000013322,0.004690940847469773,1.0141214607369795,0.007852903582397035,0.042541617327116296
1.0170000000000001,-0.0015999999999995115,3.57,0.0046845962079288175,1.0242617844838788,0.00782213331732175,0.044070646884491985
1.018,0.0006,-1.43,0.004652335210954205,1.0242617844838788,0.007665673770314579,0.044070646884491985
1.0190000000000001,-0.006300000000000555,-1.43,0.004631285028959396,1.0239347328454655,0.007563584490745254,0.04402133173101131
1.02,-0.0088,-0.4299999999995559,0.004616740036211151,1.0144516761059195,0.0074930441110290305,0.04259140953020678
1.0210000000000001,-0.0012000000000005771,0.57,0.00449557468643499,1.0134607072174655,0.006905415782187792,0.04244198424964321
1.022,-0.0038,-0.43,0.0045042259190055545,1.0137911378092235,0.0069473725738551225,0.042491808905548656
1.0230000000000001,-0.0030999999999987786,0.57,0.004613682549367051,1.0141214607369862,0.007478215895801067,0.042541617327117295
1.024,0.0024,0.570000000000444,0.004682966579474002,1.0242617844838855,0.007814229936963386,0.044070646884492984
1.025,0.0093,1.57,0.004672210503548554,1.0141214607369864,0.007762065065301339,0.04254161732711733
1.026,0.001,-1.43,0.0046360500868288515,1.0141214607369862,0.007586694092606121,0.042541617327117295
1.027,-0.0045,0.57,0.004721633164035531,0.9847751363539667,0.008001755335188748,0.03811657149012494
1.028,-0.0019,0.5699999999995559,0.0046058235178534366,0.9847751363539667,0.007440101124843962,0.03811657149012494
1.029,-0.0044,-0.43,0.004616290544581106,0.9851151888016795,0.0074908641642383094,0.038167846997356134
1.03,0.0064,0.57,0.004615590859670142,0.9847751363539667,0.007487470828802847,0.03811657149012494
1.031,-0.0011,-0.43,0.004617594499723265,0.9851151888016795,0.007497188092510596,0.038167846997356134
1.032,0.0025,2.5699999999986676,0.00459826640690571,0.9851151888016795,0.007403450609780998,0.038167846997356134
1.033,0.0061,-0.43,0.004566601660920451,0.9854551239070012,0.007249882763850834,0.03821910481087372
1.034,-0.0015,0.57,0.004588939902175902,0.985794941791323,0.0073582188797655145,0.03827034494898191
1.035,-0.0007,-0.43,0.0045883422957167,0.9854551239070036,0.00735532060492395,0.03821910481087409
1.036,0.0,0.57,0.004515702878309233,0.9962236361822229,0.0070030335893868645,0.039842857066595495
1.037,0.0008,0.57,0.00452073078365696,0.995887376795858,0.007027417950283068,0.03979215350391545
1.038,-0.0075,-0.43,0.004493065896627497,1.006211475430553,0.0068932486406352396,0.04134889393545615
1.039,0.0048,1.57,0.004457601715839575,1.0062114754305551,0.006721254276498718,0.04134889393545648
1.04,0.0095,-0.4299999999986677,0.004513709393079078,1.0062114754305551,0.006993365574591134,0.04134889393545648
1.041,-0.001,2.57,0.0045824714304385115,1.0058785549266571,0.007326848052674919,0.04129869383303154
1.042,0.0026,-2.43,0.004572961023796541,1.0058785549266571,0.00728072443423164,0.04129869383303154
1.043,-0.001,0.57,0.004559358920825773,1.0055455241979623,0.007214756886147927,0.04124847711013406
1.044,0.0001,-0.43,0.004556904171094937,0.9962236361822348,0.0072028518284336625,0.039842857066597286
1.045,0.0027,-0.43,0.004555557456439284,1.017418791548167,0.007196320524855622,0.043038812130417596
1.046,-0.0017,0.57,0.004557331730866901,1.0177479370758393,0.007204925409987655,0.04308844301529373
1.047,0.0005,0.57,0.004488796197357044,1.0180769761903692,0.006872541431424139,0.04313805785444546
1.048,0.0089,-0.43,0.004435391130528534,1.0177479370758433,0.0066135372670317,0.04308844301529433
1.049,-0.0013,-0.43,0.004411827940266079,1.0268744477142986,0.006499260387200344,0.04446460267944399
1.05,0.0024,-1.43,0.004417862270177702,1.0268744477142986,0.006528525711058978,0.04446460267944399
1.051,0.0013,-1.43,0.004370698337665911,1.035920556468956,0.006299789831579532,0.04582863878029684
1.052,0.0024,-0.43,0.004416223030429575,1.0258954787346306,0.0065205757178014865,0.044316986829789885
1.053,-0.0041,0.57,0.004406357722880779,1.0258954787346306,0.006472730899137459,0.044316986829789885
1.054,0.0002,1.57,0.00438763293532087,1.0349501443231783,0.006381919329311071,0.04568231319042757
1.055,-0.0038,-0.43,0.004397247118734949,1.0452088467326293,0.006428546244870884,0.047229192717737345
1.056,-0.0106,-0.43,0.0044295320485163905,1.0461697430954895,0.006585121861326191,0.04737408345072181
1.057,0.0031,-0.43,0.004446431974989153,1.0738395593918548,0.00666708321058219,0.05154633357017534
1.058,-0.0027,-1.43,0.004369427994539776,1.0828026289624986,0.0062936289150333,0.052897848436997956
1.059,0.0064,-0.43,0.004361136003178545,1.1023343401143157,0.006253414373207872,0.05584297764615015
1.06,-0.0015,-0.43,0.0043607501202597605,1.084348128334269,0.006251542916268141,0.05313088973620354
1.061,0.0028,0.57,0.004412661233749427,1.0747748589333666,0.006503301698168858,0.05168736463384415
1.062,0.0017,0.57,0.0043855819697988995,1.074463182881779,0.006371972546304105,0.051640367919824126
1.063,-0.0005,0.57,0.004411294571405181,1.101118310304601,0.006496673652189348,0.05565961609201117
1.064,0.0006,-0.43,0.004406733602052661,1.101118310304601,0.006474553839854645,0.05565961609201117
1.065,0.0108,-0.43,0.004392389131578766,1.1014224436222706,0.006404985954083183,0.055705475459394964
1.066,-0.0016,1.57,0.004368313576995894,1.1017264929834665,0.006288224207167956,0.0557513221672293
1.067,-0.0001,-0.43,0.004410311182980393,1.10172649298346,0.006491904410011389,0.05575132216722833
1.068,0.0013,-0.43,0.0045864710329795826,1.053779832416447,0.007346245345395821,0.048521586409842915
1.069,0.0024,-0.43,0.0046000867122388085,1.0448883515769636,0.007412278735832263,0.047180866196983175
1.07,0.0013,-1.43,0.004563685904382687,1.0355971867903173,0.007235741912982501,0.04577987881868824
1.071,-0.0041,0.57,0.004548956368098097,1.0355971867903193,0.007164306533086266,0.045779878818688544
1.072,-0.0106,0.57,0.004579223216072292,1.0352737161066288,0.007311094846141321,0.0457311036268256
1.073,-0.0081,1.57,0.004632922024637445,1.0352737161066288,0.0075715236007002805,0.0457311036268256
1.074,-0.0059,0.57,0.004642670059632877,1.0442470661714303,0.007618799670339283,0.047084168659089085
1.075,0.001,0.57,0.0046600570933461125,1.0442470661714278,0.007703123394764538,0.04708416865908872
1.076,-0.0091,-0.43,0.004577215055045595,1.0339788214243333,0.007301355656592968,0.04553585027078519
1.077,-0.0026,0.57,0.004577446835929495,1.0528258816761957,0.007302479748701109,0.04837774298683875
1.078,-0.0037,0.57,0.004580715442905651,1.0528258816761955,0.007318331855417972,0.048377742986838716
1.079,-0.0026,-0.43,0.004593312144452689,1.052825881676198,0.007379423402569631,0.048377742986839084
1.08,-0.0019,0.57,0.004693804192774536,1.0531439612674318,0.00786679024900132,0.04842570527174574
1.081,0.0025,-0.43,0.004650709047095905,1.0531439612674318,0.0076577871925739924,0.04842570527174574
1.082,-0.0066,0.57,0.004657330341996898,1.0534619448185363,0.007689899182219743,0.0484736530750441
1.083,-0.0055,0.57,0.0046548084290726245,1.023607576711181,0.007677668396108764,0.04397200082090591
1.084,-0.0022,-0.43,0.004614780354483169,1.0239347328454758,0.007483540036629857,0.044021331731012844
1.085,0.0025,1.5699999999991119,0.004612781927237205,1.0339788214243708,0.007473848054020753,0.045535850270790844
1.086,-0.0037,-0.43,0.004615439537383539,1.0339788214243708,0.007486736945208595,0.045535850270790844
1.087,-0.0015,1.57,0.004630159038858461,1.043926275740258,0.007558123658233923,0.0470357976146108
1.088,-0.0008,0.57,0.00463859160880165,1.0436053867023334,0.007599019978780245,0.046987411701510655
1.089,0.0072,-0.43,0.004583072555486982,1.043926275740256,0.007329763391988589,0.04703579761461049
1.09,0.0079,-0.43,0.004579046466935936,1.0336548442915225,0.007310237647281967,0.04548699871295076
1.091,0.0017,0.57,0.004494529759620656,1.0439262757402619,0.006900348090815606,0.047035797614611366
1.092,0.0057,-0.43,0.004503517823336631,1.023280315980782,0.006943938447882987,0.04392265413906043
1.093,-0.0012,0.5700000000008881,0.0044968218930974,0.9945412023411162,0.006911464491394717,0.03958916782199245
1.094,-0.0005,2.57,0.004496000057424873,0.9945412023411162,0.006907478748575329,0.03958916782199245
1.095,0.0016,0.57,0.004506736378479513,0.9948779167219,0.006959547812964582,0.03963993999194109
1.096,-0.0005,0.57,0.004502540006081721,0.9948779167219,0.006939196224793001,0.03963993999194109
1.097,0.0016,-0.4300000000004441,0.004561631184549514,0.9945412023411162,0.007225776922297991,0.03958916782199245
1.098,0.002,-1.43,0.004562894605207502,0.9945412023411162,0.0072319042662230375,0.03958916782199245
1.099,0.0023,0.57,0.004475037457677628,0.9948779167219,0.00680581422583514,0.03963993999194109
1.1,0.0008,-1.43,0.004473745383916629,1.0045457695665736,0.006799547919945559,0.04109772705326492
1.101,0.0077,0.57,0.004467244424152136,0.9948779167218934,0.006768019532256088,0.039639939991940105
1.102,0.0012,0.57,0.004470204578525752,0.9851151888016392,0.00678237570397427,0.038167846997350055
1.103,-0.0014,-1.43,0.0044662548173216325,0.9851151888016393,0.0067632201320225,0.03816784699735007
1.104,0.0062,1.57,0.004461954893471366,0.9945412023410966,0.006742366339490687,0.039589167821989485
1.105,0.0069,1.5699999999982237,0.00446599522581428,0.9840946789447035,0.0067619611638114665,0.03801396732113902
1.106,0.0044,-2.43,0.004460601583460472,1.0151117845871276,0.0067358030497252945,0.042690945344253176
1.107,-0.0011,-1.43,0.004339672831862998,1.0151117845871276,0.006149322175932925,0.042690945344253176
1.108,0.0011,2.57,0.004329420892292041,1.0255689480777122,0.006099602267323805,0.04426775023357467
1.109,0.0004,-1.4299999999991118,0.00432298409913373,1.0161011432372369,0.00606838507516695,0.04284012782171845
1.11,0.0069,0.57,0.004276107412208818,1.016101143237237,0.0058410422807939014,0.042840127821718484
1.111,0.0025,-0.43,0.00429027871604807,1.016101143237237,0.0059097703421410195,0.042840127821718484
1.112,-0.0051,-2.43,0.004289497441659913,1.0157714640908306,0.005905981313644615,0.042790416474044794
1.113,0.0015,0.57,0.004297359021626561,1.0249155746731726,0.005944108444102188,0.04416922998190621
1.114,0.0058,0.57,0.0043037168731089375,1.054415320099831,0.005974942784518086,0.04861740972628679
1.115,0.0004,0.57,0.00431451339255129,1.0547329203585254,0.006027303799353862,0.04866529973405133
1.116,-0.0065,0.57,0.0042548954361573705,1.0547329203585256,0.005738168331586809,0.048665299734051364
1.117,-0.0127,-1.4299999999991118,0.004275788767672018,1.0445677580867765,0.0058394969169006765,0.047132524848656085
1.118,-0.0036,0.57,0.004280403479682443,1.0445677580867765,0.005861877370650693,0.047132524848656085
1.119,-0.0025,-0.43,0.004287476769413182,1.0722789138936033,0.005896181447117788,0.05131100843115879
1.12,-0.008,-0.43,0.0042810980810431614,1.0812549205224569,0.005865246051858345,0.05266447403889285
1.121,-0.0054,-0.43,0.004316742925606086,1.0725912246553269,0.006038116600088613,0.05135810085125118
1.122,-0.008,-0.43,0.004328810912812382,1.072278913893591,0.006096643985744775,0.05131100843115695
1.123,0.0043,-1.43,0.004230492090407679,1.0719665121420654,0.005619816861405626,0.05126390229098023
1.124,-0.0047,0.57,0.00420130160933785,1.0719665121420654,0.005478248718031105,0.05126390229098023
1.125,-0.0032,-0.43000000000088817,0.004159923105974173,1.081564639390924,0.0052775710422230575,0.0527111756350335
1.1260000000000001,0.0011000000000008217,-2.43,0.0041733051463436555,1.081564639390924,0.005342471329585179,0.0527111756350335
1.127,0.0048,0.57,0.004095647186281119,1.0818742695931047,0.004965845360386297,0.05275786386144593
1.1280000000000001,-0.00389999999999678,0.57,0.00409192012111818,1.090464214522432,0.004947769820826299,0.05405311636235221
1.129,0.0106,0.57,0.004114774934928314,1.0999009360759808,0.005058611212940772,0.0554760518169044
1.1300000000000001,0.0009000000000003996,0.57,0.004119947017496941,1.1262514537736366,0.005083694805255288,0.05944936878562413
1.131,0.0027,0.57,0.004115715422254063,1.1531617706032484,0.005063172393150684,0.06350709621699956
1.1320000000000001,-0.001999999999999667,-0.43,0.004108663976979888,1.1531617706032484,0.005028974258039995,0.06350709621699956
1.133,-0.0005,0.570000000000444,0.0040965954987930145,1.1531617706032484,0.0049704444912237345,0.06350709621699956
1.1340000000000001,0.0006000000000002442,1.57,0.004059862724600281,1.1531617706032484,0.004792297696348344,0.06350709621699956
1.135,0.0017,-0.43,0.004057902517939325,1.153452181586915,0.004782791076126563,0.06355088643404745
