time_sec,bts_raw,diy_raw,bts_rms,diy_rms,bts_norm_rms,diy_norm_rms
0.0,0.001,-0.550999999999889,0.02138177791361373,1.1933225490020958,0.04495100914634453,0.06614731066926582
0.001,0.0127,1.448999999999889,0.021426158050797037,1.1933225490020958,0.04540208210586773,0.06614731066926582
0.002,0.017,-0.550999999999889,0.021604257844488547,1.1933225490020958,0.04721226130155348,0.06614731066926582
0.003,0.0123,1.449,0.021606093797347087,1.1933225490020958,0.04723092164696942,0.06614731066926582
0.004,0.0131,1.4489999999999446,0.021624761375139814,1.1933225490020962,0.04742065606638582,0.06614731066926591
0.005,-0.0058,0.448999999999889,0.021625524381312485,1.2198540490230247,0.04742841114499271,0.07090421786020337
0.006,-0.0244,-1.551,0.021639888753080365,1.2193039691824998,0.047574408433335165,0.07080559249989887
0.007,-0.031,-1.551,0.021640082872772092,1.210520729938373,0.047576381436336204,0.06923082085535734
0.008,-0.0328,-1.551,0.02164066215255811,1.2182030643356887,0.047582269147912935,0.07060820817642667
0.009000000000000001,-0.010599999999999965,1.449,0.021647191975030143,1.2182030643356887,0.04764863726965748,0.07060820817642667
0.01,0.0098,-0.551,0.02164746308534404,1.2176522386556814,0.04765139279362401,0.0705094490924656
0.011,0.0495,-2.551,0.021652600787753266,1.1988786626212493,0.0477036116189356,0.06714348189244464
0.012,0.1008,-1.551,0.021652742507161093,1.1983189542166335,0.04770505203342657,0.0670431301998285
0.013000000000000001,-0.005499999999999974,-1.551,0.02165610588687748,1.1893807566886123,0.047739236912946084,0.06544057564914255
0.014,0.0095,0.449,0.021738278482733093,1.1798063913514953,0.04857442667027378,0.06372396078436417
0.015,0.0499,-0.551,0.021793350113655057,1.1798063913514951,0.04913416634487496,0.06372396078436413
0.016,0.0122,-0.551,0.021803595757939515,1.1803748780482866,0.04923830151396027,0.06382588636165099
0.017,-0.0217,0.449,0.02195085327763727,1.1899446693165379,0.05073500453107257,0.06554168112876954
0.018000000000000002,-0.011599999999999966,-1.551,0.02196052412715469,1.1826460921772763,0.050833297573631434,0.06423309872483542
0.019,-0.0023,0.449,0.02213978432660026,1.1832132145120136,0.05265527095678373,0.06433477968181579
0.02,0.0058,-0.551,0.02219764320194117,1.1832132145120133,0.05324333975943102,0.06433477968181575
0.021,-0.0327,-0.551,0.022231235144842158,1.1832132145120133,0.0535847631542686,0.06433477968181575
0.022,-0.0531,0.449,0.022256412566347313,1.156421224160346,0.05384066263435775,0.05953116844751535
0.023,-0.0712,0.449,0.022296615329855395,1.156421224160346,0.054249277403656475,0.05953116844751535
0.024,-0.0301,-0.551,0.022401156838165466,1.1465716656106475,0.05531182138254667,0.05776521341837408
0.025,0.0386,-0.551,0.0224022208762577,1.1366367586321657,0.05532263610376591,0.05598395602961146
0.026000000000000002,0.047299999999999974,0.449,0.022403128504973606,1.1283992434982868,0.055331861103890205,0.054507028794253676
0.027,0.0384,1.449,0.022404006465309555,1.1289936157397769,0.05534078455911624,0.054613595463586635
0.028,0.0607,0.449,0.02240466408449975,1.1289936157397769,0.05534746850047349,0.054613595463586635
0.029,-0.0171,1.449,0.02240515515664534,1.1289936157397769,0.05535245968301841,0.054613595463586635
0.03,-0.007,-0.551,0.02240944264902523,1.130774857936885,0.05539603710299671,0.05493295938230745
0.031,-0.0164,-1.551,0.022442537133852913,1.1212983758520805,0.05573240440969204,0.05323389428088319
0.032,0.026,-1.551,0.022448522216486234,1.1057472470249206,0.05579323587862717,0.05044568869556917
0.033,0.018,1.449,0.022507501903602668,1.1057472470249206,0.05639269644156949,0.05044568869556917
0.034,0.0245,-0.551,0.022516552141037285,1.1343289510826207,0.056484681677378,0.055570182729229985
0.035,-0.0074,0.449,0.02253971847200857,1.187740444804843,0.056720140739375736,0.06514647952230737
0.036000000000000004,-0.013199999999999965,1.449,0.022542619779273885,1.1787220336328397,0.05674962918483154,0.06352954324199554
0.037,-0.0081,-1.551,0.022551098671217906,1.1787220336328397,0.05683580735203437,0.06352954324199554
0.038,-0.0035,-1.551,0.022555358421572594,1.2269313092469885,0.05687910280629091,0.0721731197325043
0.039,0.018,-0.551,0.022558257717321867,1.2193039691824998,0.05690857080700384,0.07080559249989887
0.04,0.0059,-0.551,0.02256361496902291,1.2193039691824998,0.0569630210979013,0.07080559249989887
0.041,-0.005,-0.551,0.022567013931087662,1.2099664069538707,0.056997567630993846,0.06913143472984613
0.042,-0.0345,-0.551,0.022567036139034446,1.2099664069538707,0.05699779334918483,0.06913143472984613
0.043000000000000003,0.024999999999999824,-0.551,0.022567172115887584,1.201114888053258,0.05699917539722399,0.06754442103383086
0.044,-0.0004,-1.551,0.022570570542272166,1.201114888053258,0.05703371648574482,0.06754442103383086
0.045,-0.0439,1.449,0.022603070007299955,1.208856998428483,0.05736403610175808,0.068932525757947
0.046,-0.0205,-0.551,0.022607582139863178,1.208856998428483,0.05740989673036874,0.068932525757947
0.047,-0.0136,0.449,0.022608366643596643,1.208856998428483,0.05741787030691154,0.068932525757947
0.048,-0.0074,-0.551,0.02260845072546899,1.182078697755997,0.057418724902264524,0.06413136898469435
0.049,-0.0016,0.449,0.022610834827125108,1.1378165864414065,0.05744295654862893,0.056195490672787236
0.05,0.0138,0.449,0.022614343382012632,1.1477412808157217,0.05747861696649173,0.05797491701505193
0.051000000000000004,0.027699999999999787,0.449,0.022662399385672195,1.147156622277379,0.05796705087340022,0.057870091942851296
0.052000000000000005,-0.002799999999999918,-0.551,0.022627608334799945,1.1471566222773804,0.05761343992765102,0.05787009194285153
0.053,0.009,1.449,0.02256701050587481,1.1741600314021032,0.05699753281765174,0.0627116090430492
0.054,-0.0018,-2.551,0.022573462159494396,1.1667627190862446,0.05706310644307758,0.061385324131862096
0.055,0.0079,0.449,0.022535574280751442,1.1593182073774513,0.056678019810198293,0.06005057670888779
0.056,-0.0009,-0.551,0.022573936367064514,1.1593182073774517,0.05706792621664425,0.060050576708887866
0.057,0.0016,1.449,0.02249977614554373,1.1575808874527345,0.056314173012545106,0.059739087737803405
0.058,-0.0053,-1.551,0.02242680699365187,1.1575808874527345,0.05557252565886951,0.059739087737803405
0.059000000000000004,0.0010999999999999597,0.449,0.02218546187351506,1.148325641681048,0.05311953059134765,0.05807968871662101
0.06,-0.0047,1.449,0.02250612239004959,1.1401725794790278,0.056378675275782664,0.05661790328472471
0.061,0.0008,0.449,0.022609581261313447,1.1477412808157252,0.05743021549651619,0.05797491701505257
0.062,-0.0038,-0.5509999999999445,0.02206144666922527,1.1195020557049076,0.05185905893048241,0.052911826994126984
0.063,0.0189,0.449,0.019669074877166792,1.1099293315674852,0.027543356163129033,0.05119550638465352
0.064,0.0155,0.4489999999999445,0.019672806226970513,1.0996634293121264,0.027581281034609908,0.049354903922619466
0.065,0.0067,-0.5510000000000556,0.019652250609385576,1.1002733248698595,0.02737235686611157,0.0494642538109414
0.066,0.0254,-1.5509999999999444,0.019018776918871536,1.1099293315674852,0.020933826692578532,0.05119550638465352
0.067,-0.0065,-0.551,0.019094621297433476,1.1195020557049074,0.02170469741250955,0.05291182699412694
0.068,-0.0281,-0.551,0.01905894629611288,1.1295876752314766,0.021342102128943635,0.054720106059130885
0.069,-0.016,-0.551,0.019057737733828545,1.1201011491741193,0.021329818485832937,0.05301924014564457
0.07,-0.0122,-0.551,0.019190070499707442,1.1201011491741195,0.022674828576728697,0.05301924014564461
0.07100000000000001,0.010600000000000038,-0.551,0.01933487256191521,1.1195020557049076,0.024146574697641743,0.052911826994126984
0.07200000000000001,0.013399999999999515,-0.551,0.019058721902813547,1.1195020557049076,0.02133982142960263,0.052911826994126984
0.073,-0.0216,0.449,0.018364808082027992,1.1295876752314769,0.01428698697118345,0.05472010605913092
0.074,0.0022,0.449,0.01695914093144674,1.139584037858635,0.0,0.05651238200383204
0.075,-0.002,0.449,0.01713202918804654,1.1389951921270438,0.001757209925899301,0.05640680619798805
0.076,0.002,-0.551,0.020325873472950947,1.1384060418123458,0.03421895712369754,0.056301175782583
0.077,-0.0017,0.449,0.020236562459391767,1.1465716656106506,0.03331121357532227,0.05776521341837464
0.078,0.0015,0.449,0.0198730722578243,1.1384060418123456,0.0296167544910363,0.05630117578258296
0.079,0.0044,-1.551,0.018928982773174403,1.1465716656106488,0.02002117266268746,0.057765213418374324
0.08,0.0122,-0.551,0.018888852870207556,1.148325641681045,0.01961329843684024,0.058079688716620496
0.081,0.0052,-1.551,0.01888265993856871,1.148325641681045,0.01955035442224826,0.058079688716620496
0.082,0.0163,-0.551,0.018811384887472315,1.1389951921270403,0.01882592565120987,0.056406806197987415
0.083,0.0064,-2.551,0.018872915059956336,1.1372268255398752,0.019451308959235795,0.056089750783553126
0.084,-0.0102,-3.551,0.01932820652444009,1.1295876752314713,0.024078822107338225,0.05472010605912993
0.085,-0.0036,-0.551,0.019424982783870566,1.128993615739775,0.025062441278513536,0.054613595463586316
0.08600000000000001,0.006199999999999975,0.449,0.01959655400470008,1.1372268255398752,0.02680626505330097,0.056089750783553126
0.08700000000000001,0.004399999999999889,3.449,0.019793301162027533,1.1540984018158211,0.02880597321479025,0.05911470310235113
0.088,-0.0036,0.449,0.019817494740388894,1.144815002268997,0.029051873062910155,0.05745025631171361
0.089,-0.0049,-1.551,0.02014564353983689,1.1354557048896685,0.032387127515135464,0.05577220158541731
0.09,-0.0039,0.449,0.02027777361507771,1.134864717097516,0.03373007748923603,0.055666241723516204
0.091,-0.0003,0.449,0.020326273799778992,1.134864717097516,0.03422302598464668,0.055666241723516204
0.092,0.0008,-0.551,0.020341889467094254,1.1442288485117362,0.034381741250481296,0.05734516315751167
0.093,-0.0039,-0.551,0.020118719455034816,1.151770894952271,0.032113475215144544,0.05869739785660759
0.094,-0.0121,1.449,0.020080410052867953,1.160998676189092,0.031724104282341944,0.060351872684159986
0.095,-0.0045,0.449,0.02015460971257854,1.1511882829517879,0.03247825833019963,0.05859293971393047
0.096,0.0019,0.449,0.01967741755242776,1.1436423943317355,0.027628149844697927,0.057240016139672494
0.097,-0.0006,0.449,0.01958898165460486,1.1430556392665912,0.026729300839470598,0.05713481517529043
0.098,0.0033,-1.551,0.01954297191868769,1.152935235720764,0.02626166488644691,0.05890615578472992
0.099,0.004,-1.551,0.01968974673883772,1.152935235720764,0.02775346181882465,0.05890615578472992
0.1,0.0148,0.449,0.019886009064002758,1.1529352357207643,0.029748242220008228,0.05890615578472996
0.101,-0.0018,1.449,0.02015891416720698,1.1609986761890922,0.032522008151890436,0.06035187268416003
0.10200000000000001,-0.003800000000000133,-2.551,0.021230311994302475,1.1609986761890922,0.043411532596093344,0.06035187268416003
0.10300000000000001,-0.013399999999999822,-0.551,0.022578938054216974,1.1701536898059561,0.05711876260358805,0.061993300800656924
0.10400000000000001,-0.0004999999999997933,-0.551,0.022805731394717622,1.1701536898059561,0.059423855597718345,0.061993300800656924
0.105,0.0144,0.449,0.022860484787334587,1.1424685828527128,0.05998036074662447,0.05702956018124709
0.106,0.0162,1.449,0.02306690554666141,1.1430556392665912,0.06207838992648018,0.05713481517529043
0.107,0.0252,-1.551,0.02522062401150679,1.1424685828527128,0.08396845659988827,0.05702956018124709
0.108,0.0005,-0.551,0.027554091565364664,1.134864717097516,0.10768546565559625,0.055666241723516204
0.109,-0.0393,0.449,0.028014933648385355,1.1248264145215856,0.11236939444568507,0.05386644624755058
0.11,-0.0237,1.449,0.0280403421742148,1.1248264145215858,0.11262764283495147,0.053866446247550624
0.111,0.0002,0.449,0.02804080365273079,1.1248264145215856,0.11263233323234936,0.05386644624755058
0.112,0.0132,-0.551,0.02804095813909052,1.1248264145215856,0.11263390340819633,0.05386644624755058
0.113,-0.0067,0.449,0.028100761184869438,1.1242298391129002,0.11324173246326613,0.05375948456618038
0.114,-0.003,-0.551,0.02813737229275311,1.1242298391129002,0.11361384219146056,0.05375948456618038
0.115,-0.0062,-1.551,0.028346777213807156,1.134273421384437,0.1157422019369122,0.055560226653606964
0.116,-0.0209,-1.551,0.02833939727794653,1.1342734213844365,0.11566719339207615,0.05556022665360689
0.117,-0.0183,-1.551,0.028363867420538556,1.1342734213844374,0.11591590419694252,0.05556022665360705
0.11800000000000001,-0.011400000000000157,-0.551,0.02845099324490402,1.1418812246253192,0.11680143781494612,0.0569242510742105
0.11900000000000001,-0.022600000000000023,0.449,0.028329318204836987,1.1412935641184303,0.11556475122705999,0.05681888777063383
0.12,-0.0243,0.449,0.028318058639953965,1.1488548803877758,0.11545031072333305,0.058174577411484504
0.121,0.0032,-0.551,0.02839916718471761,1.1482707888547639,0.11627468562731416,0.05806985399926286
0.122,0.015,-1.551,0.02840239425339057,1.1575264732138142,0.11630748506213531,0.0597293316560061
0.123,-0.0103,-1.551,0.028378559477135187,1.1575264732138142,0.11606523202400966,0.0597293316560061
0.124,0.0387,0.449,0.028363336209563064,1.1575264732138142,0.11591050504943974,0.0597293316560061
0.125,0.116,0.4490000000000555,0.028372720946115152,1.16555815150388,0.11600589008336631,0.06116935382524541
0.126,0.0433,1.4489999999999446,0.028373904113427377,1.1735348622360873,0.11601791561584568,0.06259952070658019
0.127,-0.0039,0.4490000000000555,0.02840335983954827,1.1729630604711314,0.11631729913287668,0.062497000761406955
0.128,0.0044,1.4489999999998335,0.028574965886415626,1.1729630604711314,0.11806147687421209,0.062497000761406955
0.129,0.0119,-1.5509999999999444,0.02955816921751752,1.1729630604711314,0.1280546058846385,0.062497000761406955
0.13,0.0051,-0.551,0.030363760152174547,1.1712459802572623,0.13624250953081052,0.06218914062495304
0.131,-0.0009,-0.550999999999889,0.030513060613633902,1.170673060514816,0.13775997669704504,0.06208642023445406
0.132,-0.0301,1.448999999999889,0.030528421885127624,1.1615221405386367,0.13791610632246942,0.06044572607829843
0.133,-0.0454,-0.5509999999999445,0.030747355053343098,1.1609444221442244,0.14014130972183816,0.06034214532400453
0.134,-0.0312,0.4490000000000555,0.03261208854981512,1.1412383733002978,0.15909417716119517,0.056808992453767415
0.135,-0.0269,1.449,0.033170870051008765,1.0849230839457848,0.16477354729088112,0.04671206598225647
0.136,-0.0308,2.449,0.03316932559900427,1.0849230839457848,0.16475784971577828,0.04671206598225647
0.137,-0.0127,-0.551,0.0332326424176665,1.0953271481095368,0.16540139222362588,0.04857743988107436
0.138,0.0364,-0.551,0.03322977753975837,1.0416854074049653,0.16537227404061186,0.038959861459549106
0.139,0.0293,0.449,0.03328275469838451,1.042329228053266,0.16591072581758406,0.03907529387268671
0.14,-0.0152,-0.551,0.03347669313161461,1.0320409332969547,0.16788188653484523,0.037230676596235066
0.14100000000000001,-0.009399999999999268,-1.551,0.03361871519886764,1.042972651275087,0.169325377210163,0.03919065503011398
0.14200000000000002,0.017000000000000133,1.449,0.03380683997180338,1.042972651275087,0.17123744876905117,0.03919065503011398
0.14300000000000002,0.02169999999999988,-1.551,0.0340404157639683,1.0429726512750872,0.17361147756958492,0.03919065503011402
0.14400000000000002,0.017299999999999666,0.449,0.03422503850798015,1.0531541591625855,0.17548795503951137,0.04101612618879041
0.145,0.0053,-0.551,0.034219441792431124,1.0449005437211671,0.1754310708745102,0.03953631228405283
0.146,0.0086,0.449,0.034270755704617684,1.0455423845652838,0.17595261766782233,0.03965138973253511
0.147,-0.0023,-1.551,0.035170883857114546,1.0455423845652836,0.1851013832072321,0.03965138973253507
0.148,-0.0251,-0.551,0.035223653498916555,1.0455423845652834,0.18563772581478866,0.03965138973253503
0.149,-0.0279,0.449,0.03547740624699184,1.035286021478504,0.18821683012419396,0.037812497574840176
0.15,-0.0358,1.449,0.03565318309649106,1.0333401914702542,0.19000339926866933,0.03746362424497628
0.151,-0.0721,0.449,0.03586556894707958,1.0339892083389706,0.19216205672820175,0.037579988303073304
0.152,-0.0769,-1.551,0.03588613737411387,1.0339892083389703,0.19237111108999366,0.03757998830307326
0.153,-0.0333,1.449,0.03591225846063361,1.0339892083389703,0.192636601837662,0.03757998830307326
0.154,-0.0159,0.449,0.03599872988806949,1.0339892083389706,0.19351548426487478,0.037579988303073304
0.155,0.0318,-0.551,0.03614435284019416,1.0442583083773478,0.19499557378596097,0.039421164104610336
0.156,0.102,0.449,0.036385388462213626,1.055063447344499,0.1974454231617248,0.04135844783192979
0.157,0.111,-0.551,0.036350863476536564,1.0468248856565252,0.19709451646212348,0.03988133295694756
0.158,0.0509,0.449,0.0362769906976045,1.0468248856565252,0.19634368478074632,0.03988133295694756
0.159,0.012,0.449,0.036284135789114574,1.0468248856565252,0.19641630640334748,0.03988133295694756
0.16,0.005,1.449,0.03643323258753665,1.0468248856565254,0.19793170356946926,0.039881332956947596
0.161,-0.0012,0.449,0.03683131936094231,1.065129386307658,0.20197779694420268,0.0431631983134185
0.162,-0.0187,0.449,0.03684404202172174,1.0657590446389829,0.20210710813193256,0.04327609152495007
0.163,-0.0237,0.449,0.0368219122078304,1.0738523538748048,0.2018821840717739,0.04472716367963387
0.164,-0.0377,-1.551,0.03684400187995315,1.074476900438594,0.20210670013710633,0.04483914038800016
0.165,0.0017,-0.551,0.036894953376145796,1.0825050329069097,0.2026245633894172,0.04627852681689433
0.166,0.028,-1.551,0.03689384030260936,1.0806442297573153,0.20261325027940644,0.04594489819143997
0.167,0.0232,1.449,0.036842101261462076,1.096551423642824,0.2020873825400436,0.04879694368159031
0.168,0.01,0.449,0.03679931310059961,1.0861590865917228,0.20165249018554124,0.04693367236975216
0.169,0.0139,1.449,0.037050011223730576,1.114641208951609,0.2042005477519368,0.05204031212099233
0.17,0.0247,0.449,0.03731228073819825,1.1152429136052708,0.20686621517867348,0.052148193439107295
0.171,-0.0114,-1.551,0.03740197336428372,1.1253667045252904,0.20777783737868327,0.053963316360502646
0.17200000000000001,-0.006600000000000358,-0.551,0.037403982854747136,1.1253667045252904,0.20779826153390216,0.053963316360502646
0.17300000000000001,-0.01949999999999967,0.449,0.03740358360627466,1.1152429136052708,0.20779420363319487,0.052148193439107295
0.17400000000000002,-0.007599999999999697,1.449,0.03740637508267183,1.1056333138491732,0.20782257577442353,0.05042526129634291
0.17500000000000002,0.003300000000000272,1.449,0.03726550601906709,1.1056333138491732,0.20639080405269586,0.05042526129634291
0.176,0.0131,0.449,0.03541941230979451,1.105633313849173,0.1876273885733949,0.050425261296342866
0.177,-0.0313,0.449,0.035157482580933055,1.1229796494324535,0.18496517467584328,0.05353533454540276
0.178,-0.0756,0.449,0.035155753290279756,1.1235768886431872,0.1849475984288471,0.05364241524170744
0.179,-0.0696,1.449,0.035160022375564655,1.1253667045252929,0.18499098876191347,0.05396331636050308
0.18,-0.0325,0.449,0.03514283735217555,1.12357688864319,0.18481632279980564,0.05364241524170796
0.181,0.011,-0.551,0.03513990248386558,1.1235768886431898,0.18478649324500007,0.053642415241707916
0.182,0.0401,0.449,0.03515109389541794,1.1235768886431905,0.18490024104864736,0.053642415241708034
0.183,0.1089,1.449,0.03503823286828819,1.1158442937975057,0.18375313874673296,0.052256016583621286
0.184,0.0615,0.449,0.0347800019677619,1.1253667045252957,0.18112851917740574,0.0539633163605036
0.185,0.0017,-0.551,0.03464297582238182,1.135400230298313,0.1797358062916083,0.055762255390052376
0.186,-0.0214,-1.551,0.03458555821173823,1.1277487070570291,0.17915222243618253,0.0543903922877258
0.187,-0.0004,-0.551,0.03446791256930886,1.1020438328742372,0.17795649003259764,0.04978169316608502
0.188,-0.0191,-0.551,0.034444451148797656,1.101434917697124,0.1777180317254298,0.04967251905295928
0.189,-0.0363,-0.5510000000000556,0.03440828693647673,1.1008256657022497,0.17735046417571612,0.049563284550830686
0.19,-0.0311,-1.550999999999889,0.03429022736445991,1.1008256657022497,0.17615052465480585,0.049563284550830686
0.191,-0.0356,0.4489999999999445,0.03432971428119335,1.1086630159617767,0.17655186366644138,0.05096846510142267
0.192,-0.0398,-0.5510000000000556,0.034676020996626256,1.098995883207846,0.18007167241304073,0.049235217705811934
0.193,-0.0357,-1.5509999999999444,0.03609622164966051,1.098995883207846,0.19450637569110796,0.049235217705811934
0.194,-0.0104,-0.551,0.036068719736583515,1.1146412089516142,0.19422685043247814,0.05204031212099329
0.195,0.0193,-0.5509999999999445,0.03606984467288363,1.1400620866364153,0.19423828411381336,0.05659809271249336
0.196,0.0791,0.449,0.03617308642801373,1.1394734879461252,0.1952876175992092,0.05649256119937844
0.197,0.0193,0.4489999999999445,0.036162933652993626,1.1394734879461252,0.19518442633919178,0.05649256119937844
0.198,0.0425,-0.551,0.03616243131285845,1.129476146903851,0.19517932063051574,0.05470010983188187
0.199,0.0356,1.449,0.03615540218727254,1.129476146903851,0.1951078776679174,0.05470010983188187
0.2,0.0417,-0.551,0.03604757339454862,1.1300699527367493,0.19401192223058072,0.05480657494822683
0.201,0.0123,1.449,0.03592556243509127,1.1318495010554392,0.19277182140913948,0.05512563516672633
0.202,-0.0142,-2.551,0.035576611199101216,1.1318495010554392,0.1892251341581023,0.05512563516672633
0.203,-0.0283,-0.551,0.03595906712559696,1.1217842170988626,0.19311235798391138,0.0533210021232083
0.20400000000000001,-0.032400000000000324,-1.551,0.03687036432301469,1.113436824155631,0.2023746439959302,0.05182437458666054
0.20500000000000002,-0.044199999999998685,-1.551,0.03822790487566197,1.1134368241556312,0.21617247955074476,0.051824374586660574
0.20600000000000002,0.003300000000000183,-0.551,0.03955934593487028,1.1211860229589197,0.2297050438266774,0.053213750214962385
0.20700000000000002,0.009899999999999525,-1.551,0.03850783871520698,1.1211860229589197,0.21901768448899714,0.053213750214962385
0.20800000000000002,-0.007199999999998376,-0.551,0.03717831653398035,1.1205875094898967,0.20550462339681058,0.05310644105330841
0.209,0.0513,0.449,0.03684282150983466,1.2043045461219901,0.20209470303487828,0.06811630379175312
0.21,0.059,2.449,0.03743298065712536,1.2120262819577894,0.20809299078371019,0.06950075550744422
0.211,0.0097,-0.551,0.04256507156814583,1.2136856689923592,0.260254781681619,0.06979827167166663
0.212,0.0033,1.449,0.04797787645549833,1.2142382940638548,0.31526970670934384,0.06989735337358383
0.213,-0.0144,-0.551,0.048083793948447966,1.2235432554995507,0.31634623598668105,0.07156566605586498
0.214,-0.0196,1.449,0.0480412318500823,1.2494331887057615,0.3159136412969887,0.07620754492982111
0.215,-0.0055,1.449,0.04790300822208926,1.2408632323450386,0.31450875738017403,0.07467101337275929
0.216,0.0075,2.449,0.047913964654400246,1.2658692763050676,0.31462011689057656,0.07915441726008302
0.217,-0.0045,0.449,0.04791870348158666,1.2658692763050678,0.31466828160883364,0.07915441726008306
0.218,-0.0445,-2.551,0.0479104805610983,1.258477952268845,0.31458470509654646,0.07782920600437859
0.219,-0.0496,-0.551,0.04790411177466829,1.303741370589189,0.3145199737206228,0.08594461146296975
0.22,-0.0355,-1.551,0.0479262267517772,1.303741370589189,0.31474474698198296,0.08594461146296975
0.221,-0.005,-0.551,0.047972271825212555,1.304255838798296,0.31521274210016303,0.08603685191381046
0.222,0.0149,0.449,0.04841776588829945,1.3042558387982959,0.31974067595166566,0.08603685191381041
0.223,0.0113,-0.551,0.04854481447984244,1.304255838798296,0.32103197849888054,0.08603685191381046
0.224,0.0211,0.449,0.048511084952742894,1.304255838798296,0.3206891567191896,0.08603685191381046
0.225,-0.0058,0.449,0.04853880233996691,1.3042558387982959,0.32097087202425384,0.08603685191381041
0.226,0.005,2.449,0.0485402841735333,1.2976003839190189,0.32098593315508256,0.08484357670701023
0.227,0.0018,-0.551,0.0485230141819718,1.304770104153646,0.320810403589403,0.086129055994431
0.228,-0.007,-1.551,0.04845104325261163,1.3265525098486592,0.3200789020176065,0.09003448471895811
0.229,-0.0045,1.449,0.04785738778633609,1.3265525098486592,0.31404507821476435,0.09003448471895811
0.23,0.0023,-0.551,0.04737151228079744,1.3410443056558974,0.3091067135283751,0.09263275951045767
0.231,-0.0089,-0.551,0.04725982106491178,1.3410443056558976,0.30797150100989645,0.09263275951045771
0.232,-0.0107,-0.551,0.04726328196793385,1.3405439560411438,0.3080066771014515,0.09254305042207117
0.233,-0.0161,-1.551,0.04712149391951676,1.3474852008184608,0.30656556495796383,0.09378756570274623
0.234,-0.0048,-1.551,0.04584657785554646,1.3405439560411425,0.29360751213033365,0.09254305042207094
0.23500000000000001,0.018099999999999176,-0.551,0.04543271600827006,1.340543956041143,0.28940108330579806,0.092543050422071
0.23600000000000002,-0.01169999999999967,0.449,0.04543797756177002,1.3469872437299073,0.28945456093474525,0.09369828557710501
0.23700000000000002,0.00020000000000090483,0.449,0.04538972455551863,1.3390417854262142,0.28896412472347793,0.09227372203149631
0.23800000000000002,0.032799999999998906,0.449,0.045395873963944185,1.3390417854262147,0.2890266263747544,0.09227372203149638
0.23900000000000002,-0.0068000000000004324,0.449,0.045430735152378936,1.3469872437299077,0.2893809501880137,0.09369828557710509
0.24,-0.0224,1.449,0.04546357323205789,1.3548861082853982,0.28971471143180305,0.09511449519867246
0.241,0.0498,-0.551,0.04557392243096646,1.3533998564591856,0.29083628389398614,0.09484802093245766
0.242,0.1017,1.449,0.045613060255059956,1.3533998564591854,0.2912340747811624,0.09484802093245762
0.243,0.0165,2.449,0.0454607641225923,1.3533998564591854,0.2896861600707508,0.09484802093245762
0.244,-0.0175,2.449,0.046102796476963276,1.345492266722509,0.296211679201068,0.09343024694863813
0.245,-0.0278,0.449,0.04643340395689607,1.3454922667225087,0.29957192330752125,0.09343024694863805
0.246,0.0005,0.449,0.046394755137882084,1.344993571789994,0.2991791025935449,0.09334083453287971
0.247,-0.0013,0.449,0.04571741753108714,1.351911970692891,0.29229474625117013,0.09458125371253429
0.248,0.0241,-0.551,0.04568945816211292,1.3587951445486797,0.2920105714804273,0.09581535729451214
0.249,0.0009,-0.551,0.04549875803786625,1.3583013337236323,0.2900723244427921,0.09572682056410572
0.25,-0.0201,-1.551,0.04538074386457494,1.3519119706928913,0.288872846347618,0.09458125371253433
0.251,-0.052,0.449,0.04519769805579691,1.3583013337236323,0.2870123966073932,0.09572682056410572
0.252,-0.093,0.449,0.04518297119986253,1.3597822282102403,0.28686271508515376,0.09599233429784897
0.253,-0.088,0.449,0.04516060347917835,1.3444946918834364,0.28663537297656294,0.09325138895260549
0.254,-0.1022,0.449,0.04507344237379049,1.3439956267968538,0.28574948076761764,0.09316191017088422
0.255,-0.1066,1.449,0.04496300526295414,1.3424973183913849,0.28462701478198105,0.09289327424669618
0.256,-0.0468,0.449,0.04484765019930496,1.33452512836379,0.2834545634724841,0.09146391789519431
0.257,0.0475,0.449,0.04501585131030023,1.33452512836379,0.28516413396385853,0.09146391789519431
0.258,0.0103,4.449,0.04515290323900242,1.33452512836379,0.2865571089074176,0.09146391789519431
0.259,0.0673,1.449,0.04558757790443642,1.3768044129867223,0.2909750760479253,0.09904428963791041
0.26,0.2027,-1.551,0.046154948418476165,1.383563753488087,0.296741743596902,0.10025619078980809
0.261,0.2214,-0.551,0.045942483531109815,1.3695219573339132,0.29458228281958937,0.09773859770058292
0.262,0.037,-1.551,0.046240299747090284,1.3695219573339132,0.2976092415101732,0.09773859770058292
0.263,0.0124,-2.551,0.04712190336255101,1.3631851873194087,0.30656972647464525,0.0966024603986763
0.264,-0.0098,-0.551,0.04776579851675579,1.3626929673530213,0.31311417881894876,0.09651420889778925
0.265,0.0104,-2.551,0.04855898743582633,1.356324292557175,0.32117603026632874,0.09537235129798503
0.266,0.0288,-1.551,0.04921183239095495,1.356324292557175,0.3278114470250319,0.09537235129798503
0.267,-0.0214,0.449,0.049347944460335996,1.3777785943057221,0.32919486938150067,0.09921895334399458
0.268,-0.0062,3.449,0.0493662568492066,1.3984242530862059,0.32938099371477353,0.10292057152001383
0.269,-0.0201,1.449,0.04916999526741871,1.3960235432654302,0.32738622086916214,0.1024901415103727
0.27,-0.0324,-0.551,0.0489363329830478,1.436493928541534,0.3250113129750111,0.10974619060627941
0.271,-0.0665,-1.551,0.04881276191017917,1.4285766844763184,0.32375535539831224,0.10832668567076793
0.272,-0.0357,-0.551,0.048825974456313474,1.4360268364773063,0.3238896457062268,0.10966244435757876
0.273,-0.0073,0.449,0.04883329195829625,1.436493928541534,0.3239640196826311,0.10974619060627941
0.274,0.0181,1.449,0.04891367578427481,1.436493928541534,0.3247810286551852,0.10974619060627941
0.275,-0.005,-0.551,0.04898855854024823,1.458608926922394,0.32554212558948875,0.11371125080802079
0.276,0.0019,1.449,0.049041521622766586,1.480393595182952,0.3260804342990439,0.1176170851942821
0.277,-0.0168,2.449,0.04911225711128724,1.46864976194918,0.32679937903818573,0.11551150033421638
0.278,0.0007,0.449,0.04924018967966066,1.5102838535303194,0.32809966619136083,0.12297619360350931
0.279,-0.0148,2.449,0.04923862590861593,1.5027554208609768,0.3280837722604735,0.12162639975570444
0.28,-0.0006,0.449,0.0493283731382417,1.4965345256895082,0.328995949442556,0.12051103798000821
0.281,0.0124,0.44900000000011103,0.049451034118912135,1.4965345256895082,0.3302426569806717,0.12051103798000821
0.28200000000000003,0.016399999999998995,1.448999999999889,0.049444937665172106,1.4960861789773514,0.33018069355275903,0.12043065263815383
0.28300000000000003,-0.0016999999999998167,0.449,0.0494934228947941,1.495637697864487,0.33067349004701996,0.12035024319921893
0.28400000000000003,0.0015999999999995172,0.44900000000011103,0.04946726053110287,1.4942914469113362,0.3304075797644631,0.12010887008293082
0.28500000000000003,-0.007099999999999856,1.448999999999778,0.0494728917384208,1.4866820322466519,0.3304648144985537,0.11874455674562577
0.28600000000000003,-0.0044999999999993335,-0.551,0.049453476878676794,1.486682032246652,0.3302674848191233,0.11874455674562581
0.28700000000000003,0.007499999999998135,-0.5510000000001111,0.049478101868119434,1.486682032246652,0.3305177694638111,0.11874455674562581
0.28800000000000003,-0.026100000000000786,-1.551,0.04949392770864819,1.4866820322466523,0.3306786208981986,0.11874455674562585
0.289,-0.0402,-1.5509999999996669,0.04949414768307384,1.508061225536299,0.33068085668478,0.12257769238498815
0.29,-0.0444,1.448999999999889,0.04965830921215639,1.5080612255362988,0.3323493694804316,0.12257769238498811
0.291,-0.0403,0.448999999999889,0.049609479261713434,1.5080612255362986,0.331853069296214,0.12257769238498807
0.292,0.0141,-0.551,0.04937218223725912,1.5080612255362988,0.32944121845707514,0.12257769238498811
0.293,0.0846,-0.551,0.04838142555792559,1.5093951950788276,0.3193713183648677,0.12281686353265564
0.294,0.0563,-0.550999999999889,0.048445593103054053,1.4907377535596462,0.3200235075270346,0.11947171841620613
0.295,-0.0036,0.449,0.04897292196273141,1.479076055009592,0.3253831977955482,0.11738085971437853
0.296,0.0039,1.449,0.04890248259571378,1.4795295563645923,0.3246672627902924,0.1174621692466326
0.297,0.0108,1.449,0.048933701690682084,1.4799829187561848,0.32498456891989763,0.11754345386374682
0.298,-0.0081,0.449,0.04893686362713247,1.4799829187561848,0.32501670636072194,0.11754345386374682
0.299,-0.0139,-0.551,0.048878214483496364,1.4799829187561848,0.32442060539140377,0.11754345386374682
0.3,-0.0089,1.449,0.0488872045632688,1.4799829187561848,0.3245119791938901,0.11754345386374682
0.301,-0.0042,-1.551,0.04887075583935275,1.4799829187561848,0.32434479686755907,0.11754345386374682
0.302,0.0002,-1.551,0.04864031475166525,1.4804361423120371,0.3220026287262212,0.11762471358861105
0.303,-0.0039,0.449,0.04774605890894687,1.4808892271596195,0.3129135484496144,0.1177059484440798
0.304,-0.0075,1.449,0.04693934366060347,1.4885282551650654,0.30471421745025845,0.119075571240462
0.305,-0.0303,-0.551,0.04581360492960103,1.4947824707197646,0.29327238032961583,0.12019690712129623
0.306,-0.039,-0.551,0.04466059622703018,1.4947824707197646,0.2815533753685345,0.12019690712129623
0.307,-0.0365,-1.551,0.04445768791741088,1.4947824707197646,0.27949104619289916,0.12019690712129623
0.308,-0.0632,3.449,0.04421496052625203,1.4947824707197646,0.27702400193309573,0.12019690712129623
0.309,-0.0885,1.449,0.04420336023170341,1.42819521123191,0.2769060983049078,0.10825829026085727
0.31,-0.039,1.449,0.04371874661313849,1.4216480904356847,0.271980559245656,0.10708443857622077
0.311,0.0533,-0.551,0.03882452770909809,1.4141221875728283,0.2222364632217637,0.10573509830452942
0.312,0.0908,-0.551,0.03189876540523186,1.4202317057714289,0.15184406928986122,0.10683049098979643
0.313,0.0795,0.449,0.031711201450676754,1.412698257387172,0.1499376978036354,0.10547979786037066
0.314,0.0896,-0.551,0.03172400970883869,1.3898529315951904,0.1500678789901328,0.10138379520490591
0.315,0.0801,1.449,0.031784469610223354,1.3893701593924046,0.1506823842256038,0.10129723762010275
0.316,0.0374,3.449,0.03192544099630154,1.366625763149055,0.15211519593737774,0.09721933090701922
0.317,0.0142,2.449,0.03193585707807809,1.35879514454868,0.1522210634071915,0.09581535729451218
0.318,-0.0069,2.449,0.03186840007248963,1.3592887759790915,0.15153544066957622,0.09590386186075026
0.319,-0.013,3.449,0.03188796977610216,1.3159373736860525,0.15173434415851844,0.0881312671283638
0.32,-0.0073,0.449,0.031840529158691316,1.3159373736860525,0.1512521649437781,0.0881312671283638
0.321,-0.0124,-1.551,0.03182560760150624,1.3154274741733487,0.15110050450766077,0.08803984581193908
0.322,-0.0171,-0.551,0.031137487680560894,1.306776942137692,0.1441065583653662,0.08648886761570478
0.323,-0.0302,-0.551,0.032437738193546575,1.313385896526759,0.1573221066767993,0.08767380561895116
0.324,-0.0343,-2.551,0.03353213566208512,1.3568188229216127,0.16844539597600566,0.0954610170366306
0.325,-0.0235,-2.551,0.03348782919844175,1.3568188229216127,0.16799507182312903,0.0954610170366306
0.326,-0.0268,-1.551,0.03348739322258339,1.356324292557175,0.16799064063086167,0.09537235129798503
0.327,-0.0355,-3.551,0.03351702774673044,1.356324292557175,0.1682918414238168,0.09537235129798503
0.328,-0.0058,0.449,0.03348004227743318,1.3434963763238805,0.1679159267431938,0.09307239815071604
0.329,0.0301,0.449,0.0335072461470056,1.3519119706928913,0.1681924227330063,0.09458125371253433
0.33,0.0349,-0.551,0.03348261303168865,1.3390417854262107,0.16794205549816885,0.09227372203149567
0.331,0.0044,0.449,0.03350235653661085,1.3395426961359176,0.16814272547716944,0.092363531720173
0.332,0.0244,0.449,0.03360410841496051,1.3400434196042872,0.1691769160817332,0.09245330783782484
0.333,-0.0009,1.449,0.03385807462218531,1.3335665824142766,0.17175818995744496,0.09129205749844
0.334,0.0089,0.449,0.03436300535950582,1.3340695489313004,0.17689022911939392,0.09138223577858788
0.335,-0.0116,-0.551,0.03479240806286812,1.3340695489313001,0.1812546128398154,0.09138223577858784
0.336,-0.0195,0.449,0.034789141162672094,1.3270581347625423,0.18122140856345634,0.09012513963054887
0.337,-0.0125,0.449,0.03511558651541547,1.3270581347625423,0.18453934944264633,0.09012513963054887
0.338,-0.0328,-2.551,0.03582199285565312,1.3335665824142782,0.19171915596737263,0.09129205749844027
0.339,-0.0409,0.449,0.03578783936053802,1.3250344774475717,0.1913720250413009,0.08976231242417218
0.34,-0.0042,1.449,0.03557159199408278,1.323514703909164,0.18917411972223502,0.08948982795598358
0.341,0.0114,-0.551,0.035384360783081666,1.3164470756993745,0.18727113019084723,0.08822265303456941
0.342,0.0256,-1.551,0.03560164214246648,1.3235147039091655,0.18947954485667207,0.08948982795598386
0.343,0.0299,-0.551,0.036175082521893435,1.3230077247734031,0.19530790559359026,0.08939893024214707
0.34400000000000003,0.07379999999999642,-1.551,0.03524669595536211,1.3225005512877592,0.18587192583496098,0.08930799768277389
0.34500000000000003,0.009200000000000461,-0.551,0.03479442239812136,1.32250055128776,0.18127508623674068,0.08930799768277402
0.34600000000000003,0.017499999999998715,-0.551,0.034798961350917826,1.32250055128776,0.1813212194621199,0.08930799768277402
0.34700000000000003,-0.005699999999999822,0.449,0.03482063646316869,1.3159373736860607,0.18154152200401186,0.08813126712836528
0.34800000000000003,-0.002500000000000383,-0.551,0.03480686573485806,1.3174658881446513,0.18140155841741432,0.08840531878069499
0.34900000000000003,-0.009400000000000344,-0.551,0.03485607864750648,1.3174658881446515,0.1819017509712,0.08840531878069503
0.35000000000000003,-0.015600000000000322,-1.551,0.034997921700012834,1.3240214889183015,0.18334342216787927,0.08958069086431233
0.35100000000000003,-0.021399999999999128,-0.551,0.03520233630497594,1.3174658881446513,0.1854210611001257,0.08840531878069499
0.352,-0.0057,-0.551,0.035251141739610414,1.3093412980468864,0.18591711210939724,0.08694863819237579
0.353,-0.0104,-1.551,0.035284832040275764,1.3011659783123122,0.18625953519758143,0.08548286214492531
0.354,0.0026,1.449,0.03528728906548327,1.3230077247734036,0.18628450802782295,0.08939893024214714
0.355,0.0306,1.449,0.03534222511797517,1.3375379277450148,0.18684286970389644,0.09200409116206935
0.356,0.0196,0.449,0.03521330699759612,1.3370362659639263,0.18553256555014042,0.09191414681169355
0.357,-0.0101,0.449,0.03502143380588135,1.3434963763238876,0.18358239563330436,0.09307239815071731
0.358,0.0018,0.449,0.03483094236387672,1.3350277337524032,0.18164626961021504,0.09155403142761473
0.359,-0.0163,0.449,0.03427249555218614,1.2913814217738906,0.17597030121369736,0.08372856150903828
0.36,-0.0261,-0.551,0.03319453030359787,1.28465926992728,0.16501402649702582,0.08252332801554974
0.361,-0.0054,1.449,0.03296458045739315,1.2773766756379117,0.16267685125935027,0.08121761122168396
0.362,-0.0132,-0.551,0.032577510358354024,1.2841369507012965,0.158742729686103,0.0824296799338323
0.363,-0.0153,0.449,0.031787476559986344,1.2908618225236486,0.15071294640532684,0.08363540109941453
0.364,-0.0219,0.449,0.030921482227607728,1.29961829325245,0.1419111118183153,0.08520537334162519
0.365,-0.0317,-0.551,0.029601024968555618,1.29961829325245,0.12849018521539857,0.08520537334162519
0.366,-0.0299,-0.551,0.02849747887733962,1.2929389666429545,0.11727391070775008,0.08400781810523575
0.367,-0.0053,-0.551,0.028270781771724922,1.2563438341998954,0.1149697958303533,0.07744657397903182
0.368,0.0128,0.449,0.02837982573489736,1.23386588602372,0.11607810207517563,0.07341643948861765
0.369,-0.0101,1.449,0.02839768596191057,1.2180996495963563,0.11625963070415059,0.07058966665722154
0.37,-0.0309,0.449,0.028369895689420596,1.1695263790559722,0.11597717460433654,0.06188082849358055
0.371,0.0096,0.449,0.028409683236610892,1.1695263790559727,0.11638156917817861,0.06188082849358063
0.372,0.0977,1.449,0.028382536631311964,1.1678042457307503,0.11610565521372603,0.06157206237059318
0.373,0.0853,3.449,0.028373337035568873,1.175195002133445,0.11601215192280302,0.06289717185368734
0.374,0.0055,1.449,0.028244341225148843,1.1746240085175164,0.11470105813929521,0.06279479680382406
0.375,-0.0047,0.449,0.028058739158348864,1.1568923155298807,0.11281462698160648,0.05961563174290236
0.376,-0.0142,1.449,0.028027354178167537,1.1288820287218153,0.11249563481994426,0.054593588713582386
0.377,-0.0059,-1.551,0.027900820020804486,1.1441187474018613,0.11120956090343562,0.057325422820143586
0.378,-0.0135,-1.551,0.028172723476711868,1.0879525640126626,0.11397314624464686,0.04725522997613412
0.379,0.0074,-1.551,0.02834659651877191,1.1139826382104834,0.11574036538007634,0.05192223512226517
0.38,-0.0115,-0.551,0.02821732524312175,1.1139826382104834,0.11442647180989625,0.05192223512226517
0.381,-0.0289,-0.551,0.02806582777021205,1.1139826382104834,0.11288667455367303,0.05192223512226517
0.382,-0.0445,-0.551,0.028166414683833352,1.1139826382104832,0.11390902463404937,0.051922235122265126
0.383,-0.0587,-0.551,0.02806067501198903,1.1139826382104834,0.11283430270336163,0.05192223512226517
0.384,-0.0545,0.449,0.02806400085333722,1.1139826382104832,0.11286810604862023,0.051922235122265126
0.385,0.0053,0.449,0.0280625620061252,1.1139826382104832,0.11285348182455472,0.051922235122265126
0.386,0.048,-0.551,0.028104282752688826,1.11338025246576,0.11327752514258778,0.05181423168941994
0.387,0.0712,1.449,0.028081014598634314,1.141770897133802,0.11304103116626996,0.05690447014824169
0.388,-0.0209,0.449,0.02811349212205826,1.1694725206274559,0.11337112777116135,0.06187117206459237
0.389,-0.0086,1.449,0.027966065086558137,1.1423583120874976,0.11187270182123467,0.05700978942589633
0.39,0.0254,0.449,0.027665265615941067,1.1522438875961698,0.10881542178458593,0.05878220203681784
0.391,0.0563,1.449,0.02766366085098925,1.1539892423518265,0.10879911119786637,0.059095131595318914
0.392,0.0657,0.449,0.027648634195386886,1.1534077508886758,0.10864638255743204,0.05899087435692875
0.393,0.0229,0.449,0.027663242141363995,1.1534077508886758,0.10879485549696429,0.05899087435692875
0.394,-0.0002,-0.551,0.02750257310797263,1.1528259661182185,0.10716183989594816,0.05888656453064743
0.395,0.0067,0.449,0.02653392754988699,1.1528259661182185,0.09731667387471636,0.05888656453064743
0.396,0.0129,-0.551,0.02652063523308337,1.1522438875961698,0.09718157278986023,0.05878220203681784
0.397,-0.0045,-1.551,0.026852669622064212,1.1516615148771212,0.10055631978269745,0.05867778679558147
0.398,-0.0202,0.449,0.026866656317833013,1.1597338113530173,0.10069847842966885,0.060125091513493364
0.399,-0.0344,1.449,0.026915997380032277,1.1671756722482085,0.10119997347598457,0.06145936366464829
0.4,-0.0389,-0.551,0.026926199352722995,1.1671756722482085,0.10130366477363806,0.06145936366464829
0.401,-0.019,-0.551,0.026886331580558264,1.157997114950805,0.10089845480536636,0.05981371433551089
0.402,-0.0154,-0.551,0.02688369800978208,1.210364619937065,0.10087168759283564,0.06920283145456156
0.403,-0.0057,2.449,0.02690536891123493,1.2103646199370652,0.10109194733681746,0.0692028314545616
0.404,0.0211,2.449,0.027220866343891308,1.2009575554065421,0.10429861522255386,0.06751621242150431
0.405,0.0031,0.449,0.027392406208679748,1.2196991335992393,0.10604212029931233,0.0708764426385683
0.406,-0.0132,1.448999999999889,0.02722613819704646,1.2120262819577816,0.10435219753562884,0.06950075550744284
0.40700000000000003,0.0016999999999992561,0.448999999999889,0.02715948416536793,1.2125796632840555,0.10367473610261872,0.06959997280040427
0.40800000000000003,-0.011700000000000666,-0.551,0.027210478770023843,1.2218972555486864,0.10419303750278905,0.07127055009949718
0.40900000000000003,-0.02369999999999863,-0.550999999999889,0.02729248595066092,1.2218972555486864,0.1050265460050123,0.07127055009949718
0.41000000000000003,0.0010000000000009103,0.44900000000011103,0.0275159933763366,1.2218972555486864,0.10729824146098904,0.07127055009949718
0.41100000000000003,0.017400000000002153,1.449,0.027598500216172266,1.2213480959430618,0.10813682842325692,0.07117208973069376
0.41200000000000003,0.056199999999998536,1.448999999999667,0.027858870678650977,1.2136856689923516,0.11078319417461999,0.06979827167166529
0.41300000000000003,0.029799999999998668,-1.550999999999889,0.02824670414731354,1.2207986893055192,0.1147250745205324,0.07107358507084363
0.41400000000000003,0.005799999999999755,-0.551,0.02847327468330011,1.2284167485655688,0.1170279029634932,0.0724394483219426
0.41500000000000004,0.0013999999999993395,-0.5510000000001111,0.028465752040953453,1.2359878545126302,0.11695144397165355,0.07379689318161944
0.41600000000000004,-0.010500000000001005,-1.550999999999889,0.028432880794299484,1.2354449582434117,0.11661734562377823,0.07369955578399998
0.417,-0.0286,-0.550999999999778,0.028285310819279826,1.2354449582434117,0.11511746685833085,0.07369955578399998
0.418,-0.0122,1.448999999999889,0.028314534479174164,1.2349018233023206,0.11541449168955642,0.07360217559422978
0.419,-0.0034,0.449,0.028297305528704672,1.2424334113109348,0.1152393792592894,0.074952535171679
0.42,-0.0167,0.44900000000011103,0.028288852775371215,1.2349018233023208,0.11515346676094597,0.07360217559422982
0.421,0.0,1.449,0.02812058981548187,1.242433411310935,0.11344326764682584,0.07495253517167905
0.422,-0.0155,1.449,0.028242565731198724,1.242433411310935,0.11468301228902242,0.07495253517167905
0.423,-0.0135,0.449,0.026608081768549494,1.242433411310935,0.0980703660666776,0.07495253517167905
0.424,-0.0115,-1.551,0.025211493826045053,1.1948497715205602,0.08387565878450048,0.06642113068602003
0.425,-0.0194,0.449,0.025385608564311758,1.1870163049244118,0.08564533448338751,0.06501664644834809
0.426,0.0034,2.449,0.025416662054701333,1.1948497715205602,0.08596095743326024,0.06642113068602003
0.427,0.0528,0.449,0.02595375220915365,1.1875813402921391,0.09141986001616413,0.065117953227149
0.428,0.0319,2.449,0.026411521343023065,1.2048614739727312,0.09607255581879272,0.06821615695105185
0.429,0.0132,0.449,0.026499085072186155,1.1954111042467372,0.09696254023450877,0.06652177360781314
0.43,0.0191,-0.551,0.02679185365443102,1.1858854265269752,0.09993819554407095,0.06481388808276008
0.431,0.0242,0.449,0.03133868216477732,1.1853195827266991,0.14615146848045674,0.06471243635781587
0.432,0.0001,0.449,0.03219642658134557,1.1926017985430248,0.15486945217883694,0.06601808529418633
0.433,-0.0044,1.449,0.031888774692274115,1.1998398170508924,0.15174252520397924,0.0673158099709311
0.434,-0.0084,0.449,0.031574456662659914,1.208700673547586,0.14854784459125436,0.06890449783078592
0.435,-0.0192,0.449,0.03150625418253294,1.2092555767446587,0.1478546449638934,0.06900398798423925
0.436,-0.0158,-2.551,0.032618470127309895,1.2092555767446587,0.15915903854355426,0.06900398798423925
0.437,-0.0184,-2.551,0.03228673064665618,1.2163945028569962,0.15578728895406788,0.0702839461069448
0.438,-0.0158,-0.551,0.03232238303027712,1.2087006735475863,0.15614965435477696,0.06890449783078596
0.439,0.0009,-1.551,0.03283540000405374,1.2087006735475863,0.16136388079331312,0.06890449783078596
0.44,0.003,-1.551,0.032965336564669455,1.208700673547586,0.16268453621862453,0.06890449783078592
0.441,-0.0068,0.449,0.03293437832007508,1.2163945028569962,0.16236988133251745,0.0702839461069448
0.442,-0.0271,-1.551,0.03247466316430966,1.2092555767446589,0.15769740645952904,0.06900398798423929
0.443,0.0026,0.449,0.03180737329622955,1.2169458978255312,0.1509151738041518,0.07038280726024565
0.444,0.0145,-1.551,0.031725591580814796,1.2429732552212844,0.1500839568961317,0.07504932530329993
0.445,-0.0037,0.449,0.03173622246931057,1.2429732552212844,0.15019200762874532,0.07504932530329993
0.446,0.0456,0.449,0.031760128898469034,1.2435128647702305,0.15043498893607204,0.07514607341560625
0.447,0.0104,1.449,0.03173433427205555,1.2435128647702305,0.15017281627923532,0.07514607341560625
0.448,0.0165,1.449,0.03176985468382837,1.2435128647702305,0.15053384033816672,0.07514607341560625
0.449,0.012,-0.551,0.032096000141137296,1.2509926111673866,0.15384873312580602,0.07648713816486483
0.45,-0.0054,-0.551,0.032459382671274226,1.244052240262737,0.15754209785405995,0.07524277956327584
0.451,0.0211,-3.551,0.03293110104872962,1.2509926111673866,0.1623365716453741,0.07648713816486483
0.452,-0.0122,-0.551,0.03300395030322543,1.2509926111673866,0.163077000380165,0.07648713816486483
0.453,-0.0426,0.449,0.032973536344242604,1.2509926111673866,0.16276787753017166,0.07648713816486483
0.454,-0.0307,-2.551,0.032993483534991305,1.2278705047775742,0.16297061774091112,0.07234151073827538
0.455,-0.0052,0.449,0.03297863904921168,1.2048614739727312,0.16281974064682828,0.06821615695105185
0.456,0.0046,-0.551,0.0329863816362178,1.2284167485655688,0.1628984351227104,0.0724394483219426
0.457,0.0195,-1.551,0.03321495219709049,1.2284167485655701,0.1652215915142031,0.07243944832194285
0.458,-0.0212,0.449,0.0332317026655645,1.2284167485655706,0.16539184072629465,0.07243944832194292
0.459,-0.0386,0.449,0.033656600464900294,1.2278705047775758,0.16971043728785248,0.07234151073827567
0.46,-0.0337,0.449,0.033778218426922385,1.2349018233023228,0.17094654374317728,0.07360217559423018
0.461,0.0384,0.449,0.03393010192972467,1.2605584905732887,0.17249026454847366,0.07820223156319067
0.462,0.0485,1.449,0.03399520305600091,1.2536710778604359,0.17315194248733234,0.07696736798461878
0.463,0.039,1.449,0.0335323698336334,1.2552754145703502,0.16844777605998065,0.07725501402144506
0.464,-0.0209,1.449,0.033405812510145697,1.2689954451494658,0.167161466686507,0.07971491685657292
0.465,-0.0286,0.449,0.033404089189648344,1.2689954451494656,0.16714395111926716,0.07971491685657289
0.466,-0.0076,-0.551,0.033452894453177597,1.2758001318791086,0.16764000038945126,0.0809349482611592
0.467,-0.0139,0.449,0.03350234518057474,1.2674084759260076,0.1681426100561468,0.07943038468519513
0.468,-0.0081,1.449,0.03343012135308759,1.2742216375269055,0.16740853806627976,0.08065193557326271
0.46900000000000003,0.007399999999999734,0.449,0.03341016666162604,1.2668790444219296,0.1672057216194365,0.07933546142315298
0.47000000000000003,0.002599999999998307,1.449,0.03341571762282009,1.2668790444219296,0.1672621407441377,0.07933546142315298
0.47100000000000003,-0.027899999999999786,0.449,0.033374032913184484,1.2742216375269066,0.16683846369995606,0.08065193557326292
0.47200000000000003,-0.023999999999999,1.449,0.033383420962595584,1.2668790444219293,0.1669338824052774,0.07933546142315295
0.47300000000000003,-0.0059999999999979904,0.449,0.03334764181920393,1.2600261808798892,0.16657022863755205,0.0781067922624975
0.47400000000000003,0.03019999999999758,0.449,0.03332025961820667,1.2600261808798892,0.1662919201142801,0.0781067922624975
0.47500000000000003,-0.013400000000002276,1.449,0.033305372818408514,1.2509926111673964,0.1661406129469532,0.07648713816486657
0.47600000000000003,-0.05439999999999971,-0.551,0.0333024952909895,1.251528763092998,0.1661113661962358,0.07658326635016775
0.47700000000000004,-0.04929999999999867,-2.551,0.03333552409324901,1.2289627495616366,0.16644706591530536,0.07253734237476304
0.47800000000000004,-0.025399999999996356,0.449,0.03292349166118725,1.2547408635933979,0.16225923098856812,0.07715917287472583
0.47900000000000004,0.040200000000006814,0.449,0.03297828386353029,1.240863232345041,0.16281613059362313,0.07467101337275973
0.48,0.163,0.449,0.033234107895945865,1.249970009517477,0.1654162871218066,0.07630379304159317
0.481,0.0793,1.449,0.03338734663763802,1.256877703432511,0.1669737823689076,0.07754229289389325
0.482,0.0032,1.449,0.03336909026131707,1.257411345995992,0.1667882273386641,0.07763797116860861
0.483,-0.0381,-1.551,0.033410435916929715,1.257944762178817,0.1672084582893615,0.07773360885490004
0.484,-0.0504,-0.551,0.03376471387268547,1.25050659988134,0.17080928550935237,0.0763999998357222
0.485,-0.0846,0.449,0.03398436262877741,1.25050659988134,0.17304176203498264,0.0763999998357222
0.486,-0.0122,1.449,0.03426619807534521,1.2505065998813407,0.17590629461758356,0.07639999983572231
0.487,0.0728,0.449,0.034465899220288546,1.2478213406086764,0.17793602665959374,0.07591855215528237
0.488,0.0615,0.449,0.0347385842287514,1.2218972555486922,0.18070755558202387,0.0712705500994982
0.489,0.0305,1.449,0.03470352037819177,1.2213480959430674,0.18035117194177316,0.07117208973069476
0.49,0.021,1.449,0.03470489861053315,1.2125796632840604,0.18036518008551927,0.06959997280040514
0.491,0.0127,-0.551,0.03470412731498028,1.20318991705497,0.1803573407549137,0.06791645881427529
0.492,0.005,1.449,0.03470367710753347,1.2037473606020543,0.18035276491494745,0.06801640443422045
0.493,-0.002,-2.551,0.03460352342982066,1.2020742544432967,0.17933481817840508,0.06771642852967236
0.494,-0.0082,-0.551,0.03461823434109718,1.2256830952118305,0.17948433764156888,0.07194932393072197
0.495,-0.014,-0.551,0.03459464003398623,1.2169458978255288,0.17924452869522703,0.07038280726024522
0.496,0.0015,-0.551,0.034669796056411704,1.2169458978255296,0.1800084030681571,0.07038280726024537
0.497,0.0157,-1.551,0.03451763196746803,1.2402716859329816,0.1784618304280258,0.07456495335432584
0.498,-0.0499,1.449,0.034512686277977184,1.2402716859329803,0.17841156319279164,0.0745649533543256
0.499,-0.0594,-0.551,0.03457033401554156,1.232726890507669,0.1789974860232141,0.07321222578202455
0.5,-0.0678,1.449,0.03461963719753518,1.2321825574674548,0.1794985960608851,0.073114630781696
0.501,-0.029,-0.551,0.034620286140677796,1.2316379838545775,0.17950519182021535,0.07301699264841867
0.502,0.0061,-0.551,0.03455604023440132,1.1796462167356325,0.17885220620726683,0.06369524262740348
0.503,-0.0128,0.449,0.034539796500507064,1.179077378718217,0.1786871073683172,0.06359325406085471
0.504,-0.0186,-0.551,0.034288810450356526,1.1869632401011214,0.17613612335551818,0.06500713230707088
0.505,0.0078,2.449,0.034182074037539,1.1694186597184444,0.17505127070128612,0.06186151519086924
0.506,0.0411,1.449,0.034185294835474236,1.169992193713852,0.17508400640128347,0.061964345712507654
0.507,0.0107,0.449,0.034288034923236996,1.1773692156855526,0.17612824101591312,0.06328699271087583
0.508,0.0546,0.449,0.03423769053534804,1.1682707470404041,0.17561654831999696,0.06165570270124632
0.509,0.0372,1.449,0.0341722112000561,1.1762290621884306,0.17495102632226733,0.06308257138660264
0.51,0.0321,-2.551,0.033954247679749874,1.1762290621884306,0.1727356782766645,0.06308257138660264
0.511,0.0273,-0.551,0.033786603620489256,1.1841338923799984,0.17103176957433597,0.06449985060382546
0.512,0.0056,-1.551,0.03357918281139735,1.1841338923799984,0.16892357604087893,0.06449985060382546
0.513,-0.0063,2.449,0.03322732485562879,1.1762290621884306,0.16534734533242568,0.06308257138660264
0.514,0.0047,-0.551,0.03313138724684978,1.1682707470404041,0.1643722500788264,0.06165570270124632
0.515,-0.0181,1.449,0.03343548784443589,1.1602578463617532,0.16746308226754564,0.06021904722272173
0.516,-0.021,-0.551,0.03353818768386686,1.1682707470404041,0.16850690780425698,0.06165570270124632
0.517,-0.0183,1.449,0.03435847501627223,1.1676963675273957,0.1768441834003014,0.061552720584381396
0.518,0.004,0.449,0.034352366357356216,1.1682707470404041,0.17678209592083766,0.06165570270124632
0.519,0.007,0.449,0.03530545567366066,1.1682707470404041,0.18646915066831835,0.06165570270124632
0.52,-0.001,1.449,0.03557692771428927,1.1682707470404041,0.189228351170299,0.06165570270124632
0.521,-0.0079,0.449,0.03573134331683933,1.169992193713852,0.1907978078520376,0.061964345712507654
0.522,-0.0014,-0.551,0.03619395470701448,1.169992193713852,0.19549971961074977,0.061964345712507654
0.523,0.0004,0.449,0.0365258420047786,1.171711111286549,0.19887297159084796,0.062272535274188724
0.524,0.0058,0.449,0.0366380992533933,1.1813510873655209,0.2000139371798325,0.06400091367323717
0.525,-0.0189,-0.551,0.036518625610797294,1.1819188310850148,0.1987996252607817,0.06410270604003664
0.526,-0.0152,-0.551,0.03651705975916173,1.174570383834322,0.1987837101830858,0.06278518228369148
0.527,0.0075,-2.551,0.03611570488190776,1.174570383834322,0.19470440029825475,0.06278518228369148
0.528,-0.0371,-1.551,0.03593970358428316,1.15509681843819,0.1929155498971948,0.05929371202407631
0.529,-0.0432,-1.551,0.03596615013444981,1.1631452739500598,0.19318434860783368,0.06073674222855602
0.53,-0.0372,1.449,0.03582291629695262,1.1631452739500598,0.1917285416841898,0.06073674222855602
0.531,-0.0215,-0.551,0.03196204639072693,1.172855656770985,0.1524872475948518,0.06247774405020867
0.532,-0.0166,-0.550999999999889,0.031003986994626424,1.174570383834322,0.142749677712787,0.06278518228369148
0.533,0.049,0.449,0.03106372232131857,1.1666007535718361,0.14335681848136594,0.06135628487966882
0.534,0.0395,0.449,0.030912562699950023,1.1648742950522033,0.14182045509678487,0.06104674328042195
0.535,0.0479,0.44900000000022205,0.03065901976166765,1.1648742950522033,0.13924348326218097,0.06104674328042195
0.536,0.0403,2.448999999999778,0.029483152663626045,1.1654500653940678,0.12729214904866037,0.06114997476290064
0.537,0.0472,0.449,0.030111139612095873,1.1574176370613618,0.13367491281115684,0.05970981811640878
0.538,0.0026,0.448999999999889,0.02950986871293375,1.1579971149507997,0.12756368690755024,0.05981371433550993
0.539,-0.0032,-0.550999999999889,0.02895048123386108,1.1579971149507997,0.12187815771093377,0.05981371433550993
0.54,0.0019,0.448999999999889,0.02894872959623323,1.1579971149507997,0.1218603543326895,0.05981371433550993
0.541,0.0066,-0.550999999999778,0.02896738309009392,1.1579971149507997,0.12204994560516433,0.05981371433550993
0.542,-0.0064,1.449000000000111,0.02901776056933383,1.1574176370613618,0.12256197463653497,0.05970981811640878
0.543,-0.0104,2.4489999999996668,0.029185239029849163,1.1574176370613618,0.12426420021842112,0.05970981811640878
0.544,-0.0068,-0.550999999999889,0.029238673105048525,1.1294203786100632,0.12480729602589934,0.05469011097778254
0.545,-0.0231,0.44900000000022205,0.03019364374368176,1.1288262310763464,0.13451347224718618,0.05458358459693767
0.546,-0.032,2.448999999999889,0.0301658960252845,1.1282317706536897,0.13423144866069361,0.05447700211735557
0.547,0.0086,1.448999999999889,0.030168340057691437,1.1282317706536897,0.13425628943408766,0.05447700211735557
0.548,0.0259,0.449,0.030130450694821384,1.1282317706536897,0.13387118771676643,0.05447700211735557
0.549,-0.022,0.449,0.029716058355038356,1.119932435446902,0.12965936704713618,0.05298899098741467
0.55,-0.0058,0.449,0.0291690343561768,1.1294203786100632,0.12409949838162171,0.05469011097778254
0.551,0.0003,0.449,0.028369992218771903,1.1211298422900748,0.11597815571397113,0.053203677424980333
0.552,0.0061,0.449,0.02853522805265228,1.1211298422900748,0.117657587580075,0.053203677424980333
0.553,-0.0094,1.449,0.02910672117194585,1.1306077369835381,0.12346615666137703,0.05490299579698038
0.554,0.0146,-1.551,0.029556052306072493,1.1312009488064914,0.12803308991891238,0.05500935441161316
0.555,-0.007,-0.551,0.029766219076417078,1.1312009488064914,0.130169192984597,0.05500935441161316
0.556,-0.0269,1.449,0.029780295001742323,1.1061829783275976,0.13031225854719905,0.05052381218520925
0.557,0.0059,-0.551,0.029798507326325954,1.108000891923252,0.1304973658422893,0.05084975102202022
0.558,0.0015,1.449,0.030866116334216157,1.1163889308162513,0.1413483813047608,0.052353666085114915
0.559,-0.0025,0.449,0.030381432911430077,1.1163889308162513,0.1364221327660296,0.052353666085114915
0.56,0.0011,1.449,0.030160964905388426,1.108606200666581,0.13418132950860312,0.05095827852749892
0.561,-0.0087,0.449,0.02999095023612396,1.079343556609935,0.1324533262870104,0.0457116968480198
0.562,0.0,0.449,0.02995361791069134,1.089185128822944,0.13207388621342023,0.04747621998441479
0.5630000000000001,-0.02970000000000221,0.449,0.029948452694607053,1.079343556609935,0.132021387743303,0.0457116968480198
0.5640000000000001,-0.0495999999999988,0.449,0.029950892663001126,1.0524571138543948,0.13204618721068886,0.04089115097682252
0.5650000000000001,-0.03880000000000402,1.449,0.030047416923458203,1.0524571138543948,0.13302724510265365,0.04089115097682252
0.5660000000000001,-0.07499999999999303,0.449,0.030001193517964854,1.0706653281250182,0.13255743744457887,0.04415575287757203
0.5670000000000001,-0.012299999999989542,-0.551,0.02993951102574631,1.0706653281250182,0.13193050598195485,0.04415575287757203
0.5680000000000001,0.08189999999999585,1.449,0.02991205606014618,1.0619161814864309,0.1316514578903343,0.04258709379207618
0.5690000000000001,0.044499999999998756,0.449,0.02992181278112767,1.0725434442529873,0.13175062371738405,0.04449248559556778
0.5700000000000001,0.033300000000003424,-1.551,0.029915690563256297,1.0725434442529873,0.13168839842676183,0.04449248559556778
0.5710000000000001,0.06409999999999896,0.449,0.029915520104725736,1.0638097440161614,0.13168666591220157,0.04292659593884736
0.5720000000000001,0.05469999999999718,-1.551,0.02990684579623503,1.0638097440161614,0.1315985015609613,0.04292659593884736
0.5730000000000001,0.029299999999997425,-1.551,0.029961737592819292,1.0638097440161611,0.1321564134267255,0.042926595938847324
0.5740000000000001,0.006100000000000766,-0.551,0.02996553118289516,1.0644401829682115,0.1321949708988593,0.04303962911006229
0.5750000000000001,0.01299999999999931,-0.551,0.02998403854538909,1.0650702487493813,0.13238307691436402,0.04315259537442148
0.5760000000000001,0.006799999999995459,-0.551,0.030098302533561532,1.073168752556526,0.13354443869878083,0.04460459887839424
0.577,-0.0341,1.449,0.030207327945923162,1.073168752556526,0.1346525563959856,0.04460459887839424
0.578,-0.0289,1.449,0.03020791464208465,1.0537311990304077,0.13465851948647387,0.041119585288145355
0.579,-0.0242,0.449,0.030082941909761546,1.0537311990304077,0.133388315656417,0.041119585288145355
0.58,-0.0198,-1.551,0.02991457552363271,1.051819492521912,0.1316770653337405,0.040776830056437695
0.581,-0.0159,-1.551,0.029790506033213565,1.051819492521912,0.13041604191691902,0.040776830056437695
0.582,-0.0195,0.449,0.029748468312023976,1.0518194925219122,0.12998877691703228,0.040776830056437736
0.583,-0.0227,1.449,0.02971338719616367,1.0518194925219129,0.12963221779489334,0.040776830056437854
0.584,-0.0313,-0.551,0.029327929144065068,1.105576342858351,0.12571448082139056,0.050415046807312756
0.585,0.0094,-0.551,0.029073707948696532,1.1157878441690359,0.12313061528499591,0.0522458955711123
0.586,0.0624,0.449,0.02867719926689701,1.1241177792125314,0.11910056139315642,0.053739393031760556
0.587,0.0414,-0.551,0.02842726838173776,1.0989385681204988,0.11656030191672917,0.049224941522748956
0.588,0.0226,0.449,0.028079826072082946,1.1073952523146662,0.11302895116329964,0.05074116419477992
0.589,-0.0303,1.449,0.028334828546210198,1.1080008919232571,0.11562075749808459,0.050849751022021134
0.59,-0.0234,1.449,0.02864432091987319,1.107395252314667,0.11876639087820264,0.05074116419478008
0.591,0.0213,0.449,0.02874504742098419,1.1073952523146675,0.11979015970457857,0.050741164194780156
0.592,-0.0316,1.449,0.028773646307698107,1.106789281297664,0.12008083443629092,0.05063251794839343
0.593,0.0178,0.449,0.02892336609496938,1.1067892812976625,0.12160256356625494,0.05063251794839315
0.594,0.0758,0.449,0.02955962799940798,1.0805859412849823,0.1280694327217416,0.045934447487447704
0.595,0.0054,0.449,0.030079235842007508,1.080585941284983,0.13335064774784108,0.04593444748744782
0.596,-0.0041,-0.551,0.029991095202186128,1.1067892812976696,0.13245479970000193,0.05063251794839442
0.597,0.0042,-1.551,0.029892747149408157,1.0805859412849845,0.13145520506047498,0.0459344474874481
0.598,-0.0034,0.449,0.02991312320198173,1.080585941284986,0.13166230415752825,0.04593444748744838
0.599,0.0176,-1.551,0.02980498554356681,1.080585941284986,0.13056320945631864,0.04593444748744838
0.6,-0.0012,0.449,0.029743231929226482,1.080585941284986,0.12993555511927382,0.04593444748744838
0.601,-0.0422,-0.551,0.029779576305446163,1.0812065982764019,0.1303049538274329,0.04604572682345435
0.602,-0.0577,-1.551,0.0297941328367613,1.0916460834280346,0.13045290419616634,0.047917451450720586
0.603,-0.0529,-0.551,0.02982311122690298,1.101986676312879,0.13074743614295675,0.04977144540559202
0.604,-0.0399,-0.551,0.029817219290061887,1.0941015026396976,0.13068755139367674,0.048357690460784565
0.605,-0.012,-0.551,0.029807686311624833,1.0836856715722996,0.1305906596517943,0.04649020684074755
0.606,0.0424,-1.551,0.029799847459729592,1.0830664352279764,0.130510986754231,0.04637918221655076
0.607,0.0812,1.449,0.029678533385194387,1.0750424951715984,0.1292779689650702,0.044940547456973394
0.608,0.0033,0.449,0.029690979344137405,1.0849230839457895,0.12940446779744974,0.04671206598225731
0.609,-0.0069,-0.551,0.02970063481145203,1.076912977629011,0.1295026044976406,0.04527591151272483
0.61,0.0026,0.449,0.029716119607243043,1.0873936843172842,0.12965998960522182,0.0471550268651258
0.611,-0.0228,-1.551,0.02972620087937799,1.0794019121719478,0.12976245412079748,0.045722159580709285
0.612,0.0005,-0.551,0.029714102624274617,1.0898586840998188,0.1296394892973224,0.047596983602662256
0.613,0.0074,0.449,0.029714110472175446,1.0898586840998183,0.12963956906219198,0.04759698360266217
0.614,-0.0245,-0.551,0.02957683650719463,1.09047406340612,0.1282443373756916,0.047707316687674015
0.615,-0.0071,2.449,0.029160601070518388,1.0989958832078395,0.12401378374976438,0.04923521770581078
0.616,0.0085,-0.551,0.02894637107558018,1.0910890956356933,0.12183638268774678,0.04781758754432395
0.617,0.0131,0.449,0.028021798598333175,1.0996061490194764,0.11243916875208597,0.04934463397799551
0.618,-0.0086,-1.551,0.027999765590987664,1.0989958832078377,0.11221522861892491,0.04923521770581046
0.619,0.0035,0.449,0.026776533673606426,1.11644535005261,0.09978248559072299,0.05236378164853687
0.62,-0.0001,0.449,0.02642659666893552,1.1164453500526093,0.09622577913685101,0.05236378164853675
0.621,0.0033,0.449,0.026249961516333135,1.1164453500526075,0.09443048633027175,0.05236378164853643
0.622,0.0182,-0.551,0.02552346141471364,1.1170460828935203,0.08704644987319925,0.052471488727612856
0.623,0.0048,-0.551,0.025130050741191227,1.106846189856757,0.0830478836659609,0.050642721243863396
0.624,-0.012,-0.551,0.02496275899049652,1.1050263766261006,0.08134755577427372,0.05031644181615505
0.625,-0.0323,1.449,0.025240249767053368,1.1044191058587043,0.08416792979215691,0.05020756253386815
0.626,-0.0298,-0.551,0.02542868740647569,1.1038115009964655,0.08608318127839532,0.05009862335077815
0.627,-0.0077,-1.551,0.02559043361114496,1.1032035614873628,0.08772714508433097,0.04998962416791157
0.628,0.025,-1.551,0.025682014788333516,1.094714496904134,0.08865796223030858,0.04846759592493852
0.629,0.0293,1.449,0.026141383118393535,1.094714496904134,0.09332691201961536,0.04846759592493852
0.63,0.0254,1.449,0.026140458644585203,1.094714496904134,0.09331751580853553,0.04846759592493852
0.631,0.0146,-0.551,0.02606635767621549,1.0843045542764878,0.09256436484444537,0.04660116805981083
0.632,-0.0082,-0.551,0.02614221988379733,1.0843045542764878,0.09333541677582101,0.04660116805981083
0.633,-0.0111,3.449,0.026230995567824017,1.0849230839457709,0.09423771931630698,0.04671206598225396
0.634,-0.0086,-1.551,0.026168418772953853,1.0769129776289914,0.09360169829764779,0.045275911512721326
0.635,-0.0017,1.449,0.026027048879775458,1.0849230839457706,0.09216483622036147,0.04671206598225392
0.636,0.014,-0.551,0.02770047039840371,1.0849230839457706,0.10917323783524854,0.04671206598225392
0.637,-0.0162,1.449,0.0276736925366525,1.0849230839457706,0.10890107172409093,0.04671206598225392
0.638,-0.038,-0.551,0.027530690327031797,1.0849230839457706,0.10744761903092911,0.04671206598225392
0.639,-0.0421,0.449,0.0277248264309224,1.0849230839457709,0.10942078884269744,0.04671206598225396
0.64,-0.0241,0.449,0.027736694473581947,1.0762898446664224,0.10954141382193261,0.04516418825288994
0.641,-0.0144,0.449,0.027647620320436602,1.0682150031896247,0.10863607768675258,0.04371642723461507
0.642,0.0301,1.449,0.027565626158964508,1.0688428437768946,0.10780270150934065,0.043828994537707285
0.643,0.0619,0.449,0.02739194736393924,1.0600786557358604,0.10603745667120754,0.04225763863690114
0.644,0.0561,-0.551,0.02736234647803326,1.0607113122807816,0.10573659777221475,0.042371069406573265
0.645,-0.0022,2.449,0.0264397452011103,1.0694703157856924,0.0963594188166241,0.04394149575732952
0.646,0.0209,0.449,0.026470347550136362,1.0700974198643867,0.09667045643434333,0.044053931009729645
0.647,0.014,1.449,0.026529077377390957,1.078158163115727,0.09726737745967945,0.04549916431754697
0.648,-0.0049,0.449,0.026695072553285397,1.0682150031896247,0.09895452716243981,0.04371642723461507
0.649,-0.0108,0.449,0.02700466341459689,1.0787802168869933,0.10210116155602707,0.04561069408613721
0.65,-0.0158,-0.551,0.027059561225824535,1.0682150031896247,0.10265913455371115,0.04371642723461507
0.651,-0.0093,-1.551,0.02706025114381794,1.0682150031896247,0.10266614677518826,0.04371642723461507
0.652,0.0145,-1.551,0.02687189032812788,1.067586793373607,0.10075167611367171,0.043603793731463156
0.653,-0.0073,-0.551,0.02651106353443682,1.0569096924895722,0.0970842875016618,0.041689466311846266
0.654,0.0125,0.449,0.025977916813180006,1.0562747589641308,0.09166546537355305,0.04157562729593849
0.655,0.0016,0.449,0.025709122333340374,1.0644401829682089,0.08893347919189767,0.04303962911006182
0.656,-0.0017,-0.5510000000001111,0.025845555656929642,1.0644401829682089,0.0903201667272428,0.04303962911006182
0.657,-0.0104,-1.550999999999889,0.02573365317407838,1.0625477439420714,0.08918280692348131,0.04270032839940682
0.658,-0.0077,-0.5510000000001111,0.024420418948751976,1.0644401829682089,0.07583529413598233,0.04303962911006182
0.659,-0.0099,-1.550999999999889,0.024419613429390787,1.075042495171578,0.075827106959798,0.04494054745696973
0.66,-0.0078,-0.5510000000001111,0.024410467677175862,1.0830664352279566,0.07573415092630012,0.046379182216547216
0.661,-0.002,-1.550999999999778,0.024415951139181224,1.093488164739213,0.07578988399952102,0.048247723385157905
0.662,-0.0002,0.448999999999889,0.024427131136050002,1.0830664352279566,0.07590351578606172,0.046379182216547216
0.663,-0.0083,-0.550999999999778,0.025159954012432324,1.0910313651816135,0.08335181596347575,0.047807236888992286
0.664,-0.0041,1.448999999999778,0.02516024945652066,1.1013777295357818,0.08335481881222201,0.04966226562681636
0.665,0.0162,-0.550999999999778,0.025081793008012637,1.1007684458884732,0.08255739941092494,0.04955302544963389
0.666,0.019,1.448999999999889,0.025251930123653857,1.0849230839457706,0.08428664715885424,0.04671206598225392
0.667,-0.0053,0.44900000000022205,0.025261131770552666,1.0843045542764878,0.08438017129741177,0.04660116805981083
0.668,-0.0021,2.448999999999778,0.025274290067916913,1.0843045542764878,0.08451391022908433,0.04660116805981083
0.669,-0.0108,0.44899999999977797,0.02543146822048859,1.073793696720834,0.0861114450487731,0.04471664687367477
0.67,-0.0133,-1.550999999999889,0.025481376496085607,1.0843045542764846,0.08661870516573177,0.046601168059810266
0.671,0.0186,-0.550999999999889,0.025508604393915123,1.0849230839457675,0.08689544537509226,0.046712065982253366
0.672,0.0316,0.44900000000011103,0.025553442987886855,1.09348816473921,0.08735117801963432,0.04824772338515739
0.673,-0.0044,1.448999999999889,0.025687304277496346,1.1013777295357787,0.08871172379308134,0.049662265626815805
0.674,-0.0378,0.449,0.02571431332707359,1.1007684458884701,0.08898623966211516,0.04955302544963333
0.675,-0.0335,0.449,0.025877634153743882,1.1001588248112397,0.09064620768640635,0.04944372477369203
0.676,-0.0295,0.449,0.025713284018380248,1.09164608342801,0.08897577792522034,0.047917451450716166
0.677,-0.0404,0.44900000000011103,0.02561126945936548,1.101377729535777,0.0879389174743573,0.049662265626815486
0.678,-0.0567,1.449,0.025714558161566804,1.0916460834280088,0.08898872812263955,0.04791745145071597
0.679,-0.0241,0.449,0.02593013417152445,1.0812065982763759,0.09117980987644668,0.04604572682344969
0.68,-0.0024,0.449,0.025768508372044873,1.0725434442529795,0.089537069850533,0.044492485595566386
0.681,0.0255,-1.551,0.025660345567781413,1.0725434442529793,0.08843771957074613,0.04449248559556635
0.682,0.0291,-0.551,0.02570493243512988,1.0725434442529782,0.08889089370420299,0.04449248559556615
0.683,-0.0137,-0.551,0.025707265195818115,1.071917771172944,0.0889146035287841,0.04438030691093681
0.684,0.0156,1.449,0.025683984027362022,1.0163822622996614,0.08867797727606944,0.03442318947304974
0.685,0.0953,-0.551,0.025669814553460436,1.005828599446103,0.08853396089997587,0.0325309936047716
0.686,0.0612,0.449,0.025688004357507354,0.996510362774706,0.08871883929975866,0.030860300768178865
0.687,0.0304,-0.551,0.02565055969023691,0.996510362774706,0.08833825740082765,0.030860300768178865
0.6880000000000001,0.03979999999999907,0.449,0.02559927542576989,0.9871041661197898,0.08781701194242446,0.029173837338977826
0.6890000000000001,0.03139999999999569,0.449,0.02532304773986583,0.9864243017674373,0.08500947578568951,0.029051942548859802
0.6900000000000001,-0.0073999999999992344,-0.551,0.02499861641012172,0.995836920114785,0.08171200512972293,0.030739557341341515
0.6910000000000001,-0.0005000000000006884,-0.551,0.02488648594937239,0.995836920114785,0.0805723281933045,0.030739557341341515
0.6920000000000001,-0.006700000000000633,0.449,0.024845407470806612,1.0242107733061403,0.08015481278944618,0.03582678520912486
0.6930000000000001,-0.01240000000000172,-0.551,0.024665559489699458,1.0429122573364897,0.0783268652829479,0.03917982683115894
0.6940000000000001,-0.027899999999998436,1.449,0.023877240362810404,1.0429122573364897,0.07031450966210163,0.03917982683115894
0.6950000000000001,-0.013800000000000477,-0.551,0.023229160884151938,1.0511814844237668,0.06372752848091932,0.04066243979175047
0.6960000000000001,-0.018100000000001323,1.449,0.02327035522286781,1.0242107733061403,0.0641462214697089,0.03582678520912486
0.6970000000000001,-0.03000000000000121,-0.551,0.023227015481874804,1.055003745546607,0.06370572293871207,0.041347743728826665
0.6980000000000001,-0.04089999999999819,-1.551,0.023188719011342854,1.046764713975738,0.06331648344107847,0.039870544607219796
0.6990000000000001,-0.024599999999997013,0.449,0.023230804452919508,1.0575442448106116,0.06374423346371615,0.04180323698054563
0.7000000000000001,0.0023000000000028198,0.449,0.0232473010159026,1.0682150031896134,0.06391190201904327,0.04371642723461304
0.7010000000000001,0.02770000000000109,0.449,0.0231985739539781,1.0682150031896134,0.06341664757806732,0.04371642723461304
0.7020000000000001,0.03749999999999569,0.449,0.0231809832204822,1.0873936843172554,0.0632378580401845,0.047155026865120624
0.7030000000000001,-0.001299999999998268,0.449,0.02317731179900821,1.0775357502372649,0.06320054227112569,0.04538757016361849
0.704,0.0143,1.449,0.023176283903546212,1.077535750237265,0.06319009489809914,0.04538757016361853
0.705,-0.0291,-0.551,0.023159049474673545,1.077535750237265,0.06301492678617608,0.04538757016361853
0.706,-0.0349,1.449,0.02317751029528826,1.078158163115716,0.06320255975710433,0.04549916431754498
0.707,0.0021,-1.551,0.023205305470182847,1.0781581631157153,0.06348506568421268,0.04549916431754486
0.708,-0.0026,-1.551,0.023185748725803437,1.078158163115717,0.06328629391094341,0.04549916431754518
0.709,0.0018,1.449,0.02317416416460247,1.0775357502372656,0.06316855019410644,0.04538757016361861
0.71,0.0058,-1.551,0.023156960636053058,1.077535750237267,0.06299369614836581,0.04538757016361889
0.711,0.024,0.449,0.023161321728693438,1.0769129776289816,0.06303802163018947,0.04527591151271957
0.712,0.0603,1.449,0.023172315737999917,1.0663292634446397,0.0631497630674549,0.043378327656902554
0.713,0.0075,-1.551,0.023279520020705154,1.0663292634446404,0.06423937108001425,0.04337832765690268
0.714,0.0144,0.449,0.023267900696116315,1.0663292634446415,0.06412127403339403,0.043378327656902874
0.715,-0.0301,-1.551,0.02331118249379553,1.0581784166130666,0.06456118363736864,0.04191693942499876
0.716,0.0109,0.449,0.023255501234704778,1.0663292634446455,0.06399524779484739,0.043378327656903595
0.717,-0.0154,0.449,0.023636135744708832,1.066329263444647,0.06786395902066071,0.04337832765690387
0.718,-0.0295,0.449,0.023969939453937005,1.066329263444646,0.07125668911519525,0.04337832765690367
0.719,-0.0163,-1.550999999999778,0.024078307698934365,1.039106135765616,0.07235812746333271,0.03849741659970614
0.72,0.0118,-0.551,0.024216610227335914,1.039106135765617,0.07376381331189052,0.03849741659970634
0.721,0.0155,1.449,0.02457853449482512,1.0281333075425667,0.07744235648054554,0.03653006739449834
0.722,0.0319,1.449,0.02562666911736445,1.0274805917508854,0.08809543725437848,0.03641304014610913
0.723,-0.0127,0.449,0.025452217547185883,1.0281333075425667,0.08632233804720624,0.03653006739449834
0.724,-0.0314,0.449,0.025448505889629124,1.0196771848902768,0.08628461332472624,0.03501394540288849
0.725,-0.014,0.4489999999995559,0.026208464422461195,1.0287856092170469,0.09400871618415627,0.0366470203946509
0.726,-0.0191,-1.551,0.02676202054098688,1.0378140961070152,0.09963497631972612,0.03826576317874895
0.727,0.0243,-0.550999999999778,0.02687284202196008,1.0384603168788349,0.10076134898493114,0.03838162591677646
0.728,0.0417,0.449,0.026609955205180013,1.0391061357656197,0.09808940739144677,0.03849741659970682
0.729,0.0047,0.44900000000022205,0.026005231277459007,1.0300889733607617,0.09194308543113039,0.036880704214365435
0.73,0.0094,1.449,0.025893179692999625,1.0300889733607619,0.09080421018131775,0.03688070421436548
0.731,-0.021,-0.550999999999778,0.02594856709026692,1.0300889733607619,0.09136715925699217,0.03688070421436548
0.732,-0.0089,0.449,0.025851075055954274,1.019019052683555,0.09037626505885785,0.03489594703022682
0.733,0.002,0.44899999999977797,0.02569737270485262,1.0183604951481673,0.0888140577562816,0.0347778723991935
0.734,-0.0012,-0.551,0.02582427428828132,1.0177015114584194,0.090103866135398,0.034659721361747456
0.735,-0.0098,0.44899999999977797,0.025777454990897168,1.0177015114584194,0.08962800192284189,0.034659721361747456
0.736,-0.0018,-0.551,0.024391078634236382,1.0170421007859418,0.07553708364494156,0.03454149376936801
0.737,0.0004,0.449,0.02364129187012912,1.0170421007859416,0.06791636509465268,0.03454149376936798
0.738,-0.0062,0.449,0.02344921106103602,1.0170421007859416,0.0659640849863833,0.03454149376936798
0.739,0.0119,1.448999999999778,0.02372310481333535,1.0177015114584194,0.06874789939719239,0.034659721361747456
0.74,-0.0047,0.449,0.02548335771794561,1.0183604951481673,0.08663884200316814,0.0347778723991935
0.741,0.0019,2.449,0.02610725667079403,1.026827461052285,0.09298005600037547,0.03629593850789254
0.742,-0.0038,2.449,0.026287283527778985,1.0261739146545346,0.09480982157407021,0.03617876233780726
0.743,0.0017,0.449,0.026280071443850292,1.026827461052285,0.09473651905072268,0.03629593850789254
0.744,-0.0096,1.449,0.027126801043579066,1.0261739146545348,0.1033425498272391,0.03617876233780729
0.745,-0.014,-0.551,0.028081533958724546,1.0170421007859416,0.11304630986317872,0.03454149376936798
0.746,-0.0153,-2.551,0.028534341455103522,1.0255199517628815,0.11764857633753258,0.03606151149335982
0.747,-0.0042,-0.551,0.029103722872991365,1.0163822622996785,0.12343568240715497,0.0344231894730528
0.748,-0.0148,-1.551,0.029056125493932425,1.0157219951658736,0.12295190989088299,0.03430480832331536
0.749,-0.0139,-1.551,0.028773022570444826,1.0137386135009039,0.1200744948657835,0.03394920225139988
0.75,0.0049,-0.551,0.028689461129984835,1.0137386135009039,0.1192251891032838,0.03394920225139988
0.751,0.0023,-2.551,0.02869190099781335,1.0248655715800359,0.11924998754853662,0.03594418583160193
0.752,0.0139,-0.551,0.02857456206463117,1.0255199517628815,0.11805737249105794,0.03606151149335982
0.753,0.007,-0.551,0.02836230230017559,1.0345769375982017,0.11589999655179,0.03768536393345061
0.754,-0.0087,0.449,0.028362644286573733,1.0454821390714488,0.1159034724494892,0.03964058814865862
0.755,0.0094,-0.551,0.02833202716383451,1.036520445901132,0.11559228467399804,0.038033820998243886
0.756,0.0115,-0.551,0.028182887258016334,1.046764713975758,0.11407644937086335,0.03987054460722342
0.757,-0.0042,-1.551,0.028115886537502976,1.0378140961070148,0.11339546424530327,0.038265763178748864
0.758,-0.0024,0.449,0.028136300235224846,1.026827461052285,0.11360294596191409,0.03629593850789254
0.759,-0.0043,-1.551,0.02852687613413892,1.0157219951658736,0.11757269995149561,0.03430480832331536
0.76,-0.009,0.449,0.02917787015845232,1.0157219951658736,0.1241893041311109,0.03430480832331536
0.761,-0.0074,0.449,0.029334455095565492,1.0051613998806728,0.12578080959916885,0.032411369519888295
0.762,-0.0223,0.449,0.029441648056059085,1.0051613998806728,0.1268703025344923,0.032411369519888295
0.763,0.0039,-0.551,0.02886459422138108,0.9958369201148063,0.12100521518838267,0.030739557341345335
0.764,0.0148,-0.551,0.029045071335273516,0.9843818914204001,0.12283955710475442,0.028685753058668797
0.765,-0.0016,1.449,0.02980912910618626,0.9843818914204001,0.1306053239961184,0.028685753058668797
0.766,-0.0463,1.449,0.029753421995810866,0.9734813693660168,0.1300391254050747,0.02673136782961782
0.767,-0.0402,0.449,0.02974057802008394,0.9830179270232389,0.12990858119068305,0.02844120404923017
0.768,-0.0229,0.449,0.02970082946435536,0.9830179270232389,0.1295045829201232,0.02844120404923017
0.769,-0.028,0.449,0.02958244908668146,0.9830179270232389,0.12830138277934208,0.02844120404923017
0.77,0.0441,0.449,0.029588720132730874,0.9809684245112403,0.12836512073691375,0.02807374298485462
0.771,0.0749,0.449,0.029764510031132965,0.9917866613046045,0.13015182250845178,0.030013375058240012
0.772,-0.0103,-0.551,0.0302394419071437,0.9823352346299116,0.13497895780997696,0.02831880221169911
0.773,0.0008,-0.551,0.030164007835682998,0.9734813693660204,0.13421225738897283,0.02673136782961846
0.774,0.0732,1.449,0.03018632740848752,0.9734813693660204,0.13443911012984303,0.02673136782961846
0.775,0.0637,1.449,0.030046837705383717,0.9741702665121799,0.13302135801830353,0.026854882134719846
0.776,0.0383,-0.551,0.03006120066643688,0.9837001456250507,0.13316734096835633,0.028563520939349087
0.777,0.0151,-0.551,0.03000278331961057,0.972791984367201,0.1325735959465327,0.026607766056042852
0.778,-0.0059,0.449,0.029914827346749804,0.9721021104778087,0.1316796248255743,0.02648407662790265
0.779,0.0003,0.449,0.02964537323182281,0.9721021104778088,0.1289409342132897,0.026484076627902666
0.78,-0.0171,0.449,0.02967918226556952,0.9721021104778077,0.12928456408644126,0.02648407662790247
0.781,-0.012,0.449,0.029689080425731987,0.9631541810648733,0.12938516747979892,0.024879777220224313
0.782,-0.0073,0.449,0.029724324891018807,0.972102110477809,0.12974338686064657,0.026484076627902708
0.783,-0.029,0.449,0.029711225227243405,0.972102110477809,0.1296102438718468,0.026484076627902708
0.784,-0.0011,1.449,0.029875154525011365,0.9727919843672036,0.1312763963037633,0.02660776605604331
0.785,0.0461,0.449,0.029931004559788737,0.9727919843672036,0.13184404755667514,0.02660776605604331
0.786,-0.0119,0.449,0.03020116066914868,0.9727919843672046,0.1345898731335303,0.026607766056043487
0.787,-0.0043,-0.551,0.030381280770906113,0.972102110477811,0.13642058643290034,0.026484076627903065
0.788,-0.0536,-0.551,0.0303868241063299,0.972102110477811,0.13647692805043318,0.026484076627903065
0.789,-0.0982,-0.551,0.030380623583906505,0.9727919843672046,0.13641390688426244,0.026607766056043487
0.79,-0.0572,1.449,0.030362205647787282,0.9638504594367471,0.1362267097848192,0.02500461492602489
0.791,-0.0307,0.449,0.030382183734998118,0.9645462351852802,0.13642976402249726,0.025129362515074364
0.792,0.0027,-0.551,0.030416739887959777,0.944294006898152,0.13678098750163548,0.0214982835977288
0.793,0.0684,0.449,0.03043018332204857,0.9141752383568343,0.13691762451957756,0.016098204953726037
0.794,0.0778,0.449,0.03043138279988379,0.9149087922183524,0.13692981582973013,0.016229725886807194
0.795,0.0525,1.449,0.03050365068125304,0.9046545361253177,0.13766433557654967,0.014391211497941356
0.796,0.0601,0.449,0.03053429468506687,0.9039126606472798,0.13797579656719178,0.014258198558851045
0.797,0.025,0.449,0.03053929702550999,0.8677746845336274,0.1380266395940824,0.00777891927553281
0.798,0.0061,1.449,0.030539579715494546,0.8670012522850052,0.13802951281205905,0.007640248434371495
0.799,-0.0112,0.449,0.03052887702746981,0.8646768046517456,0.1379207323199612,0.0072234916866230296
0.8,0.0044,-1.551,0.030502312658376968,0.8514590496291728,0.13765073611568893,0.004853643247396883
0.801,-0.0097,-0.551,0.030500430583054648,0.85145904962917,0.13763160698857113,0.004853643247396366
0.802,-0.014,1.449,0.030500058909552756,0.8243880073004046,0.13762782935566786,0.0
0.803,-0.0019,-1.551,0.0304772280642251,0.8576656642420373,0.13739578011868994,0.005966444621613306
0.804,-0.0055,0.449,0.03047209805531787,0.9220756286796965,0.13734363948896167,0.017514688134412797
0.805,-0.0022,-1.551,0.0304984501293562,0.9829538493968086,0.1376114779586119,0.02842971539153257
0.806,-0.029,0.449,0.03068637639744394,0.9822711124686171,0.1395215319444381,0.028307305569220564
0.807,-0.0109,0.449,0.030684189667738865,1.038984894873629,0.1394993063565434,0.038475678979500993
0.808,-0.0471,0.449,0.030681449925174388,1.0586932244183087,0.1394714600301162,0.042009240762984755
0.809,-0.0613,1.449,0.030681096843890324,1.0885111567596553,0.13946787136568514,0.04735538163936005
0.81,-0.0308,-0.551,0.030971276748112987,1.1073383719730445,0.14241721574583527,0.050730965958499664
0.811,-0.0347,0.449,0.03316709960345741,1.1358800398831335,0.1647352250358441,0.05584828179875571
0.812,-0.0164,0.449,0.03558394852214127,1.1458215080509913,0.18929970959271591,0.05763071556159818
0.8130000000000001,0.03320000000000393,0.449,0.03578440669051881,1.1458215080509901,0.1913371359056897,0.057630715561597975
0.8140000000000001,0.06859999999999504,0.449,0.03626843953444417,1.1458215080509901,0.19625677205990086,0.057630715561597975
0.8150000000000001,0.023999999999998058,-0.551,0.03945674218741427,1.1452358694428744,0.22866219495417403,0.05752571476993376
0.8160000000000001,0.006499999999999412,1.449,0.04120274107908842,1.13706065287312,0.2464082619421764,0.05605995721919371
0.8170000000000001,0.0011999999999984235,0.449,0.04140364746734478,1.1288262310762949,0.24845024389377807,0.054583584596928435
0.8180000000000001,-0.013000000000000489,0.449,0.04121947873177804,1.1294203786100117,0.246578380896586,0.05469011097777331
0.8190000000000001,-0.017399999999994246,1.449,0.04119735873101094,1.1300142137483278,0.24635355657552865,0.054796581348368976
0.8200000000000001,0.03440000000000235,-1.551,0.04119002429332409,1.1306077369834866,0.2462790104672059,0.054902995796971145
0.8210000000000001,0.05559999999999646,0.449,0.04095513115241292,1.131200948806439,0.24389159233452024,0.05500935441160376
0.8220000000000001,0.023699999999995457,-0.551,0.04045138821552572,1.131200948806439,0.23877162579538816,0.05500935441160376
0.8230000000000001,-0.017199999999999434,0.449,0.040444145188010684,1.131200948806439,0.23869800876613878,0.05500935441160376
0.8240000000000001,-0.012100000000000522,-0.551,0.04045791426951565,1.131200948806439,0.23883795561485419,0.05500935441160376
0.8250000000000001,-0.016799999999998556,1.449,0.03996201249982636,1.131200948806439,0.23379768550566934,0.05500935441160376
0.8260000000000001,-0.0038000000000004554,-0.551,0.03945294782708177,1.1229235584999795,0.22862362965326913,0.05352527784450678
0.8270000000000001,-0.0079000000000004,0.449,0.039278055266010685,1.1223259716234797,0.22684604828178562,0.05341813481422996
0.8280000000000001,-0.011500000000000378,0.449,0.039252959930586424,1.1217280663899423,0.22659098311212889,0.0533109347048253
0.8290000000000001,-0.01489999999999969,0.449,0.039248921034652766,1.1217280663899423,0.2265499323885929,0.0533109347048253
0.8300000000000001,-0.012100000000001488,-0.551,0.03937604717422347,1.1223259716234797,0.22784202312215845,0.05341813481422996
0.8310000000000001,-0.02549999999999702,1.449,0.03967601344359499,1.1223259716234797,0.23089083462816345,0.05341813481422996
0.8320000000000001,0.0012999999999963807,0.449,0.039866282360799976,1.1223259716234797,0.23282469894305816,0.05341813481422996
0.833,-0.0313,-0.551,0.03997928842418665,1.1229235584999795,0.23397327537141288,0.05352527784450678
0.834,-0.0183,-0.551,0.03987587246147691,1.1235208275274322,0.23292217126669257,0.053632363886734806
0.835,0.0415,0.449,0.04019275569033416,1.1253107325752005,0.23614292417409175,0.05395328099229266
0.836,0.0331,0.449,0.04015625736250594,1.1253107325752005,0.23577196072521545,0.05395328099229266
0.837,-0.0058,0.449,0.04029864934383159,1.1353447529963192,0.2372192111508651,0.05575230870868946
0.838,0.001,-0.551,0.04040625347642225,1.1347537074196337,0.2383128831768014,0.05564633848643706
0.839,-0.0054,-0.551,0.04019913365304773,1.1347537074196337,0.23620774881636483,0.05564633848643706
0.84,0.012,-0.551,0.038992205256316755,1.14235831208744,0.22394071229060084,0.05700978942588602
0.841,-0.0146,1.449,0.03860764596578613,1.1423583120874399,0.22003211019288038,0.05700978942588598
0.842,-0.0098,-0.551,0.03848742620297881,1.1429454251402094,0.2188102148215639,0.05711505457487527
0.843,0.0032,-0.551,0.03855505592626459,1.1429454251402094,0.21949759303556649,0.05711505457487527
0.844,0.0231,0.449,0.03794885900425651,1.1429454251402096,0.21333629978551105,0.05711505457487531
0.845,0.0196,0.449,0.03714331419363421,1.1429454251402096,0.20514886493700774,0.05711505457487531
0.846,0.0163,0.449,0.036775250386865924,1.1347537074196337,0.20140792042557895,0.05564633848643706
0.847,-0.0044,0.449,0.03632935448621966,1.1347537074196337,0.196875902358284,0.05564633848643706
0.848,-0.0124,1.448999999999778,0.03624975796987217,1.1347537074196339,0.19606689548098877,0.0556463384864371
0.849,-0.0056,0.449,0.03626019851249648,1.1270977951402188,0.19617301156713618,0.054273688461131016
0.85,-0.0035,-0.550999999999556,0.03626993969639004,1.1371160464602024,0.1962720194775889,0.05606988889107492
0.851,-0.0017,1.449,0.036396013915250415,1.127692853335345,0.1975534186491606,0.05438037811701889
0.852,-0.0073,2.449000000000222,0.036464656998015064,1.135344752996319,0.19825109649466968,0.05575230870868942
0.853,0.0042,3.449,0.03644439928681786,1.135344752996319,0.1980452002013539,0.05575230870868942
0.854,0.0154,3.4489999999993337,0.03644438198171674,1.1253107325752005,0.19804502431494,0.05395328099229266
0.855,0.0352,0.449,0.03644129500729254,1.1259067352594545,0.19801364877674044,0.05406013998829022
0.856,0.0109,3.4489999999986676,0.03647536469041846,1.1157878441689821,0.1983599278505106,0.052245895571102666
0.857,0.001,-2.551,0.03646601473946241,1.1157878441689824,0.19826489637208766,0.05224589557110271
0.858,-0.0019,-2.551,0.036450472007135616,1.1163889308161983,0.19810692240637487,0.052353666085105395
0.859,-0.0425,-2.551,0.03642639947715272,1.1163889308161983,0.19786225287554968,0.052353666085105395
0.86,-0.119,-2.550999999999778,0.03612232010160728,1.1086062006665276,0.1947716363844217,0.050958278527489326
0.861,-0.1291,-1.551,0.03599150894032821,1.1080008919231987,0.1934420916510852,0.05084975102201066
0.862,-0.0439,0.44899999999977797,0.03600328199098051,1.1080008919231987,0.1935617511460168,0.05084975102201066
0.863,0.0592,-0.551,0.035986464411229976,1.1086062006665274,0.19339081982512524,0.050958278527489284
0.864,0.1561,0.449,0.03677921727987341,1.1086062006665274,0.20144823932233244,0.050958278527489284
0.865,0.1187,0.449,0.036875725946102805,1.1086062006665274,0.20242913871694054,0.050958278527489284
0.866,0.0617,0.44899999999977797,0.03682383218218298,1.1163889308161983,0.2019016983988669,0.052353666085105395
0.867,0.0098,-0.551,0.03682365747416918,1.1080008919231987,0.2018999226932058,0.05084975102201066
0.868,-0.0185,-0.551,0.03682350355495901,1.1080008919231987,0.20189835828178068,0.05084975102201066
0.869,-0.0269,-0.551,0.036851677552551164,1.1086062006665274,0.202184714505129,0.050958278527489284
0.87,-0.0037,-0.550999999999778,0.036811050333555556,1.100768445888422,0.20177178563485865,0.04955302544962469
0.871,-0.0388,0.449,0.03665722350503202,1.0910313651815617,0.20020831316271226,0.04780723688898301
0.872,-0.0069,-0.551,0.036252957680950285,1.0910313651815617,0.19609941685737983,0.04780723688898301
0.873,0.0106,-0.551,0.03618353258236224,1.1423583120874399,0.19539379072206722,0.05700978942588598
0.874,0.037,1.449,0.036144460834754345,1.1423583120874399,0.19499667142623353,0.05700978942588598
0.875,0.0036,0.449,0.036131554848272816,1.1666007535717853,0.19486549694397035,0.0613562848796597
0.876,-0.0094,0.449,0.03609463404723058,1.207590102198142,0.19449023954164865,0.06870538037289427
0.877,-0.0055,0.449,0.03609565466323868,1.2070344333420027,0.19450061292741372,0.06860575294227543
0.878,-0.0018,0.449,0.03616329994417444,1.207590102198142,0.19518814926700284,0.06870538037289427
0.879,-0.0316,-0.551,0.03615475534225237,1.2081455154825462,0.19510130323358438,0.0688049619813386
0.88,-0.0516,0.449,0.036146700220041364,1.2343584493742472,0.19501943219744874,0.073504752555812
0.881,-0.0407,0.449,0.03612647901398236,1.2338148361435464,0.1948139069368014,0.07340728661215372
0.882,-0.0309,-0.551,0.036037327762008846,1.2267772875282885,0.19390778718086657,0.07214550474576528
0.883,-0.004,-0.551,0.036043929409478155,1.2273240178734117,0.19397488532095142,0.0722435295656273
0.884,0.0504,-1.551,0.03590998494403977,1.2267772875282885,0.19261349416103918,0.07214550474576528
0.885,0.0428,0.449,0.03589369765959706,1.2262303134165278,0.1924479526809436,0.07204743622029787
0.886,0.0359,-1.551,0.03569360116396339,1.2267772875282885,0.19041420235469064,0.07214550474576528
0.887,0.0298,0.449,0.03554140561714253,1.2273240178734117,0.18886730998148363,0.0722435295656273
0.888,-0.0347,-0.551,0.035551233484992305,1.2365305124242882,0.1889671989344738,0.07389418784344216
0.889,-0.0094,1.449,0.03557073025754024,1.235987854512577,0.1891653611631759,0.07379689318160994
0.89,-0.017,1.449,0.03566680839717303,1.2445913820030543,0.19014188475098373,0.0753394438008586
0.891,0.0041,-0.551,0.03593609338010205,1.2440522402626844,0.19287885633138338,0.0752427795632664
0.892,0.023,-0.551,0.0360226047652593,1.2370729322921676,0.19375814488279441,0.0739914398257269
0.893,-0.0062,0.449,0.036012537742430295,1.2370729322921676,0.19365582519499555,0.0739914398257269
0.894,-0.0011,0.449,0.0360111353674222,1.2365305124242882,0.19364157166885954,0.07389418784344216
0.895,-0.0058,0.449,0.036001431564452485,1.2440522402626844,0.19354294369242717,0.0752427795632664
0.896,-0.0187,0.449,0.0361524665042101,1.251528763092936,0.19507803983209168,0.07658326635015661
0.897,-0.0068,0.449,0.03792328888871394,1.2589608862849015,0.213076409022995,0.07791579260113776
0.898,-0.0106,-0.551,0.03816693997301194,1.2589608862849015,0.21555284155927554,0.07791579260113776
0.899,-0.014,-1.551,0.038148646794800234,1.252064685430673,0.21536691248021575,0.07667935337200438
0.9,0.0306,-0.551,0.03814726551866551,1.252064685430673,0.21535287339981737,0.07667935337200438
0.901,0.0244,1.449,0.038165739725663846,1.2515287630929406,0.21554064242791124,0.07658326635015744
0.902,0.007,1.449,0.038174854891088794,1.244591382003059,0.21563328758193123,0.07533944380085944
0.903,0.0019,0.449,0.03826333996200367,1.2218972555486332,0.2165326363749811,0.07127055009948761
0.904,-0.0028,-0.551,0.038319280825301026,1.1831067413321708,0.21710121079514563,0.06431568980621748
0.905,-0.0159,0.449,0.038323997333923124,1.133034313843443,0.21714914867091195,0.05533806358075209
0.906,-0.0278,0.449,0.038223328288883744,1.1412383733002551,0.216125963819303,0.05680899245375977
0.907,-0.0024,-0.551,0.03824526184031467,1.0898586840998152,0.2163488930976857,0.04759698360266162
0.908,-0.0452,0.449,0.038247039709179746,1.060078655735872,0.21636696308623268,0.04225763863690322
0.909,-0.0394,-0.551,0.03828120694706231,1.0300889733607648,0.21671423369170115,0.036880704214366
0.91,-0.0025,0.449,0.0381413629744791,0.999199594541599,0.21529288083909398,0.03134246068827159
0.911,-0.0359,0.449,0.03627906780242228,0.9782934621464247,0.19636479615797184,0.027594141465956654
0.912,0.0122,-0.551,0.03390482677391468,0.9673243336258882,0.17223337171178568,0.02562745559080835
0.913,0.0829,0.449,0.033657330815460566,0.9769209972004396,0.16971786045978526,0.027348068369233283
0.914,0.0736,0.449,0.03318239406808463,0.9769209972004397,0.1648906756464456,0.027348068369233303
0.915,0.0139,1.449,0.02928996611267926,0.9769209972004397,0.1253286303484878,0.027348068369233303
0.916,0.0064,0.449,0.026787322103558234,0.9769209972004397,0.09989213755071741,0.027348068369233303
0.917,-0.0005,0.449,0.026073013123576783,1.0058285994461307,0.0926320097984438,0.032530993604776584
0.918,-0.0194,-0.551,0.02605474110287968,1.0051613998806836,0.09244629576114217,0.032411369519890244
0.919,-0.002,-0.551,0.025991377187968512,1.0044937571515447,0.09180227457418856,0.032291665978940315
0.92,-0.0072,-0.551,0.02596202404140344,1.0130766233849708,0.09150393366014999,0.0338305121833552
0.921,-0.0119,0.449,0.025973882581347085,1.0403360273911928,0.09162446205522705,0.03871792732518964
0.922,-0.0076,3.449,0.02577357162610573,1.0403360273911946,0.08958853199416303,0.03871792732518995
0.923,-0.0037,0.449,0.02577154882460718,1.0668991774891778,0.08956797254760905,0.043480509147377694
0.924,-0.0073,2.449,0.0257510383703152,1.0662701924340814,0.08935950741194632,0.04336773664943297
0.925,-0.004,3.449,0.0254944844148251,1.058118890569841,0.08675193205673012,0.041906266833443666
0.926,0.0047,0.449,0.025503045309156067,1.0581188905698402,0.08683894368371284,0.041906266833443506
0.927,0.0235,-0.551,0.025485700576952867,1.0587527181709708,0.08666265446552678,0.04201990756507401
0.928,-0.0084,-0.551,0.02548024213693826,1.0694114182772525,0.08660717571201146,0.043930935857542285
0.929,-0.0128,-2.551,0.025482305037630902,1.098938568120517,0.08662814272067097,0.04922494152275222
0.93,-0.0008,0.449,0.025286184312020333,1.1086062006665975,0.08463480151580706,0.050958278527501864
0.931,0.0028,-0.551,0.02475375640369875,1.1086062006665975,0.07922328529296621,0.050958278527501864
0.932,-0.007,-0.551,0.024483712022362884,1.1169896940002413,0.07647859530274238,0.0524613786044869
0.933,-0.0041,0.449,0.024295683888990425,1.116388930816265,0.07456750597366654,0.052353666085117344
0.934,0.0148,0.449,0.02444733727269558,1.1163889308162627,0.07610888788348462,0.05235366608511694
0.935,0.017,-0.551,0.0239250656720393,1.1145846983913201,0.07080059882592932,0.052030180183846315
0.936,-0.0032,-0.551,0.02355262303639441,1.1229235585000434,0.06701514856427136,0.05352527784451824
0.937,0.0102,-1.551,0.023363572222232603,1.1211298422900857,0.06509366486330809,0.05320367742498228
0.9380000000000001,-0.011800000000001655,0.449,0.023173750867717117,1.1211298422900857,0.0631643495074689,0.05320367742498228
0.9390000000000001,-0.02670000000000209,-1.551,0.02292544704254326,1.120531298813078,0.060640627221089066,0.053096362883112404
0.9400000000000001,-0.04549999999999815,0.449,0.022911304534002107,1.120531298813078,0.060496884916814736,0.053096362883112404
0.9410000000000001,-0.028899999999996245,-0.551,0.022863891926224473,1.120531298813078,0.06001499038772313,0.053096362883112404
0.9420000000000001,0.004899999999999478,-0.551,0.022862748880386235,1.1199324354469131,0.06000337264379875,0.05298899098741666
0.9430000000000001,0.00019999999999759083,0.449,0.02281124058234217,1.1193332516781518,0.05947985014221715,0.052881561645839084
0.9440000000000001,-0.021499999999993347,1.449,0.022850208277851808,1.1193332516781518,0.05987591186836122,0.052881561645839084
0.9450000000000001,0.03840000000000858,1.449,0.023006756595293228,1.1193332516781518,0.061467045139649096,0.052881561645839084
0.9460000000000001,0.11569999999999196,1.449,0.02318297399145023,1.1199324354469131,0.06325809193330142,0.05298899098741666
0.9470000000000001,0.043299999999994766,0.449,0.0231074658322681,1.120531298813078,0.06249063849597306,0.053096362883112404
0.9480000000000001,-0.0037999999999990676,-0.551,0.023103451274489636,1.120531298813079,0.06244983514174213,0.05309636288311256
0.9490000000000001,0.0046000000000008655,0.449,0.0233998879256694,1.1282317706537015,0.06546277214566604,0.05447700211735768
0.9500000000000001,0.012399999999997679,0.449,0.024024844693199765,1.1264465070971539,0.07181473761029766,0.05415691719780315
0.9510000000000001,-0.008500000000002055,-0.551,0.0252241961340843,1.1762290621884417,0.08400476311007687,0.06308257138660464
0.9520000000000001,-0.026999999999999344,-0.551,0.025128927981125097,1.1682707470404154,0.08303647210353665,0.06165570270124835
0.9530000000000001,-0.02109999999999949,-1.551,0.02900805545789959,1.1682707470404154,0.12246333336106835,0.06165570270124835
0.9540000000000001,-0.016500000000000566,0.449,0.030045211294322808,1.168844844298866,0.13300482742382574,0.061758634211900455
0.9550000000000001,-0.02159999999999948,1.449,0.03009356326284536,1.176229062188442,0.1334962694725548,0.06308257138660467
0.9560000000000001,-0.016899999999998545,-0.551,0.030051730459727644,1.1767992770181204,0.13307108722876135,0.06318480680569281
0.9570000000000001,-0.0037999999999977683,0.449,0.029976905288483534,1.177369215685564,0.13231057557688192,0.06328699271087787
0.9580000000000001,0.01630000000000121,-0.551,0.029977350060362555,1.177369215685564,0.1323150961705645,0.06328699271087787
0.9590000000000001,0.027199999999998923,-0.551,0.02968204995829806,1.2014636102424,0.12931371087886157,0.06760694441501397
0.96,0.0175,-1.551,0.02942278944011189,1.2103125787953997,0.12667862643235053,0.06919350085203939
0.961,0.0028,-0.551,0.02942907776063122,1.2179962260765431,0.12674253996500523,0.07057112356373932
0.962,-0.016,1.449,0.029211323085159457,1.2179962260765431,0.12452931458651295,0.07057112356373932
0.963,-0.0181,-0.551,0.029191634431129317,1.2174453068138347,0.12432920210363077,0.0704723477010728
0.964,-0.0067,0.449,0.028163433415130692,1.2174453068138347,0.11387872347271477,0.0704723477010728
0.965,0.0072,0.449,0.027286416246962982,1.2250842189128726,0.10496485446045602,0.07184194971626941
0.966,0.0054,2.449,0.0272520304203639,1.217445306813835,0.10461536215254279,0.07047234770107284
0.967,0.0007,0.449,0.027247513907547923,1.2174453068138347,0.10456945700370983,0.0704723477010728
0.968,-0.0036,0.449,0.027248048566726885,1.2174453068138347,0.10457489119822784,0.0704723477010728
0.969,-0.0239,1.449000000000222,0.02732451556120831,1.2168941381358376,0.10535209009160024,0.07037352712003835
0.97,0.0087,2.449,0.02736722855104503,1.2163427197034944,0.10578621841923823,0.07027466175984538
0.971,0.0217,0.4490000000004441,0.02755383269285117,1.2163427197034944,0.10768283451477036,0.07027466175984538
0.972,-0.0061,2.449,0.027535529238254357,1.2163427197034944,0.10749680098809644,0.07027466175984538
0.973,-0.0025,0.44899999999977797,0.027535714841755564,1.177369215685564,0.10749868743383323,0.06328699271087787
0.974,0.0073,-0.551,0.027626760551775327,1.1779388785916312,0.10842406217300717,0.06338912917403086
0.975,-0.0075,0.44899999999977797,0.027681098529893682,1.1539346587475035,0.10897634511217692,0.05908534514752264
0.976,0.0005,-0.551,0.02768950361351344,1.1025381588043677,0.1090617731028058,0.049870322251129195
0.977,-0.0016,-1.551000000000222,0.027725519375476418,1.1025381588043677,0.10942783182567598,0.049870322251129195
0.978,-0.0037,-2.551,0.027940083218465823,1.1025381588043677,0.11160862606847313,0.049870322251129195
0.979,0.002,-1.5509999999995558,0.02841998010398713,1.1019295167868297,0.11648622497097241,0.04976119711355125
0.98,0.0001,0.449,0.028547903522776193,1.0724847155111574,0.11778641912916475,0.04448195595442028
0.981,-0.0181,1.448999999999778,0.028587080141117025,1.0724847155111572,0.11818460431516632,0.04448195595442024
0.982,-0.0062,0.449,0.028623582232712937,1.0718590081495696,0.1185556060184046,0.04436977112335488
0.983,0.0275,-0.550999999999556,0.02882360527762976,1.071232935312255,0.120588609802751,0.04425752076511944
0.984,0.0035,1.449,0.02886738304703164,1.0718590081495694,0.12103356038782619,0.044369771123354836
0.985,0.0079,1.449,0.028895489082328835,1.0724847155111572,0.12131922585275266,0.04448195595442024
0.986,-0.02,1.449,0.028849229783012086,1.0718590081495694,0.12084905337532002,0.044369771123354836
0.987,-0.0019,0.449,0.028875013060585732,1.0712329353122547,0.12111111068427596,0.0442575207651194
0.988,0.0078,0.449,0.02927374414224503,1.0612248913609406,0.12516375271003338,0.04246315044298643
0.989,0.0049,1.449,0.02933796540631285,1.0718590081495694,0.12581648786332372,0.044369771123354836
0.99,-0.0085,1.449,0.029373626959786396,1.0699796906438788,0.12617894646501907,0.044032823006971575
0.991,0.0034,0.449,0.029471982682069492,1.0699796906438788,0.12717861905622876,0.044032823006971575
0.992,-0.0171,0.449,0.030162465121478514,1.0693525175248344,0.1341965774766048,0.04392037537613309
0.993,-0.0147,0.449,0.030844371489371185,1.0687249763540816,0.1411273700113959,0.04380786175626958
0.994,-0.0268,0.449,0.030847527931245237,1.0693525175248346,0.14115945160618257,0.04392037537613312
0.995,-0.0291,-0.551,0.030864939813369394,1.0612248913609406,0.14133642332594476,0.04246315044298643
0.996,0.0009,-0.551,0.03068309463345554,1.053034535687875,0.13948817659475563,0.04099467855987359
0.997,0.0053,0.44900000000022205,0.02872768250688559,1.044137665734288,0.11961366536067941,0.03939953374613637
0.998,-0.0386,1.449,0.028407919179173437,1.044779975238192,0.11636363956687985,0.039514695221948844
0.999,-0.0562,1.449,0.028520629520457984,1.0743596511252904,0.11750921032079846,0.04481811842915328
1.0,-0.0827,3.449,0.02858571684291621,1.083008277120903,0.11817074795975185,0.046368754886112216
1.0010000000000001,-0.010699999999965406,0.449,0.028666502321591274,1.0830082771209029,0.11899183926918042,0.04636875488611218
1.002,0.1451,1.449,0.028724376508180497,1.08238865323816,0.11958006369302511,0.046257660779063146
1.0030000000000001,0.07829999999998645,-0.551,0.02870024058371212,1.0823886532381597,0.11933474983029836,0.046257660779063105
1.004,0.0173,1.449,0.02862495143080571,1.0718590081495694,0.11856952233942293,0.044369771123354836
1.0050000000000001,-0.0013000000000037081,-0.551,0.02857727537627201,1.0718590081495694,0.11808495017760016,0.044369771123354836
1.006,-0.018,-0.551,0.028535824024799324,1.0637505330944457,0.11766364495026856,0.042915979846313235
1.0070000000000001,-0.0029000000000030863,-0.551,0.028594986356980805,1.0631196851742744,0.11826496188985282,0.042802873350054685
1.008,-0.0168,2.449,0.02861021375101371,1.0637505330944457,0.11841973080514205,0.042915979846313235
1.0090000000000001,-0.004599999999997513,-1.551,0.028598699649818645,1.0631196851742744,0.11830270323308081,0.042802873350054685
1.01,0.0066,1.449,0.028707570405820636,1.0712329353122547,0.11940924902658545,0.0442575207651194
1.0110000000000001,-0.0035999999999979126,0.449,0.02879189703333065,1.0605925411723254,0.12026633203379754,0.04234977460079728
1.012,0.0058,0.449,0.028805300171691903,1.059959813736682,0.12040255949209804,0.04223633112092838
1.0130000000000001,0.031199999999998288,0.449,0.02879002764685176,1.051759606585098,0.12024733187415307,0.040766092938549846
1.014,0.0235,1.449,0.02930626778248302,1.0618568649764946,0.12549431803920358,0.04257645876833329
1.0150000000000001,0.002299999999998601,0.449,0.029412679413865193,1.0706064963580408,0.12657586966435952,0.044145204764756335
1.016,-0.004,0.449,0.029406008943623604,1.0706064963580408,0.1265080720200923,0.044145204764756335
1.0170000000000001,0.001800000000005862,0.449,0.02940145500708363,1.0543079230749985,0.12646178650222462,0.04122298776266571
1.018,0.0282,0.449,0.029428863458244203,1.0842464625811445,0.12674036182816115,0.04659075263651799
1.0190000000000001,-0.015400000000003864,0.449,0.029438675203298886,1.0848650253710803,0.12684008691151596,0.04670165649725601
1.02,-0.0328,-0.551,0.02934483869802707,1.0762313203615,0.1258863469541687,0.04515369526581002
1.0210000000000001,-0.006399999999996869,0.449,0.029332131609821923,1.0581188905698293,0.12575719404371363,0.041906266833441556
1.022,0.0077,-1.551,0.029271867597034974,1.0581188905698276,0.12514467979013494,0.04190626683344124
1.0230000000000001,-0.022699999999999134,-0.551,0.029276181959040526,1.0306789266731236,0.1251885303088988,0.03698647860147804
1.024,-0.0188,-0.551,0.029275100345939324,1.0306789266731242,0.12517753695796338,0.036986478601478155
1.025,-0.0079,0.449,0.029290698294570466,1.030027824009815,0.12533607213378942,0.036869740575407615
1.026,0.0149,0.449,0.029286438429923293,1.0306789266731253,0.12529277551788146,0.036986478601478356
1.027,0.0418,-0.551,0.029309033745810304,1.0409806825977774,0.12552243086947307,0.03883350936862701
1.028,0.0527,0.449,0.029324690071257608,1.040980682597774,0.12568155937837344,0.038833509368626416
1.029,0.0299,0.449,0.029343780214509074,1.0209304823973366,0.12587558868879656,0.03523865263463242
1.03,0.015,0.449,0.029345338575413448,1.0209304823973435,0.1258914276318408,0.03523865263463365
1.031,-0.0147,0.449,0.029362770336405657,1.0215873832138598,0.12606860139739226,0.03535643022788522
1.032,-0.0346,0.449,0.02935166010900642,1.013076623384967,0.12595567873712082,0.033830512183354526
1.033,-0.0164,-0.551,0.029345101131071114,1.0242107733061712,0.12588901428368515,0.03582678520913039
1.034,-0.0195,-0.551,0.02921709075056044,1.0345769375982143,0.12458793625979026,0.03768536393345288
1.035,-0.0046,0.449,0.029302169748919124,1.0365204459011446,0.1254526662497948,0.038033820998246155
1.036,-0.0126,0.449,0.02939791448265819,1.0365204459011446,0.1264258011508443,0.038033820998246155
1.037,-0.0492,-0.551,0.02933031653309053,1.0550037455466394,0.1257387458800766,0.04134774372883247
1.038,-0.0227,-1.551,0.029456624026610055,1.0550037455466394,0.12702251601977868,0.04134774372883247
1.039,0.0304,1.449,0.0294472243968754,1.0556394435464733,0.1269269796138113,0.0414617198095022
1.04,0.0515,0.449,0.029495830098273768,1.0474054124733394,0.12742100056487113,0.039985417241185435
1.041,0.0704,0.449,0.029516357932979204,1.0391061357656324,0.12762964235241087,0.03849741659970909
1.042,0.0647,0.449,0.02956401005051271,1.0397515535162496,0.12811397122220697,0.03861313536180878
1.043,-0.0044,-0.551,0.029516593964091144,1.0397515535162496,0.12763204133670789,0.03861313536180878
1.044,0.0239,-0.551,0.029732601534108526,1.0403965708772418,0.12982750940127724,0.038728782336927524
1.045,-0.0188,-0.551,0.030076431059283232,1.04104118859284,0.133322140363129,0.038844357658500576
1.046,-0.042,0.449,0.03019573482173575,1.04104118859284,0.13453472564625774,0.038844357658500576
1.047,-0.0068,-0.551,0.030258397635357,1.0493251607768908,0.1351716209464106,0.04032961430892566
1.048,-0.0256,-2.551,0.03025956948001486,1.04932516077689,0.13518353139715436,0.040329614308925545
1.049,-0.0198,1.449,0.030026298244499212,1.0410411885928372,0.13281259806404927,0.0388443576585001
1.05,-0.0248,0.449,0.029550321595603477,1.042972651275092,0.12797484384993893,0.039190655030114895
1.051,-0.0201,0.449,0.028392655829701054,0.986488153969661,0.1162085052059763,0.029063390789617977
1.052,-0.0243,-0.551,0.028372454707826178,0.986488153969661,0.11600318407791955,0.029063390789617977
1.053,0.0038,0.449,0.024446498205059536,0.976985470504111,0.0761003597277408,0.027359627969015286
1.054,0.0003,0.449,0.023172609749796746,0.9762985598281244,0.06315275135860828,0.02723646982373308
1.055,0.0152,-0.551,0.023108209593449155,0.9783578450053358,0.062498197971414336,0.027605684849643448
1.056,0.025,0.449,0.023110214505322142,1.0098849123493348,0.06251857559053696,0.03325826134322798
1.057,0.0101,-0.551,0.023062079095486104,1.0098849123493334,0.06202933461133668,0.03325826134322774
1.058,-0.0141,0.449,0.023120024647412443,1.0092203944318363,0.06261828438160576,0.03313911805853764
1.059,-0.0369,1.449,0.023381559166212366,0.9810968349241345,0.06527648142424432,0.028096766048609233
1.06,-0.0281,0.449,0.023744548649885535,0.9790433108586906,0.06896585128806358,0.027728583948616103
1.061,-0.0092,0.449,0.023844834858623182,0.96946765608287,0.06998514504977074,0.02601173789674929
1.062,0.013,-0.551,0.023931063334219755,0.9701594033170442,0.07086155815146686,0.026135763202139436
1.063,0.0577,-1.551,0.023960370113954813,0.9701594033170422,0.07115942780010236,0.026135763202139076
1.064,0.0259,1.449,0.023823800089716095,0.9817803884534555,0.06977135086016252,0.028219322281632358
1.065,-0.0035,0.449,0.02439707424628092,0.9722316919363858,0.0755980221332097,0.02650730965172834
1.066,0.0015,-1.551,0.024956266457901832,0.9722316919363858,0.08128156666116687,0.02650730965172834
1.067,-0.0127,-2.551,0.025248042069420586,0.9817803884534491,0.08424712956740237,0.028219322281631203
1.068,-0.0084,-0.551,0.025260349109968137,0.9824634663973387,0.08437221645435422,0.028341793245605963
1.069,-0.0045,0.449,0.025105534430342104,0.9939406049220443,0.08279870361395636,0.030399561661884397
1.07,-0.0009,1.449,0.025068164881514417,0.9939406049220443,0.08241888520744427,0.030399561661884397
1.071,-0.0108,0.449,0.024874118094812915,1.0046191605610897,0.08044662320199156,0.032314149908614934
1.072,-0.0079,0.449,0.024869762506454965,1.0158460124811275,0.08040235366485672,0.034327043736249674
1.073,-0.0,0.449,0.024858554674332924,1.0158460124811208,0.0802884389650385,0.03432704373624848
1.074,-0.012,0.449,0.024799243129437248,1.0151853965754847,0.07968560545013784,0.03420860005422939
1.075,-0.0056,-0.551,0.024733468796130503,1.0236786244289655,0.07901708513748547,0.03573137474162452
1.076,-0.0115,-1.551,0.024722252328476475,1.0236786244289655,0.07890308266743448,0.03573137474162452
1.077,-0.0097,-1.551,0.024677479750645735,1.0346986949929518,0.07844802100090156,0.03770719415888753
1.078,-0.0112,-1.551,0.024439464971133962,1.0449608227458993,0.07602887500860342,0.039547119879778096
1.079,-0.0036,-1.551,0.024461945258129808,1.0456026265878717,0.076257361224053,0.03966219069404196
1.08,-0.0101,-0.551,0.025149790565167883,1.0462440367242842,0.08324851623239124,0.03977719091972969
1.081,-0.0162,-0.551,0.025129718043366712,1.046885053878789,0.08304450217591026,0.039892120686586936
1.082,0.0004,-1.551,0.025777551587606765,1.046885053878789,0.08962898371709588,0.039892120686586936
1.083,0.0024,-1.551,0.025733696287552107,1.0576633582298922,0.08918324512226627,0.041824593160191194
1.084,0.0226,-1.551,0.025783918368541464,1.0570288774146448,0.08969369470947045,0.04171083531196619
1.085,0.025,1.449,0.025709951515386263,1.0563940155239402,0.08894190687200777,0.041597009139651676
1.086,-0.0019,2.449,0.02594591613514695,1.0570288774146448,0.09134021535263716,0.04171083531196619
1.087,-0.0273,0.449,0.02596591148126882,1.0570288774146448,0.09154344500726014,0.04171083531196619
1.088,0.0023,-0.551,0.025715881880439582,1.0563940155239402,0.08900218219978795,0.041597009139651676
1.089,-0.0176,-0.551,0.025773593193493188,1.0456026265878717,0.08958875120180654,0.03966219069404196
1.09,-0.0139,-0.551,0.02580724091971324,1.0475256787728233,0.08993074156980872,0.04000698012396218
1.091,-0.0171,-0.551,0.02529681048869045,1.0475256787728233,0.08474280435814187,0.04000698012396218
1.092,0.0036,0.449,0.024326023213912674,1.0481659121256204,0.07487587025442778,0.040121769360808794
1.093,0.0387,-0.551,0.023881611715068033,1.0481659121256204,0.07035893942111349,0.040121769360808794
1.094,0.0527,-0.551,0.024093443700289683,1.058297458655081,0.07251196747735723,0.04193828280721371
1.095,0.0396,-0.551,0.02400673544186256,1.0664473956499045,0.071630677935996,0.043399507911930056
1.096,0.0195,1.448999999999778,0.02396663976823908,1.0923757836603007,0.07122315161198495,0.048048281455784665
1.097,-0.0059,0.449,0.023613849062602714,1.1008828825419108,0.067637440575843,0.049573543118789976
1.098,-0.0092,-0.5510000000002221,0.023867740989731365,1.1087198283454878,0.07021795947996319,0.050978651153338175
1.099,-0.018,-1.551,0.0237877500481744,1.0899164766681797,0.06940494372487174,0.0476073453946379
1.1,0.0116,-0.550999999999778,0.023705205032139437,1.0917614762729937,0.06856596874552477,0.04793814055814141
1.101,-0.0004,0.449,0.023632036674256757,1.0923757836603007,0.0678222966924783,0.048048281455784665
1.102,0.0177,0.449,0.02354740004661024,1.1027095338459691,0.06696206289106188,0.0499010485638932
1.103,0.0079,0.449,0.02354432095803605,1.1027095338459691,0.06693076750344158,0.0499010485638932
1.104,-0.0008,-1.551000000000222,0.02362538076310412,1.1111375182132612,0.06775464702457522,0.051412125563318624
1.105,-0.0033,-2.551,0.023740144267357002,1.1117411191616484,0.06892108581440559,0.051520346873443375
1.106,-0.0101,-0.550999999999778,0.023700685738264997,1.1111375182132612,0.06852003533043687,0.051412125563318624
1.107,-0.0166,0.449,0.02358463090620445,1.1111375182132612,0.0673404716813139,0.051412125563318624
1.108,-0.0387,-0.550999999999556,0.023733399263417183,1.1206999223854683,0.06885253062097381,0.05312659587723005
1.109,-0.0416,1.449,0.02371282791662205,1.1206999223854683,0.0686434465831771,0.05312659587723005
1.11,-0.0228,0.44899999999977797,0.023423710061949567,1.1129473389797622,0.06570489671300744,0.05173661341405021
1.111,-0.0206,-0.551,0.023255936058402385,1.1212983758520585,0.06399966727672822,0.05323389428087925
1.112,0.0132,0.4489999999995559,0.02326282641998348,1.1295876752314513,0.06406969986310197,0.05472010605912635
1.113,0.0179,-1.551,0.02322986876252954,1.1289936157397549,0.06373472324900778,0.054613595463582694
1.114,0.0576,0.449,0.02255368042437317,1.1195020557048816,0.056862047898152863,0.05291182699412232
1.115,0.0526,0.449,0.022444799969608895,1.1195020557048816,0.055755403527904535,0.05291182699412232
1.116,0.0385,1.448999999999556,0.022493573066523487,1.1295876752314513,0.05625112586151311,0.05472010605912635
1.117,0.0081,-0.551,0.022504657676167085,1.1278045580125071,0.05636378814681532,0.05440040596247183
1.118,-0.0038,-1.5509999999995558,0.022504470356080122,1.0990531953062048,0.05636188425396219,0.04924549335297083
1.119,0.0071,0.449,0.02251132037966328,1.0990531953062048,0.05643150685106452,0.04924549335297083
1.12,0.0104,-1.551,0.022520591228008174,1.0990531953062048,0.05652573434258734,0.04924549335297083
1.121,-0.0044,-1.551,0.02256565496209044,1.0990531953062048,0.05698375527694578,0.04924549335297083
1.122,-0.0018,-1.5509999999995558,0.02262812763603803,1.0990531953062048,0.05761871802639549,0.04924549335297083
1.123,0.0149,0.449,0.02266060733960788,1.0996634293121001,0.05794883678995802,0.04935490392261477
1.124,-0.0053,1.448999999999778,0.022662843219956496,1.1081145816713986,0.05797156193751276,0.05087013477642792
1.125,0.0027,0.449,0.02267129155369733,1.133681817268602,0.058057429515789453,0.05545415628930101
1.1260000000000001,0.0005999999999945376,-1.551,0.02266551709826679,1.1330899042669875,0.05799873882968521,0.055348030543995674
1.127,-0.024,-1.551,0.02264827789891614,1.1313123070977187,0.057823522231350025,0.05502932015255852
1.1280000000000001,-0.05370000000000264,-0.551,0.02263431273978183,1.1295319124441572,0.05768158247945364,0.054710108192301744
1.129,-0.0656,-0.551,0.022662466178468586,1.1277487070570054,0.05796772974521665,0.05439039228772154
1.1300000000000001,-0.011099999999984369,-0.551,0.022659855327344863,1.1277487070570054,0.05794119345177554,0.05439039228772154
1.131,0.0593,0.449,0.022780617973045505,1.1371714373490112,0.05916860660219119,0.05607982007917507
1.1320000000000001,0.031199999999998177,-1.551,0.02299410493958171,1.1465167288688314,0.061338455636622276,0.057755363655564385
1.133,0.023,0.449,0.02301321087049733,1.1644064330077168,0.06153264541046093,0.06096285897979708
1.1340000000000001,-0.00010000000000779377,0.449,0.02301431893039037,1.164406433007717,0.061543907562563324,0.06096285897979712
1.135,-0.0352,-0.551,0.022904742752468957,1.155205873243417,0.06043019196803728,0.059313264766543985
1.1360000000000001,-0.016200000000003864,0.449,0.02321208597902806,1.1476864000603233,0.0635539817440989,0.057965077290204385
1.137,-0.0336,0.449,0.0235363816125803,1.122438210411051,0.06685007320462474,0.053438258421839004
1.1380000000000001,-0.02850000000000102,0.449,0.02341930709256684,1.1230357375633389,0.06566014560234833,0.053545390743994024
1.139,-0.0331,-1.551,0.023513207181124866,1.1230357375633389,0.06661453181053904,0.053545390743994024
1.1400000000000001,0.006500000000001154,0.449,0.02403903206022264,1.122438210411051,0.07195893584935263,0.053438258421839004
1.141,0.0117,-0.551,0.024115619737875744,1.121840364997219,0.07273736134811357,0.05333106903767741
1.1420000000000001,0.04519999999999711,0.449,0.02409089781957783,1.1212422008127523,0.07248609153329366,0.05322382250023299
1.143,0.0322,-1.551,0.024172919926507344,1.1212422008127525,0.07331975174408142,0.053223822500233026
1.1440000000000001,0.012399999999994426,1.449,0.0248201042437367,1.120643717347202,0.07989763464074487,0.05311651871798592
1.145,-0.0127,2.449,0.02437020587516673,1.120044914088755,0.07532493609866259,0.053009157599171824
1.1460000000000001,-0.009299999999990073,1.449,0.024113243676054334,1.1277487070570054,0.07271321141740544,0.05439039228772154
1.147,0.0354,1.449,0.024220704681694027,1.1295319124441598,0.0738054287227965,0.05471010819230222
1.1480000000000001,0.016599999999996135,-1.551,0.02499175924537636,1.1301256889759788,0.08164230995093492,0.054816568055174326
1.149,-0.0008,-1.551,0.02518512037984296,1.137761226961127,0.0836076030914307,0.05618556511601057
1.1500000000000001,-0.016399999999996872,-0.551,0.02636926416619086,1.1277487070570071,0.09564306030515632,0.054390392287721856
