time_sec,bts_raw,diy_raw,bts_rms,diy_rms,bts_norm_rms,diy_norm_rms
0.0,0.007800000000000205,0.778,0.005715964327114208,0.704192362505559,0.029183634136472788,0.0
0.0010000000000000009,0.0114999999999998,0.778,0.005736827095307619,0.7046436528260978,0.02939512293897498,0.00010941240439267839
0.0020000000000000018,0.007900000000000301,-0.222,0.0056595158975340865,0.7086010726236109,0.0286114085015832,0.0010688631072578497
0.0030000000000000027,0.013299999999999172,-0.222,0.005680585984478585,0.7090495569283415,0.028824998923295132,0.0011775952113596475
0.0040000000000000036,-0.001600000000000361,-1.222,0.005582614496949941,0.7094977577393905,0.027831848235682414,0.0012862585842613407
0.0050000000000000044,-0.008099999999999677,-0.222,0.005542638158037179,0.7099456755936812,0.027426602490405343,0.0013948533561364614
0.006000000000000005,-0.002300000000000505,0.778,0.005537590609328993,0.7138737037805737,0.02737543478236347,0.0023471782540804447
0.007000000000000006,-0.011399999999999372,-0.222,0.005525781210551371,0.7177802362872776,0.027255721253334336,0.0032942916641053328
0.008000000000000007,-9.999999999991674e-05,-0.222,0.005517011478631243,0.7182229888144528,0.027166821252871363,0.0034016341360009104
0.009000000000000008,0.0013999999999996335,-0.22199999999999653,0.005466289991687718,0.7391847353098357,0.02665265043740862,0.008483673302256363
0.009999999999999953,-0.0052,1.778,0.005425471961892173,0.7727327156109385,0.026238872353794344,0.01661716303206123
0.010999999999999954,-0.0088,-0.222,0.005473208298307732,0.7763431280243817,0.026722782280357044,0.017492484050540984
0.011999999999999955,-0.0033,0.778,0.005504892041739031,0.8235383854335316,0.027043964824061295,0.028934667394740717
0.012999999999999956,0.0058,-1.2219999999999949,0.005519570971166036,0.8239243086227118,0.027192767187091526,0.029028231963084863
0.013999999999999957,0.0022,1.778,0.005513430035497744,0.8333846961626297,0.027130515662332686,0.031321841420503274
0.014999999999999958,0.0054,1.778,0.005525459848480713,0.8337660618273114,0.027252463561025096,0.03141430104666106
0.01599999999999996,0.0029,-2.222,0.005488136917854189,0.8371132829613026,0.02687411578709121,0.032225813050434614
0.01699999999999996,0.0091,-1.222,0.00546576888027562,0.8464262720219139,0.026647367858055142,0.03448368670477729
0.01799999999999996,-0.0017,-0.222,0.005539453047952089,0.8497236236707444,0.027394314583475236,0.03528310817607332
0.01899999999999996,0.0088,-0.222,0.0055265483994114736,0.8530082293151495,0.02726349835423542,0.036079439461457745
0.019999999999999962,-0.0002,0.778,0.00550603713840416,0.8621495373414241,0.027055572829298772,0.03829569016511763
0.020999999999999963,0.0009,0.778,0.00559618473442069,0.8625181846169837,0.02796941163310661,0.03838506630051455
0.021999999999999964,-0.0002,1.778,0.00564908486451727,0.8657542500330001,0.0285056676592781,0.03916962932308438
0.022999999999999965,0.0024,0.778,0.005618921128077051,0.874762371680942,0.02819989363928261,0.04135358985515729
0.023999999999999966,0.0017,-1.222,0.005618984317608218,0.8920532597117578,0.028200534200408207,0.04554565325079555
0.024999999999999967,-0.0073,-0.222,0.005657982625017718,0.8951825628426856,0.02859586550338708,0.046304332451403384
0.025999999999999968,-0.0011,0.7780000000000035,0.00564161356685761,0.8983009648624589,0.028429930068727776,0.04706036874847953
0.02699999999999997,-0.0044,1.778,0.0056383951704771194,0.8986547821770995,0.028397304733960252,0.04714614945626066
0.02799999999999997,-0.0051,1.778,0.005521722649162718,0.9017611769116011,0.0272145790482343,0.04789927466508159
0.02899999999999997,0.0011,-0.222,0.005533751866187721,0.9185439736008845,0.027336520905617365,0.05196815461804862
0.02999999999999997,-0.0028,0.778,0.005537829759643216,0.9188899964062334,0.02737785908258596,0.05205204559772381
0.030999999999999972,0.0041,-0.222,0.00553617449985645,0.9192358889601694,0.02736107948234846,0.052135904998790714
0.03199999999999997,0.0048,-0.222,0.005596450372077462,0.9195816514096714,0.027972104439229428,0.05221973285688339
0.032999999999999974,0.007,-0.222,0.005637332643601269,0.9280674539428713,0.02838653375023859,0.05427706051516464
0.033999999999999975,0.0049,-1.222,0.005641148009785397,0.9284099273084864,0.02842521065149676,0.054360090956251154
0.034999999999999976,-0.0016,-0.222,0.005626460577197182,0.9314170901267459,0.028276322090730686,0.05508915803208227
0.035999999999999976,-0.0023,-0.22199999999999306,0.005626541499414225,0.9344145752477326,0.028277142410576047,0.055815878813123956
0.03699999999999998,-0.0106,0.778,0.00562411666849286,0.9347547231719913,0.02825256155998731,0.0558983454660712
0.03799999999999998,0.0039,-0.222,0.0056969205118042356,0.9431040122653549,0.028990584314050334,0.05792257632833305
0.03899999999999998,-0.0019,-1.222,0.005720549562849639,0.9434410273079904,0.02923011531317411,0.05800428343449752
0.03999999999999998,-0.0037,-0.222,0.005714260078508016,0.9437779220054375,0.029166357929713064,0.05808596136375343
0.04099999999999998,0.0076,0.778,0.005723247388183228,0.9441146964865271,0.029257463546345817,0.058167610147334965
0.04199999999999998,-0.0,1.778,0.005740173901476816,0.9444513508798601,0.029429049981751304,0.058249229816420604
0.04299999999999998,-0.0065,0.7779999999999861,0.005743355993743139,0.9447878853138084,0.02946130729663,0.058330820402133284
0.043999999999999984,-0.0029,-1.222,0.005747668883900639,0.9477430827449832,0.029505027668072427,0.05904728880769079
0.044999999999999984,0.0094,1.778,0.005735114271863914,0.9559789413735164,0.02937775980788668,0.061044019191161814
0.045999999999999985,-0.0054,0.778,0.005716016398663099,0.9718258833778483,0.02918416199305526,0.06488600725971956
0.046999999999999986,0.0044,0.778,0.005746400629475857,0.9721529414963884,0.029492171195380085,0.06496530037436671
0.04799999999999999,0.0026,-0.222,0.005749852227523047,0.9750252018872673,0.029527160528097188,0.06566166123367514
0.04899999999999999,-0.0122,-0.222,0.005707444397816644,0.9778890258973828,0.029097266420173563,0.06635597674731213
0.04999999999999999,0.0059,-0.222,0.0057431263975569755,0.9933865099869429,0.029458979847941474,0.07011324101624661
0.05099999999999999,0.0081,0.7779999999999931,0.005744492205612201,0.9908883638562712,0.029472825235445647,0.06950758172722223
0.05199999999999999,0.0059,-0.222,0.005670507244329896,0.9883839036667269,0.028722829323124328,0.06890039163567165
0.05299999999999999,0.0001,-0.222,0.0056324512014905145,1.0134045213195546,0.02833704988803409,0.07496647772747607
0.05399999999999999,0.0056,-0.222,0.00556743389672843,1.0134045213195546,0.027677960365561437,0.07496647772747607
0.05499999999999999,0.0008,0.778,0.005585738325767759,1.0134045213195544,0.02786351492582523,0.07496647772747603
0.055999999999999994,-0.0036,0.778,0.005526630344964792,1.0134045213195544,0.027264329047783902,0.07496647772747603
0.056999999999999995,-0.0025,-0.222,0.005540086185926183,1.0183686496717947,0.027400732791774268,0.07616999837485916
0.057999999999999996,-0.0014,1.778,0.005483007552804843,1.0329514624758103,0.026822118695342605,0.07970550653685807
0.059,0.0018,-2.221999999999979,0.005502217396579669,1.0329514624758103,0.027016851571561543,0.07970550653685807
0.06,-0.0113,0.778,0.005527928583076654,1.0402075346932627,0.027277489469310665,0.08146469407451831
0.061,-0.0059,2.778,0.005515097826663844,1.0281413845548453,0.027147422294917217,0.0785393344150614
0.062,-0.004399999999999762,-0.222,0.005464562023699396,1.0281413845548455,0.026635133783950913,0.07853933441506145
0.063,-0.0001000000000002054,-1.222,0.00546705861067076,1.0281413845548455,0.02666044203566619,0.07853933441506145
0.064,-0.0038000000000002,-0.222,0.0054440159915687715,1.0353481213723217,0.026426855779268413,0.08028656090572511
0.065,-0.0073999999999998225,0.778,0.005441643220782794,1.0353481213723217,0.02640280266956186,0.08028656090572511
0.066,-0.004200000000000266,-1.222,0.005427425996537422,1.0232246692837872,0.026258680676608474,0.07734730876098019
0.067,-0.008999999999999233,0.778,0.005438391460546415,1.0059551344017268,0.02636983912071539,0.07316042229744163
0.068,0.004799999999999456,0.778,0.005418166960498488,1.0059551344017266,0.026164820531777978,0.07316042229744157
0.069,-0.005000000000000305,-1.222,0.0055107978768806085,1.0084159563530695,0.027103833101860694,0.07375703258183082
0.07,-0.010499999999998812,-0.222,0.005699745930981857,1.0158472977909596,0.029019225983885427,0.07555871300256739
0.07100000000000001,0.01089999999999951,0.7779999999999723,0.005728189955513564,1.0158472977909596,0.029307567043460325,0.07555871300256739
0.07200000000000001,0.002099999999999861,-1.2219999999999585,0.005740787910149086,1.0280577517958196,0.029435274273639154,0.07851905819632914
0.07299999999999995,-0.0004,1.778,0.005743252875136374,1.0158472977909598,0.029460261968873955,0.07555871300256745
0.07399999999999995,-0.0074,0.778,0.005746120426730376,1.0158472977909596,0.029489330740913533,0.07555871300256739
0.07499999999999996,-0.0009,0.778,0.005904632571237563,1.0158472977909598,0.031096190545571008,0.07555871300256745
0.07599999999999996,0.0009,-0.222,0.005972894901450973,1.0304657925548795,0.031788175345431,0.07910287202377798
0.07699999999999996,-0.0046,0.778,0.005974569447455045,1.0304657925548795,0.0318051504527539,0.07910287202377798
0.07799999999999996,0.0066,1.778,0.0059697538078529256,1.018284214268038,0.03175633363979348,0.07614952756012981
0.07899999999999996,-0.004,-0.222,0.005970529153668445,1.0059551344017261,0.03176419342889381,0.07316042229744146
0.07999999999999996,-0.0029,-0.222,0.005970195860334705,1.0305492298927956,0.03176081478770003,0.07912310086393266
0.08099999999999996,0.0083,-0.222,0.005969734373720596,1.028141384554845,0.03175613663327278,0.07853933441506135
0.08199999999999996,0.0068,-1.222,0.006063892873321887,1.0425875137516822,0.03271063452834927,0.082041704525075
0.08299999999999996,-0.0023,-0.222,0.006130441621578715,1.0449620722443447,0.03338524850796973,0.08261740079470278
0.08399999999999996,-0.0034,0.778,0.006137702477323232,1.0449620722443447,0.03345885281935896,0.08261740079470278
0.08499999999999996,-0.0045,0.778,0.006174263297999622,1.040124872131109,0.03382947497801329,0.08144465307371045
0.08599999999999997,-0.0013,-0.22200000000001388,0.0061776291826246875,1.040124872131109,0.03386359542176823,0.08144465307371045
0.08699999999999997,0.0096,-1.2219999999999862,0.006274193399785839,1.0544068317411057,0.03484248041261153,0.08490722133465517
0.08799999999999997,0.0052,-0.222,0.006211104342630927,1.0591788090902101,0.034202937806137174,0.08606415622049467
0.08899999999999997,0.0041,-0.222,0.006240612169525492,1.0662564142960527,0.03450206277922412,0.08778007559139765
0.08999999999999997,0.0078,-0.222,0.006244007632299733,1.0591788090902101,0.034536483060818954,0.08606415622049467
0.09099999999999997,0.0045,-0.222,0.006415784821789448,1.0662564142960527,0.036277812483912715,0.08778007559139765
0.09199999999999997,-0.002,-0.222,0.006583520595380088,1.0639293831966457,0.037978173508135094,0.0872159020292908
0.09299999999999997,0.0064,0.778,0.006756824798839119,1.0569175495914294,0.039734982485657135,0.08551592855538087
0.09399999999999997,-0.0037,-1.222,0.006754002591669482,1.068658839495856,0.03970637337639674,0.08836252796301129
0.09499999999999997,-0.0048,1.778,0.006866132288556561,1.0615972512355665,0.040843047814790354,0.08665049179643206
0.09599999999999997,-0.0059,-0.222,0.006969217012070114,1.0474133408709045,0.041888032091566996,0.0832116949376042
0.09699999999999998,0.0043,0.778,0.007162658644854382,1.0450443521861017,0.043848977009918404,0.08263734903168288
0.09799999999999998,0.0007,0.778,0.0071750962960164056,1.0426699810763658,0.043975059221339756,0.08206169819182746
0.09899999999999998,0.0068,1.778,0.007183253778860208,1.0426699810763658,0.04405775276718535,0.08206169819182746
0.09999999999999998,0.0079,-0.222,0.007104997062759942,1.045044352186102,0.04326445347811853,0.08263734903168292
0.10099999999999998,-0.0069,-0.222,0.0070830623648240575,1.045044352186102,0.043042098373719084,0.08263734903168292
0.10199999999999998,0.0044,-2.2219999999999724,0.0070407278877003925,1.045044352186102,0.04261294785119792,0.08263734903168292
0.10299999999999998,0.0102,-0.22200000000001388,0.007126577782940456,1.0522170353295888,0.04348322026044577,0.08437631943046955
0.10399999999999998,0.0048,-1.2219999999999862,0.007148500150912654,1.0593411541328452,0.043705450374276825,0.08610351572068234
0.10499999999999998,0.0001,-0.222,0.007134653250374481,1.07336745713482,0.043565082404598186,0.0895041016990264
0.10599999999999998,0.0045,-1.222,0.0071352110362044325,1.0710558759643631,0.04357073675766081,0.0889436738717541
0.10699999999999998,0.0082,1.778,0.007236722127389539,1.0687392950759829,0.04459976890317488,0.08838203389537425
0.10799999999999998,0.0046,-0.222,0.007272154098575764,1.07575400173145,0.04495894775647937,0.09008270392163989
0.10899999999999999,-0.0055,-1.222,0.007293933809981688,1.0617592264937787,0.0451797317407225,0.08668976164479036
0.10999999999999999,0.0036,0.778,0.007292403675620627,1.040290190686959,0.045164220554446154,0.0814847334828464
0.11099999999999999,0.0047,-0.222,0.00721132333636668,1.0522170353295892,0.0443422978020904,0.08437631943046967
0.11199999999999999,0.0037,0.778,0.007383012756524682,1.023392717897029,0.046082737495178605,0.07738805105478275
0.11299999999999999,-0.0029,1.778,0.0074574311074748776,1.0258117096440986,0.04683712673924906,0.07797451987808257
0.11399999999999999,0.0015,1.778,0.007457449186471522,1.0330346990482895,0.04683731000856957,0.07972568670273773
0.11499999999999999,0.0037,0.778,0.007485454076669745,1.035431165281435,0.04712119950191581,0.0803066943616242
0.11599999999999999,-0.0045,-1.222,0.0074770871114454825,1.0330346990482895,0.04703638240384655,0.07972568670273773
0.11699999999999999,0.0078,-1.222,0.007534682392160152,1.0281413845548435,0.04762023382927578,0.07853933441506096
0.118,-0.0102,0.7779999999999723,0.007485211500033814,1.025727886934966,0.04711874046859039,0.07795419760718174
0.119,-0.017,-1.2219999999999722,0.007469845177852238,1.0233086970400427,0.04696296990895436,0.07736768074422294
0.12,-0.0057,0.778,0.007550722174560969,1.018368649671793,0.04778283134945606,0.07616999837485873
0.121,-0.0039,1.778,0.007477836186469462,1.0207995470378262,0.04704397588225445,0.07675935363807829
0.122,0.0017,0.778,0.007507871988128231,1.018368649671793,0.047348453009456226,0.07616999837485873
0.123,-0.003,0.778,0.007514038854204715,1.0109558423752407,0.04741096739439382,0.07437281143619977
0.124,0.0137,-1.222,0.007560680493221128,1.0109558423752403,0.047883780220135515,0.07437281143619966
0.125,0.0116,1.778,0.007524650820103595,1.0109558423752396,0.04751854237865968,0.07437281143619949
0.126,0.0018,0.778,0.007536354810497756,1.0330346990482884,0.047637187368145775,0.07972568670273746
0.127,0.0037,0.778,0.007536143845871405,1.040290190686958,0.04763504879018797,0.08148473348284614
0.128,0.0052,0.778,0.007522169840588317,1.040290190686958,0.04749339234191219,0.08148473348284614
0.129,0.0009,-2.222,0.007525876371257205,1.0282250105114283,0.04753096596231258,0.07855960898458567
0.13,-0.0027,-0.222,0.007528702793000235,1.0282250105114283,0.047559617795293614,0.07855960898458567
0.131,-0.0114,1.778,0.007532712446862496,1.0355142025307749,0.04760026421795031,0.08032682620290452
0.132,-0.0102,0.778,0.007487855179117844,1.0427524418790233,0.04714553981364845,0.0820816902773571
0.133,-0.0076,-0.222,0.007467178704632507,1.0355142025307749,0.046935939496550935,0.08032682620290452
0.134,-0.0083,0.778,0.007465324052299232,1.0355142025307749,0.04691713862614937,0.08032682620290452
0.135,0.0026,-0.222,0.0075665199460293415,1.0403728401137669,0.04794297557092637,0.08150477129907505
0.136,-0.0112,1.778,0.007685325759658611,1.0379877830919328,0.049147326739564075,0.08092652972930019
0.137,-0.0058,-1.222,0.007684319099729872,1.0452088926381293,0.0491371220869081,0.08267724079460549
0.138,-0.0072,-1.222,0.007631297233038877,1.040372840113767,0.048599631999832756,0.0815047712990751
0.139,-0.0028,-0.222,0.007713829721006659,1.0475775092317061,0.04943627538703892,0.083251496489428
0.14,-0.0152,-1.222,0.007741292186549679,1.0475775092317061,0.04971466624570192,0.083251496489428
0.14100000000000001,-0.0166,-0.22200000000002776,0.007727629422221357,1.0547329658495674,0.04957616489056636,0.08498629042906575
0.14200000000000002,-0.0152,-1.2219999999999167,0.007732016920658305,1.0896479500483935,0.04962064157658464,0.09345120136703113
0.14300000000000002,-0.0062,1.7779999999999445,0.0077771687295434865,1.0919201727429284,0.05007835178567139,0.09400208698768417
0.14400000000000002,0.0127,-0.222,0.007780648367628142,1.0896479500483935,0.05011362536417461,0.09345120136703113
0.14500000000000002,0.0152,-0.222,0.007979921428765871,1.0827232627236503,0.05213368428829541,0.0917723559422871
0.14600000000000002,0.0174,-0.222,0.00800166415894944,1.0827232627236503,0.05235409338870921,0.0917723559422871
0.14700000000000002,0.0061,-0.222,0.008058130401362683,1.0827232627236503,0.0529264995947824,0.0917723559422871
0.14800000000000002,0.0043,-0.222,0.008046676372164531,1.0873709792184016,0.05281038849694125,0.09289916459180399
0.14900000000000002,0.0061,0.778,0.008058425196969166,1.0873709792184016,0.05292948797912431,0.09289916459180399
0.15000000000000002,-0.0019,-0.222,0.008043440130482235,1.0805112774291366,0.052777582261850524,0.09123607448766803
0.15100000000000002,0.0024,0.778,0.008078404891645375,1.0874500503716316,0.05313202494172955,0.09291833487886589
0.15200000000000002,-0.0125,-1.222,0.008050247152891274,1.0874500503716316,0.05284658600116964,0.09291833487886589
0.15300000000000002,0.0056,-1.222,0.008038241375673903,1.0664983065378522,0.05272488175639872,0.08783872079288928
0.15400000000000003,0.0034,1.778,0.007984887060829587,1.0735276564904261,0.05218402159584185,0.08954294099134294
0.15500000000000003,0.0012,-0.222,0.007973526800140079,1.0664983065378524,0.052068861042502836,0.08783872079288933
0.15600000000000003,-0.012599999999997757,-0.222,0.007983522720671139,1.0664983065378524,0.05217019108861285,0.08783872079288933
0.15700000000000003,0.0075999999999985125,-1.222,0.00797227960561197,1.066498306537852,0.05205621805693201,0.08783872079288924
0.15800000000000003,-0.005799999999999245,-0.222,0.007940155949550233,1.0523804543279702,0.05173057605729388,0.0844159393042462
0.15900000000000003,0.0010000000000002442,0.778,0.008086814008391518,1.0547329658495674,0.053217269335678406,0.08498629042906575
0.16000000000000003,0.003200000000001521,1.778,0.008070773930677934,1.0475775092317061,0.053054668821871265,0.083251496489428
0.16100000000000003,0.016899999999999388,-1.222,0.008077068883581997,1.0452088926381295,0.0531184816409155,0.08267724079460553
0.16200000000000003,0.011399999999998757,0.778,0.00809378314222514,1.0475775092317063,0.053287916421208295,0.08325149648942806
0.16300000000000003,0.00019999999999914514,1.778,0.008113015593111832,1.0475775092317063,0.0534828784688858,0.08325149648942806
0.16400000000000003,-0.007499999999999889,0.778,0.008197530379182198,1.0404554829752517,0.05433961668953072,0.08152480752358382
0.16500000000000004,-0.006500000000000411,-0.222,0.008229459724490252,1.0259793345173691,0.05466328893385024,0.07801515943888382
0.16600000000000004,-0.010199999999999158,0.778,0.00822661401688702,1.0259793345173691,0.05463444159740382,0.07801515943888382
0.16700000000000004,-0.0025999999999997223,-0.222,0.008236925401535726,1.0186219138890464,0.05473896954744752,0.07623140063787039
0.16800000000000004,-0.00010000000000133227,-0.222,0.008199964582523978,1.0112109631789326,0.054364292549657585,0.0744346638165238
0.16900000000000004,-0.012099999999998756,0.778,0.008154148238276036,1.0087569595571495,0.053899845852546445,0.07383970659181062
0.16999999999999993,-0.0009,0.778,0.007982959926533568,1.0037452967020797,0.052164485965634604,0.07262466151323654
0.17099999999999993,0.0128,-0.222,0.007966487645970206,1.0012729957675206,0.05199750415101972,0.07202526822399098
0.17199999999999993,0.0037,-0.2219999999999445,0.007957214335838974,0.9862218791208724,0.051903499307716844,0.06837622283977202
0.17299999999999993,0.0084,1.7779999999999723,0.007998641871225499,0.983705538389626,0.05232345603485339,0.06776615238812073
0.17399999999999993,0.0007,0.7779999999999168,0.007996035945411359,0.9888187746305503,0.05229703939997863,0.06900582327377035
0.17499999999999993,0.0043,-2.2219999999999724,0.007878646184804692,0.9811827442735342,0.05110704295911498,0.0671545173552669
0.17599999999999993,0.0007,-1.222,0.007801145758377412,0.9811827442735342,0.05032141028436328,0.0671545173552669
0.17699999999999994,-0.0004,0.778,0.007813260062990109,0.9938191919350441,0.050444214686537245,0.07021814194171416
0.17799999999999994,-0.007,0.778,0.00780482775922751,0.9913221361697435,0.0503587352425558,0.06961274700468559
0.17899999999999994,-0.0045,-0.222,0.007789611325962076,0.9913221361697435,0.050204484127851015,0.06961274700468559
0.17999999999999994,-0.0038,-1.222,0.0078014864276227825,0.9810951085665779,0.050324863696206076,0.06713327064783187
0.18099999999999994,0.0012,-1.222,0.007836766974662162,0.981095108566578,0.05068250754173071,0.0671332706478319
0.18199999999999994,-0.0039,-0.222,0.007757378172762722,0.965729566108807,0.04987773214039645,0.06340799476977693
0.18299999999999994,0.0016,-0.222,0.007690753888885191,0.9709374736099867,0.049202352445611997,0.06467061808702106
0.18399999999999994,0.0128,-1.222,0.0076571587003669995,0.9862218791208723,0.0488617933154103,0.06837622283977199
0.18499999999999994,0.0142,-0.222,0.007612774019555815,0.9862218791208723,0.048411859591027374,0.06837622283977199
0.18599999999999994,0.0004,-1.222,0.007646264467464965,0.9887318157392248,0.04875135695100882,0.06898474065588504
0.18699999999999994,0.0033,0.778,0.00782124929729033,0.9734868187389203,0.05052520267333743,0.06528869024033121
0.18799999999999994,0.0124,-1.222,0.007848103846897046,0.9657295661088067,0.050797431003030205,0.06340799476977685
0.18899999999999995,0.0077,-0.222,0.007831550898805576,0.9604934211400229,0.05062963145038736,0.062138525462082865
0.18999999999999995,0.0063,-1.222,0.00783304426146043,0.975941406668364,0.050644769876728904,0.06588378912663816
0.19099999999999995,0.0052,2.778,0.00776517297014222,0.9707603444962027,0.049956749092905074,0.06462767428489405
0.19199999999999995,-0.0086,0.778,0.007742193706295487,0.9784777145383055,0.04972380507760119,0.06649870048126041
0.19299999999999995,-0.0068,-0.222,0.007827885597011152,0.973310153571136,0.05059247577286051,0.06524585891889574
0.19399999999999995,-0.0181,-0.222,0.008199915601718323,0.9604038975589332,0.05436379602437209,0.062116821051837204
0.19499999999999995,-0.0076,1.778,0.008337020308057025,0.9604038975589332,0.05575364563072221,0.062116821051837204
0.19599999999999995,-0.0112,-0.222,0.008333398337587616,0.9604038975589333,0.05571692920890454,0.06211682105183723
0.19699999999999995,-0.0,-1.222,0.008150703464430883,0.9629811291217864,0.05386492569772095,0.06274165408976247
0.19799999999999995,-0.0044,0.778,0.008394915659891483,0.9655514816119082,0.056340538919110436,0.06336481934122463
0.19899999999999995,0.0047,-1.222,0.008473741117167461,0.9681150098212667,0.05713960361711389,0.06398633009018014
0.19999999999999996,0.0109,-1.222,0.008580483854529593,0.973310153571137,0.05822166969248985,0.06524585891889598
0.20099999999999996,-0.0015,-0.222,0.008614714751889775,0.973310153571137,0.058568673092238434,0.06524585891889598
0.20199999999999996,0.0,0.778,0.008617686417748077,0.9784777145383075,0.058598797285153895,0.0664987004812609
0.20299999999999996,0.0043,-1.222,0.008530152835500616,0.9707603444962047,0.05771145710495245,0.06462767428489453
0.20399999999999996,-0.0022,-0.222,0.00858918724740382,0.9629811291217864,0.05830989720475534,0.06274165408976247
0.20499999999999996,0.004,-0.22200000000002776,0.008582529460251877,0.9473218238001855,0.05824240628413419,0.058945157315113635
0.20599999999999996,-0.0015,-1.2219999999999722,0.0086126473711357,0.9552285743474329,0.05854771576404775,0.06086209758379658
0.20699999999999996,-0.004,-0.22199999999997225,0.008561166390421707,0.9552285743474329,0.05802584585388506,0.06086209758379658
0.20799999999999996,-0.016,0.7779999999999723,0.00861275882952427,0.9473218238001855,0.05854884563333974,0.058945157315113635
0.20899999999999996,0.0021,-0.222,0.008618443016373328,0.9499345485065748,0.05860646703136138,0.0595785954349496
0.20999999999999996,-0.0048,-0.222,0.008627592153620014,0.9552285743474328,0.0586992131167462,0.06086209758379655
0.21099999999999997,-0.007,0.778,0.00863555871751253,0.9394400523999752,0.05877997129044903,0.05703427307824132
0.21199999999999997,0.0067,0.778,0.008479110168916797,0.9313992810022717,0.05719403044650261,0.055084840325629957
0.21299999999999997,0.0121,-1.222,0.008407566011946074,0.936798059058081,0.056468777309263356,0.05639373896800152
0.21399999999999997,0.0074,-0.222,0.008417559106903628,0.9206935354711833,0.05657007871213909,0.05248930191927917
0.21499999999999997,0.003,0.778,0.0083989009144748,0.944883887291759,0.05638093800285995,0.058354095457582036
0.21599999999999997,-0.0061,-0.222,0.008374400886059835,0.9528108688849561,0.05613257778418163,0.0602759406118342
0.21699999999999997,0.0001,-0.222,0.008323653245889599,0.9580890014339711,0.05561814184979758,0.061555589535395513
0.21799999999999997,-0.0054,-0.222,0.008321533657565609,0.9838803369679582,0.055596655286160264,0.06780853116707816
0.21899999999999997,0.0036,0.778,0.008325296706149935,0.9838803369679583,0.055634801836583425,0.06780853116707819
0.21999999999999997,-0.0025,-0.222,0.008261687994639846,0.9889926694751696,0.054989991421145634,0.06904798294836424
0.22099999999999997,0.0007,-0.222,0.00826595310670995,0.986483396554317,0.05503322745942595,0.06843962604139536
0.22199999999999998,-0.0083,-0.222,0.00821916764855866,0.986483396554317,0.05455895671897563,0.06843962604139536
0.22299999999999998,-0.0022,-1.222,0.008289689056264439,0.9940787107060798,0.05527384210370488,0.07028106058062969
0.22399999999999998,0.0011,-0.222,0.008252544946794324,0.9865705536271704,0.054897307064873085,0.06846075670710369
0.22499999999999998,0.0036,1.778,0.00829494537864556,0.9865705536271709,0.055327126179703,0.06846075670710383
0.22599999999999998,-0.0047,1.778,0.008319575289152802,0.9608514320542925,0.05557680303133756,0.062225322880831616
0.22699999999999998,0.0007,-0.222,0.008471842933738885,0.9555885577367205,0.057120361465903775,0.06094937321629045
0.22799999999999998,-0.0018,0.778,0.008512357018715644,0.9685589813096702,0.057531058418329895,0.06409396809130109
0.22899999999999998,0.0044,1.778,0.008485404874212215,0.9737517563933146,0.05725784075550334,0.06535292265228906
0.22999999999999998,-0.0079,-0.222,0.00853454793980167,0.9762937527595604,0.05775601089268019,0.06596921314585963
0.23099999999999998,-0.0025,-0.222,0.008543750204972481,0.971114570415822,0.05784929554327114,0.06471355405629595
0.23199999999999998,-0.0011,-1.222,0.00855698456008469,0.9659076177722522,0.057983454054194625,0.06345116223807185
0.23299999999999998,-0.0025,1.778,0.008644783683903938,0.9736634518519153,0.05887348606649194,0.06533151379029141
0.23399999999999999,0.0011,0.778,0.008710462334897176,0.9813579922097254,0.05953927974831533,0.06719700507811599
0.235,-0.0076,0.7779999999999723,0.00862717821756803,0.9762056781593029,0.058695016989025524,0.06594786003159696
0.236,-0.0199,-0.222,0.008510756864227727,0.9787413011969732,0.05751483742822299,0.06656260535308715
0.237,-0.0087,-0.22199999999997225,0.008586609891254803,0.9710260260502932,0.05828377018457643,0.06469208705049717
0.238,0.0051,0.7780000000000278,0.00863830374090746,0.9684702032942181,0.05880779797697751,0.06407244443859736
0.239,0.0032,1.7779999999999723,0.008662709139325481,0.9632489563271299,0.059055198918126155,0.06280658705456311
0.24,0.0112,0.778,0.008682760348703923,0.9658185960435766,0.059258460835281836,0.06342957949868144
0.241,0.0155,-1.222,0.008702459109904952,0.9605829363777737,0.05945814993591125,0.06216022784954025
0.242,0.0191,0.778,0.008701867884399542,0.9234747210744781,0.05945215660017609,0.053163582288411754
0.243,0.0252,0.778,0.008723792869278508,0.9289195569407634,0.05967441324195748,0.054483647347513056
0.244,0.0197,-0.222,0.00879673453224509,0.9289195569407636,0.060413833093163644,0.054483647347513084
0.245,0.015,-0.222,0.008609232582602655,0.9289195569407636,0.05851309957452981,0.054483647347513084
0.246,0.0012,0.778,0.008575601257701597,0.9208802948658328,0.05817217412475498,0.052534580520395925
0.247,-0.021,0.778,0.008514009574029972,0.9208802948658328,0.05754781060295161,0.052534580520395925
0.248,-0.0123,0.778,0.008516346438887155,0.9208802948658328,0.057571499729230216,0.052534580520395925
0.249,-0.0148,-1.222,0.008554615264873888,0.9263403803546632,0.05795943617688029,0.053858342751346044
0.25,-0.0079,-0.222,0.008577307682312903,0.9181848990665783,0.058189472389983246,0.051881099331536555
0.251,0.0033,-1.222,0.008627256621146604,0.9126760247045298,0.05869581177708005,0.050545508555449384
0.252,-0.0025,-0.222,0.008664879382399794,0.939714589050262,0.05907719897606047,0.05710083270435058
0.253,-0.0115,-0.222,0.008665090618071773,0.9370733697398631,0.05907934030164576,0.05646048625301488
0.254,-0.0003,-0.222,0.008708686005138326,0.9290121144925413,0.05952127284481788,0.054506087324228326
0.255,0.0073,-1.222,0.008706474057870686,0.9290121144925413,0.05949885002563616,0.054506087324228326
0.256,0.0084,-0.222,0.00870033117335048,0.9449748811849251,0.059436578745092575,0.05837615633543218
0.257,0.0121,-0.222,0.008700491300421236,0.9449748811849255,0.059438201975630746,0.058376156335432264
0.258,0.0066,0.778,0.008776547074036052,0.9449748811849256,0.06020919000253386,0.05837615633543229
0.259,0.0041,-1.222,0.008690690525966032,0.9423484055656826,0.05933885015261717,0.057739384396169116
0.26,0.0049,-0.222,0.00872969497311416,0.9449748811849258,0.059734243694986235,0.05837615633543234
0.261,-0.0042,-0.222,0.008815918796905551,0.9475940769489566,0.06060830667031853,0.05901116332112539
0.262,-0.003,-1.222,0.00880654260762641,0.952901105819583,0.060513258926687574,0.06029781797000745
0.263,-0.0041,-0.222,0.00880654260762641,0.950296537336585,0.060513258926687574,0.0596663572735094
0.264,0.005,-2.222,0.008797202028245923,0.9580890014339717,0.060418572165585584,0.061555589535395645
0.265,-0.0011,-1.222,0.008793929951829262,0.9606724432745145,0.060385402668774804,0.06218192821477398
0.266,-0.0044,-1.222,0.008791115395471727,0.9606724432745146,0.060356871116867994,0.06218192821477401
0.267,-0.0018,-2.222,0.008788428154374047,0.9606724432745146,0.06032963017757777,0.06218192821477401
0.268,-0.0025,-0.222,0.008791713278650786,0.9684702032942185,0.06036293194237318,0.06407244443859747
0.269,-0.0064,-1.222,0.008777827374003079,0.9710260260502936,0.06022216858257462,0.06469208705049728
0.27,-0.0028,-0.222,0.008770515834822804,0.9684702032942186,0.060148050486100134,0.0640724444385975
0.271,-0.0093,-0.222,0.00877080715366915,0.9939922119776312,0.060151003626037695,0.07026008952624242
0.272,-0.0114,-1.222,0.008773801121592343,0.9964825769026092,0.060181353898107824,0.07086386231253171
0.273,-0.003,-1.222,0.008765654430729033,1.0040022497346228,0.06009876975207963,0.07268695810553433
0.274,-0.0084,0.778,0.008765151033721583,0.9989667335145574,0.060093666746126546,0.07146612993368694
0.275,-0.0077,-0.222,0.008774028100288853,1.0064678465159553,0.060183654812937214,0.07328472601641356
0.276,-0.016,0.778,0.008768708063920095,0.9914955919588869,0.06012972485932482,0.06965480023313364
0.277,-0.0083,1.778,0.008758826574940582,0.9839677246124805,0.060029554821876205,0.06782971773338871
0.278,-0.0018,-1.222,0.008758826574940582,0.9915823084750867,0.060029554821876205,0.06967582408874536
0.279,0.0102,0.778,0.008766120325740817,0.9915823084750867,0.0601034925950514,0.06967582408874536
0.28,0.0055,0.778,0.008837020137664995,0.984055104496664,0.06082221391632891,0.06785090241825556
0.281,-0.004899999999998024,0.778,0.009077371413802705,0.9916690174083589,0.06325868845791398,0.06969684610592558
0.28200000000000003,0.012899999999999768,-1.222,0.009208822256782238,1.0166087855665518,0.06459122405970552,0.07574333076335543
0.28300000000000003,0.01079999999999929,-1.221999999999889,0.009235530002960967,1.0116360215451305,0.06486196422249253,0.07453771645411955
0.28400000000000003,0.004399999999999357,0.778,0.009348510513911485,0.9992249153665953,0.06600726348218315,0.0715287244452827
0.28500000000000003,-0.0013999999999985788,0.7779999999999445,0.009355610328009467,0.9992249153665953,0.06607923529185146,0.0715287244452827
0.28600000000000003,0.011399999999999844,-0.222,0.00946253383873207,0.9967414022157902,0.06716313389209545,0.07092661282709851
0.28700000000000003,0.010000000000000444,-0.2219999999999445,0.009435843959510654,1.0042591370223222,0.06689257484915656,0.07274923875842214
0.28800000000000003,0.013999999999999523,0.778,0.009468108953801025,1.0042591370223222,0.06721964961420934,0.07274923875842214
0.28900000000000003,0.009699999999999879,0.778,0.009468652335104017,1.0017881041889738,0.06722515794656515,0.07215015291207123
0.29000000000000004,0.008599999999999611,0.778,0.009463453995564945,0.9867448446776799,0.067172461650756,0.06850301243923995
0.29100000000000004,0.005100000000000611,0.778,0.009397642440622595,0.9842298409922847,0.06650532070299048,0.06789326614566321
0.29200000000000004,0.010600000000000288,-1.222,0.009269109568887367,0.9842298409922847,0.06520236498429367,0.06789326614566321
0.29300000000000004,0.013199999999998668,-0.222,0.009126297322458642,0.9893403674687176,0.06375465724484818,0.06913228006652795
0.29400000000000004,0.0011999999999998444,-0.222,0.008842777806470793,1.0018739298441783,0.060880580211235394,0.07217096078422612
0.29500000000000004,-0.0002000000000004774,-1.222,0.00865502695894977,1.0018739298441786,0.0589773235799542,0.07217096078422618
0.29600000000000004,-0.004499999999999278,-0.222,0.008524165010172854,1.0093534379508173,0.05765075768115496,0.07398431890067109
0.29699999999999993,0.002,-1.222,0.008526416470177534,1.0093534379508167,0.05767358104648487,0.07398431890067092
0.29799999999999993,-0.0092,-1.222,0.00827585027286813,1.0143373923436758,0.055133556418629937,0.07519264624271373
0.29899999999999993,-0.0078,-0.222,0.008306053002189685,1.0265658060274776,0.05543972571492354,0.0781573456438797
0.29999999999999993,-0.0143,0.778,0.008174409290280878,1.0192126189873854,0.05410523497378932,0.07637461324881034
0.30099999999999993,-0.0082,-2.222,0.00845209151088047,1.0192126189873851,0.05692013852667945,0.07637461324881029
0.30199999999999994,-0.0006,-0.222,0.008562473834520372,1.0142526213422791,0.058039099597789114,0.07517209406451829
0.30299999999999994,-0.0097,-0.222,0.008571731491497321,1.0142526213422791,0.05813294576287517,0.07517209406451829
0.30399999999999994,-0.001,-0.222,0.008521385170113827,1.0166933601130506,0.057622578053227305,0.07576383531233802
0.30499999999999994,0.0023,1.778,0.008624576543481335,1.0240646365829087,0.05866864345450722,0.07755095337205539
0.30599999999999994,0.0016,-1.222,0.008670341558089423,1.0191282535070088,0.0591325698158717,0.07635415938654995
0.30699999999999994,-0.0122,-0.222,0.008869872988330411,1.021557343321718,0.06115524786377057,0.07694307642070183
0.30799999999999994,-0.0103,-0.222,0.008804881470578528,1.0288937734753019,0.06049641974783117,0.07872174621757315
0.30899999999999994,-0.0085,0.778,0.00879064675802608,1.026482044897993,0.06035212047346015,0.0781370383025642
0.30999999999999994,-0.0132,0.778,0.009342411767148456,1.0337003503398878,0.06594543963226449,0.07988706953101096
0.31099999999999994,-0.0057,-1.222,0.00940523032397346,1.0360952769369653,0.06658224013901753,0.08046770391514187
0.31199999999999994,0.0067,-0.222,0.009561183157632979,1.0433294850107546,0.06816315585124269,0.08222159063330899
0.31299999999999994,0.0114,1.778,0.009558777762455664,1.0856437708089361,0.06813877202351289,0.092480414141448
0.31399999999999995,0.007,0.778,0.009684804926749195,1.0879243566050565,0.06941632703500954,0.09303332734171223
0.31499999999999995,-0.002,0.778,0.009676582863144295,1.0646564811670884,0.06933297882494573,0.08739218220538725
0.31599999999999995,-0.0057,-0.222,0.009824068635426394,1.0575681687198077,0.07082806275038102,0.08567366693340497
0.31699999999999995,-0.0024,-1.222,0.010027950690917236,1.0527888908446594,0.07289484369563738,0.08451496208248657
0.31799999999999995,0.0022,0.778,0.010084270930237865,1.0360122862612242,0.07346576984791656,0.08044758336532778
0.31899999999999995,-0.0003,-0.222,0.010267925508087377,1.0384018807198345,0.07532750201995425,0.08102692500715135
0.31999999999999995,-0.0026,-2.222,0.01038789327212947,1.0311331022136618,0.07654363204262979,0.07926465691239398
0.32099999999999995,0.0024,0.778,0.010396111649602132,1.0335339777090302,0.07662694288585495,0.07984673356824194
0.32199999999999995,0.0074,-1.222,0.01037296118635969,1.0335339777090302,0.07639226339830443,0.07984673356824194
0.32299999999999995,0.002,0.778,0.01031015086195736,1.0335339777090302,0.07575554634477277,0.07984673356824194
0.32399999999999995,0.0041,-1.222,0.010308129309070045,1.0335339777090302,0.07573505358008452,0.07984673356824194
0.32499999999999996,0.0019,-0.222,0.010277082118729243,1.0311331022136618,0.07542032386419248,0.07926465691239398
0.32599999999999996,0.0022,-1.222,0.010249747309787519,1.0335339777090302,0.07514322707837202,0.07984673356824194
0.32699999999999996,0.0007,-1.222,0.010127901280206629,1.0311331022136616,0.0739080568149241,0.07926465691239393
0.32799999999999996,-0.004,0.778,0.010101343432962234,1.0238966982493538,0.07363883619862416,0.07751023781484599
0.32899999999999996,-0.012,-1.222,0.010106487157363184,1.0189595015909558,0.07369097885313065,0.07631324658155297
0.32999999999999996,-0.0222,-1.222,0.010080716402609559,1.016524203983461,0.07342973710362288,0.07572282450839686
0.33099999999999996,-0.0157,-2.222,0.010069636685694425,1.0140830580805147,0.07331742046180807,0.07513098455402809
0.33199999999999996,-0.0071,0.778,0.010266580321810116,1.0140830580805145,0.07531386567830088,0.07513098455402803
0.33299999999999996,-0.0147,0.778,0.010221562838876734,1.0140830580805147,0.07485751715019662,0.07513098455402809
0.33399999999999996,-0.0038,0.778,0.010184561215931079,1.014083058080516,0.07448242651721507,0.07513098455402842
0.33499999999999996,0.0161,-0.222,0.010248012819328963,1.047987817621222,0.07512564430572026,0.08335097309106626
0.33599999999999997,0.0186,-1.222,0.01025690351833939,1.0479878176212225,0.0752157705665161,0.08335097309106637
0.33699999999999997,0.0117,-0.222,0.010195382562383875,1.0503501675540274,0.07459212402147464,0.08392370947472409
0.33799999999999997,0.0052,-0.222,0.01014629280214968,1.0503501675540274,0.07409449424814818,0.08392370947472409
0.33899999999999997,-0.0006,-0.222,0.01008860117378773,1.0551404917280982,0.07350966613312732,0.08508509242900465
0.33999999999999997,0.0011,-0.222,0.010049078097236536,1.0669013384013037,0.07310901517187787,0.08793643324808766
0.34099999999999997,-0.0004,-1.222,0.01002066642431343,1.0785339468374529,0.07282100206508944,0.09075668354026845
0.34199999999999997,0.0101,-1.222,0.010013806342993902,1.0762334625361234,0.07275146046016508,0.09019894607677574
0.34299999999999997,0.0112,1.778,0.009957605138709818,1.0692219014221387,0.07218174098271933,0.08849903866659345
0.344,-0.0077,-0.22200000000005551,0.009870295562524046,1.0923925380943484,0.07129667158333186,0.094116608896306
0.345,0.0002,-1.221999999999889,0.009906926150997995,1.0923925380943484,0.07166800098791934,0.094116608896306
0.346,0.0023,0.777999999999889,0.009916693537481983,1.0923925380943487,0.07176701435239352,0.09411660889630606
0.347,0.0045,-1.2219999999998334,0.00992586936857099,1.0992563161910567,0.07186003103699577,0.09578068727468163
0.348,0.0142,1.777999999999889,0.009925311736961468,1.0923925380943487,0.07185437824728726,0.09411660889630606
0.349,0.0015,-0.222,0.009921681944305587,1.0877662775066959,0.07181758253086999,0.09299500209198115
0.35,0.0229,-0.2219999999999445,0.00992012864674681,1.0877662775066959,0.07180183653601495,0.09299500209198115
0.351,0.0141,0.7779999999999445,0.010103322408680301,1.0923925380943487,0.07365889735258584,0.09411660889630606
0.352,-0.0047,-0.222,0.010301213016948836,1.0762334625361234,0.07566494215839256,0.09019894607677574
0.353,-0.0068,0.778,0.010565803643696622,1.0762334625361234,0.07834713439124617,0.09019894607677574
0.354,-0.0133,-1.222,0.010528718842973506,1.0900424226052188,0.07797120057348747,0.09354683867398168
0.355,-0.0115,0.778,0.010558628165284243,1.0900424226052188,0.07827439556182786,0.09354683867398168
0.356,-0.0205,0.778,0.010565320943405024,1.0762334625361234,0.07834224119079976,0.09019894607677574
0.357,-0.0056,-1.222,0.010592178605412506,1.0762334625361234,0.07861450107133491,0.09019894607677574
0.358,0.0043,-0.222,0.010532592220280076,1.0785339468374524,0.07801046554161688,0.09075668354026833
0.359,0.0319,1.778,0.010486626868057534,1.0785339468374524,0.07754450832980225,0.09075668354026833
0.36,-0.0119,0.778,0.010465483590791316,1.078533946837452,0.07733017596755051,0.09075668354026824
0.361,-0.0177,-1.222,0.010386452597444824,1.076233462536122,0.07652902772161992,0.09019894607677542
0.362,-0.0021,-3.222,0.010371460814108897,1.0831202572555505,0.07637705391470734,0.09186860468569931
0.363,-0.0161,0.778,0.01035416214783811,1.085406145309492,0.07620169491246097,0.0924228033839025
0.364,-0.003,-0.222,0.010505245943813633,1.0738479835048023,0.0777332525078926,0.08962060219354419
0.365,0.017,-0.222,0.010988974550254818,1.073847983504802,0.08263687712586672,0.08962060219354413
0.366,0.0206,0.778,0.011678824966064117,1.0738479835048018,0.08962998738777445,0.08962060219354408
0.367,0.0108,-1.222,0.011946684285834036,1.0738479835048016,0.09234531481949476,0.08962060219354402
0.368,0.0195,0.778,0.011956896173558502,1.0691414821593492,0.0924488341552853,0.08847954153913284
0.369,0.017,-0.222,0.011981585006276356,1.0691414821593492,0.09269910830961946,0.08847954153913284
0.37,0.005,0.778,0.01198204647007166,1.0691414821593492,0.09270378623272929,0.08847954153913284
0.371,-0.0062,-0.222,0.011983474069247418,1.045455654760378,0.09271825800547466,0.0827370666669531
0.372,-0.0004,-1.222,0.012014798499429047,1.050268303279638,0.09303579814045389,0.08390386201359505
0.373,-0.0022,-1.222,0.011997111218245924,1.0430822199003156,0.09285649969442505,0.08216164281474451
0.374,0.0026,-0.222,0.011996057742367163,1.0430822199003156,0.09284582046192827,0.08216164281474451
0.375,-0.0018,0.778,0.01200216158872719,1.035846284962422,0.09290769600717577,0.08040733742960156
0.376,-0.0028,-0.222,0.01200234049687802,1.0854061453094916,0.09290950962415248,0.0924228033839024
0.377,-0.0039,-1.222,0.012007317983690048,1.0807499791682489,0.09295996710494252,0.09129394617252451
0.378,0.0037,0.778,0.012022627549077696,1.0760736660046706,0.09311516231301108,0.09016020444655642
0.379,-0.0072,-0.222,0.01201856569704538,1.0876081754322242,0.09307398675019546,0.09295667127184132
0.38,-0.0028,-0.222,0.011959282959638383,1.0806704177802278,0.09247302933998865,0.09127465703122448
0.381,-0.0206,0.778,0.011751401754252162,1.0736878319435184,0.09036570845225872,0.08958177448865037
0.382,-0.0086,-1.222,0.011647868568542517,1.0501045555848871,0.08931617805140402,0.0838641624495205
0.383,-0.0064,-1.222,0.011684952187191669,1.061921177045836,0.08969209988631341,0.08672902550330204
0.384,-0.0122,2.778,0.011634295077661042,1.0595846250583922,0.08917858167369971,0.0861625436637856
0.385,0.0045,0.778,0.011628349771777412,1.064333387836524,0.08911831327546123,0.08731385032780986
0.386,-0.002,0.778,0.011523009711352202,1.0666595375572532,0.08805046633260576,0.08787781020538608
0.387,-0.0002,-0.222,0.011415039922452856,1.0595846250583922,0.08695596146397822,0.0861625436637856
0.388,0.0089,-1.222,0.011358412606129983,1.0666595375572532,0.08638192242912858,0.08787781020538608
0.389,0.0038,1.778,0.011450625364329751,1.0666595375572532,0.08731669607116387,0.08787781020538608
0.39,-0.0041,1.778,0.011526356583901907,1.0898846507155204,0.08808439404829062,0.09350858790499363
0.391,0.0035,-0.222,0.011628330299977103,1.0921563809563044,0.08911811588709492,0.09405935413343619
0.392,-0.0001,-0.222,0.011641283502353262,1.098943395384136,0.08924942431336444,0.09570482165933049
0.393,0.001,-2.222,0.011603347700681303,1.0943448284041801,0.0888648637798252,0.09458992899015654
0.394,0.0086,-0.222,0.011551321728345389,1.0828820780014297,0.08833746921327822,0.09181085967393236
0.395,-0.0044,-1.222,0.01154393833386282,1.0851684677758446,0.08826262270954278,0.09236518001100268
0.396,-0.0062,-1.222,0.01154683807042403,1.085168467775846,0.08829201774510166,0.092365180011003
0.397,0.0017,-0.222,0.011576582927790992,1.0898057562053975,0.0885935455292777,0.09348946044390467
0.398,-0.0088,0.778,0.011682199143274096,1.096607318985818,0.08966419189462384,0.09513845512330583
0.399,-0.0076,-0.222,0.011765242328701436,1.0898057562054013,0.09050601229348837,0.09348946044390559
0.4,-0.0239,-1.222,0.01179572163831806,1.0920776505618575,0.09081498532296146,0.09404026646112595
0.401,-0.0217,-1.222,0.011571835082001714,1.0920776505618577,0.08854541595169094,0.094040266461126
0.402,-0.0235,-0.222,0.011606373425737218,1.0966857241982075,0.08889553597839656,0.09515746395734023
0.403,0.004,1.778,0.011749753880623525,1.0989433953841423,0.0903490037265404,0.095704821659332
0.404,-0.008,-0.222,0.011734657827973114,1.1035227995206383,0.0901959729269865,0.09681506842168602
0.405,-0.0044,-0.222,0.011732294029465842,1.0989433953841423,0.09017201077052553,0.095704821659332
0.406,-0.0076999999999996785,-1.222,0.01188483123295369,1.0966857241982075,0.09171830176142415,0.09515746395734023
0.40700000000000003,-0.004799999999999123,0.7779999999999445,0.011706876539317278,1.0966857241982075,0.08991435011378542,0.09515746395734023
0.40800000000000003,0.003100000000000244,-0.2219999999999445,0.012016941749907693,1.0920776505618581,0.09305752457066625,0.0940402664611261
0.40900000000000003,0.005299999999999755,0.7779999999999445,0.01204753305734934,1.0989433953841423,0.0933676329377742,0.095704821659332
0.41000000000000003,0.003099999999999789,-0.22199999999988898,0.011689010872757455,1.0852476994040883,0.08973324335021443,0.09238438920418841
0.41100000000000003,0.0012000000000001998,1.7779999999999445,0.01163615641314882,1.082961476906536,0.0891974502921743,0.09183010942230603
0.41200000000000003,0.0030000000000020097,0.778,0.01150663806481145,1.0898057562054015,0.08788450465916943,0.09348946044390563
0.41300000000000003,0.021100000000001323,0.778,0.011790564766582459,1.0476595837651599,0.09076270939208261,0.08327139492650033
0.41400000000000003,0.03300000000000074,0.778,0.011729926737291509,1.0944233957029,0.09014801319827236,0.09460897712096801
0.41500000000000004,0.03959999999999847,0.7779999999999445,0.011729431402513655,1.1012745163961555,0.0901429919202696,0.09626998679416184
0.41600000000000004,0.025799999999997745,-0.2219999999999445,0.011612879326214909,1.1012745163961555,0.08896148720253277,0.09626998679416184
0.41700000000000004,0.005500000000000277,0.778,0.01144667650446535,1.099021633938707,0.08727666592577624,0.09572379008826025
0.41800000000000004,0.007999999999999233,0.778,0.011510163188554422,1.0921563809563106,0.0879202393321602,0.09405935413343769
0.41900000000000004,0.0011000000000002332,-0.222,0.011349249997395335,1.0967641238055816,0.08628903978138396,0.09517647143247508
0.42000000000000004,0.003200000000000644,-0.222,0.011221930180458426,1.0990216339387064,0.08499838096903665,0.09572379008826008
0.42100000000000004,0.008999999999999389,-1.222,0.011210847091989735,1.1036007134234467,0.08488603014931134,0.09683395814090648
0.42200000000000004,0.0034999999999994784,-0.222,0.01121140502514966,1.1058442671854933,0.08489168599587854,0.09737789316525343
0.42300000000000004,-0.0012000000000004884,0.778,0.01121435799470625,1.101274516396153,0.08492162066176556,0.09626998679416124
0.42400000000000004,-0.0055999999999996,-0.222,0.011227729049035651,1.094423395702897,0.08505716491179513,0.0946089771209673
0.42500000000000004,-0.0019999999999993226,-3.222,0.011225376790186705,1.1565425212481266,0.08503331973446646,0.1096693552752366
0.42599999999999993,0.0041,0.778,0.011224792216625545,1.1672821475775486,0.08502739383042163,0.11227310786088551
0.42699999999999994,-0.0061,0.778,0.011241840996059432,1.1800261137999501,0.08520021969481173,0.11536279962344674
0.42799999999999994,-0.0025,1.778,0.011271006333141967,1.175744719931318,0.08549587280071672,0.11432480351318242
0.42899999999999994,-0.0014,-0.222,0.011266558940883634,1.1757447199313178,0.08545078896264441,0.11432480351318236
0.42999999999999994,-0.0004,-0.222,0.011257910336712085,1.1757447199313178,0.08536311685112978,0.11432480351318236
0.43099999999999994,0.0021,-0.222,0.011259267104893231,1.1757447199313178,0.08537687060016458,0.11432480351318236
0.43199999999999994,-0.0117,1.778,0.011069159005193766,1.1863105221840753,0.08344971817347442,0.11688641358146798
0.43299999999999994,-0.0099,-0.222,0.011100766869611308,1.1925618142635184,0.08377013152099122,0.11840199870670692
0.43399999999999994,-0.0008,-1.222,0.01110632325097949,1.1862380407986313,0.08382645733695715,0.11686884094076591
0.43499999999999994,0.0039,0.778,0.011039096494197207,1.154248527676312,0.08314497028997549,0.10911319144691874
0.43599999999999994,-0.0099,-0.222,0.01103023515891418,1.158609358863622,0.08305514169339598,0.1101704466186774
0.43699999999999994,0.0028,-1.222,0.011078236453240015,1.1564681741613525,0.08354173753539607,0.10965133030737591
0.43799999999999994,-0.0154,-0.222,0.011118919186939958,1.1564681741613525,0.0839541441035443,0.10965133030737591
0.43899999999999995,-0.0132,-2.222,0.011090124876867788,1.1564681741613525,0.08366225215039672,0.10965133030737591
0.43999999999999995,-0.0154,0.778,0.011157354048725216,1.1456271772482582,0.08434376367933331,0.10702300108272211
0.44099999999999995,-0.0055,1.778,0.011250313427990932,1.1346826078915335,0.08528610592366032,0.10436956139243078
0.44199999999999995,-0.0037,0.778,0.011548461689116938,1.136864824528322,0.08830847659514017,0.10489862562950929
0.44299999999999995,-0.0022,0.778,0.01157686385957415,1.139042860408726,0.08859639337410125,0.10542667626938135
0.44399999999999995,-0.0065,0.778,0.011591487176522518,1.1235549147444341,0.08874463198564836,0.10167172452964421
0.44499999999999995,0.0026,-1.222,0.011600162225837428,1.1235549147444341,0.08883257217528422,0.10167172452964421
0.44599999999999995,-0.0086,-1.222,0.011694898468496466,1.139042860408726,0.08979292673263604,0.10542667626938135
0.44699999999999995,-0.0163,1.778,0.011696472340215985,1.139042860408726,0.08980888129063942,0.10542667626938135
0.44799999999999995,-0.0199,-1.222,0.011696621524502756,1.1456271772482582,0.08981039359264407,0.10702300108272211
0.44899999999999995,-0.0086,0.778,0.011679347049770241,1.1456271772482582,0.0896352798234086,0.10702300108272211
0.44999999999999996,-0.001,-0.222,0.011753197037842795,1.1456271772482582,0.09038390749340296,0.10702300108272211
0.45099999999999996,0.0167,-1.222,0.011542625862260264,1.1456271772482582,0.08824931800112781,0.10702300108272211
0.45199999999999996,0.0189,0.778,0.01138246388800098,1.139042860408726,0.08662573364125463,0.10542667626938135
0.45299999999999996,0.0033,-1.222,0.011236289372328704,1.1456271772482582,0.08514394210768284,0.10702300108272211
0.45399999999999996,0.0131,0.778,0.01128000092882478,1.1324961863305552,0.08558705227662876,0.10383947769881847
0.45499999999999996,0.0222,-0.222,0.011252705159373811,1.1391183447978401,0.08531035123959263,0.10544497696880083
0.45599999999999996,0.0008,0.778,0.01139050348687633,1.1457022278309013,0.08670723218080523,0.1070411966085828
0.45699999999999996,0.0277,0.778,0.011385982560091469,1.1457022278309013,0.08666140291294075,0.1070411966085828
0.45799999999999996,0.0096,-1.222,0.011409864310225752,1.150095464585497,0.08690349555811286,0.1081063082994625
0.45899999999999996,0.0129,-0.222,0.011410453589943442,1.156616863555884,0.08690946916912547,0.10968737908445574
0.45999999999999996,0.0043,-0.222,0.011399590760399163,1.160968798833668,0.0867993511449588,0.11074247750078182
0.46099999999999997,-0.0037,1.778,0.01140018057116061,1.1609687988336683,0.0868053301392363,0.11074247750078188
0.46199999999999997,-0.0258,-1.222,0.011441644551045639,1.150170223604755,0.08722565630935734,0.10812443313767595
0.46299999999999997,-0.0108,-3.222,0.011471565889349545,1.150170223604755,0.08752897310550307,0.10812443313767595
0.46399999999999997,-0.0028,-1.222,0.011302235970412758,1.148013298994716,0.08581245200668534,0.10760150078806027
0.46499999999999997,0.0041,-0.222,0.01085796062327997,1.145852314249289,0.08130877060279419,0.10707758408501455
0.46599999999999997,0.0064,-0.222,0.010116316596774817,1.150244977765124,0.07379062125682138,0.10814255679788332
0.46699999999999997,0.0162,-0.222,0.00979679159487275,1.152397725384848,0.07055155157079959,0.10866447646335159
0.46799999999999997,0.0035,-1.222,0.009781369129220693,1.1502449777651242,0.07039521187694177,0.10814255679788337
0.469,-0.0012,0.777999999999889,0.009749786649488184,1.1610428577241116,0.07007505585753168,0.11076043259731572
0.47,0.0003,-1.221999999999889,0.00979150296289725,1.1610428577241116,0.07049793996791909,0.11076043259731572
0.471,-0.0063,0.778,0.009803491260275698,1.1738545628265593,0.07061946701711522,0.11386654721097612
0.472,-0.0026,0.7779999999999445,0.009762138674910254,1.1801718351424821,0.07020027006883732,0.11539812881561448
0.473,-0.0059,-0.22199999999977796,0.009770786010686493,1.1801718351424821,0.07028792932245106,0.11539812881561448
0.474,-0.0012,3.777999999999889,0.009787871822389068,1.1780698416754813,0.07046113058813433,0.11488851416452307
0.475,0.0014,1.778,0.009773279705361982,1.1801718351424821,0.07031320825455806,0.11539812881561448
0.476,0.0068,1.7779999999999445,0.009804696542148744,1.1347583823256893,0.07063168512823283,0.104387932411385
0.477,0.009,0.778,0.009830443468873686,1.1325721070466706,0.0708926853296773,0.10385788418288285
0.478,-0.0019,0.7779999999999445,0.009867545996127058,1.1303816032923812,0.07126879884375538,0.10332681078804049
0.479,0.0057,-0.222,0.009869538350957864,1.123784473672338,0.07128899562365633,0.10172737959936025
0.48,-0.0033,-0.222,0.009994140631844565,1.130457666022365,0.07255210639253752,0.10334525170244403
0.481,0.0003,1.778,0.010004161693427523,1.130457666022365,0.07265369129701102,0.10334525170244403
0.482,-0.012,1.778,0.010019324663126713,1.1326480226738638,0.0728074004440585,0.1038762894331711
0.483,-0.0073,-0.222,0.009962263660385249,1.1215768072979813,0.07222896506925636,0.10119214523885614
0.484,0.0003,-0.222,0.009948384072267743,1.121576807297981,0.07208826574100892,0.10119214523885608
0.485,-0.0008,-1.222,0.010016565324616008,1.1170714175312577,0.07277942864319693,0.10009984277928871
0.486,0.0105,-0.222,0.010021948886647893,1.1170714175312577,0.07283400256535168,0.10009984277928871
0.487,-0.0095,-0.222,0.010017978668332282,1.1237844736723377,0.07279375590635338,0.1017273795993602
0.488,0.0039,-1.222,0.010183437930132658,1.1170714175312577,0.0744710396117875,0.10009984277928871
0.489,-0.0128,0.778,0.010077185835520112,1.123784473672338,0.07339394725066672,0.10172737959936025
0.49,-0.015,0.778,0.009994485748121609,1.1035227995206327,0.0725556048845631,0.09681506842168468
0.491,-0.0263,0.778,0.009888756915599286,1.1147733301708178,0.0714838169045211,0.09954268643853224
0.492,-0.0081,0.778,0.00989616262758094,1.1035227995206327,0.07155888964386979,0.09681506842168468
0.493,-0.0059,-1.222,0.010014727106949763,1.10127451639615,0.07276079437331633,0.09626998679416049
0.494,0.0097,-0.222,0.010037477512179963,1.0990216339387016,0.07299141841677832,0.0957237900882589
0.495,0.0155,-2.222,0.01029536814385166,1.0990216339387018,0.07560569186137353,0.09572379008825894
0.496,0.0065,-1.222,0.010316592783528223,1.0944233957028946,0.07582084900577175,0.09460897712096672
0.497,0.0018,-1.222,0.010315680127222901,1.0898057562053962,0.0758115972810093,0.09348946044390434
0.498,0.0061,0.778,0.010284438268781507,1.0829614769065306,0.075494894187323,0.09183010942230468
0.499,0.0152,-0.222,0.010093082283251396,1.0898057562053962,0.07355509176723138,0.09348946044390434
0.5,0.009,-1.222,0.010149291896151193,1.0875291157758191,0.07412489648399202,0.09293750377210985
0.501,0.0102,-0.222,0.01051490880878322,1.0875291157758191,0.0778312063231396,0.09293750377210985
0.502,0.0149,-1.222,0.010543413046388011,1.0805908505342876,0.07812015777106773,0.09125536646971005
0.503,0.0107,-0.222,0.010511188849044333,1.0852476994040827,0.0777934965703762,0.09238438920418707
0.504,-0.0016,-1.222,0.010548036594706964,1.078294754536131,0.07816702732779296,0.0906986929217934
0.505,-0.0182,-1.222,0.010470467748840166,1.0759937588396387,0.07738070107560237,0.090140831473868
0.506,-0.007,-1.222,0.010266089872888426,1.078294754536131,0.07530889392890622,0.0906986929217934
0.507,-0.0088,-1.222,0.010273168334109677,1.0829614769065306,0.07538064928147316,0.09183010942230468
0.508,-0.0033,-1.222,0.0099044335848927,1.0876081754322249,0.07164273349628641,0.09295667127184148
0.509,-0.0018,-1.222,0.00989352950434107,1.0829614769065306,0.07153219730488207,0.09183010942230468
0.51,-0.0033,-0.222,0.009876257778376227,1.096685724198202,0.0713571114002894,0.09515746395733889
0.511,-0.0098,0.778,0.009868219933987326,1.096685724198202,0.0712756306462136,0.09515746395733889
0.512,-0.0088,0.778,0.009861266662170812,1.0852476994040827,0.07120514435617223,0.09238438920418707
0.513,-0.0077,-0.222,0.009582212314487191,1.0920776505618526,0.06837633135889812,0.09404026646112476
0.514,-0.0102,-0.222,0.009545385697857041,1.0428348961611984,0.06800301478944223,0.08210168078203817
0.515,0.0035,-1.222,0.009672921666991975,1.0428348961611984,0.06929586476688777,0.08210168078203817
0.516,0.0054,0.778,0.009742272472267091,1.0500226721615342,0.06999888359086287,0.08384431034584973
0.517,-0.0,-0.222,0.009721261259444839,1.0641718043858377,0.06978588998437205,0.0872746754706391
0.518,0.0015,1.778,0.00958659539962998,1.0781352635204762,0.06842076330673552,0.09066002536189317
0.519,0.0091,-0.222,0.009814041489437807,1.0734475598010937,0.07072641616743568,0.08952352206971996
0.52,-0.0058,1.778,0.009976926766541735,1.0942662554643994,0.07237760702957766,0.09457087949170652
0.521,-0.0,1.778,0.010193340149420973,1.0942662554643994,0.0745714197952792,0.09457087949170652
0.522,0.0054,-0.222,0.01033878059838904,1.0919989144911257,0.07604576999188215,0.09402117741263737
0.523,-0.0059,-0.222,0.010461609918270779,1.0919989144911246,0.07729090800679578,0.0940211774126371
0.524,0.0017,0.778,0.010603944244090103,1.0988651512590204,0.07873377099810255,0.0956858518798584
0.525,0.0081,-0.222,0.01079199603422821,1.0356802570565267,0.08064007832683286,0.08036708504315862
0.526,-0.0082,-0.222,0.0110881756827029,1.028475847583126,0.0836424928962098,0.07862042280193608
0.527,-0.0105,-0.222,0.011261004549052774,1.0138286600137472,0.08539448331489687,0.07506930739657286
0.528,0.0032,-1.222,0.011246796246634655,1.011381007962375,0.08525045176375562,0.0744758900688145
0.529,0.0158,-1.222,0.011286984318916853,1.0113810079623755,0.0856578438798468,0.07447589006881461
0.53,0.0045,-0.222,0.011297563922738403,1.0187907217229208,0.08576509080520324,0.07627232699977966
0.531,0.0058999999999998776,0.778,0.011488252764809815,1.033367578292096,0.08769813029863673,0.07980639111136277
0.532,0.004800000000000399,0.778,0.011649289021718693,1.033367578292096,0.08933057738415098,0.07980639111136277
0.533,0.008400000000000366,-0.222,0.011979540743250307,1.0187907217229208,0.09267838532907485,0.07627232699977966
0.534,0.011699999999999268,0.778,0.012172775554717866,1.0261469320084866,0.09463723367077848,0.07805579236106007
0.535,0.005100000000000489,0.778,0.012280131683807125,1.0334507813496245,0.095725517783983,0.07982656315176054
0.536,0.009500000000000999,-1.222,0.012320558632849116,1.0334507813496245,0.0961353314272371,0.07982656315176054
0.537,0.018499999999998466,-0.222,0.012278133825807122,1.0334507813496245,0.09570526521768531,0.07982656315176054
0.538,0.004699999999999801,-1.222,0.01228791790390851,1.0334507813496245,0.09580444778742234,0.07982656315176054
0.539,0.0028999999999991003,0.778,0.012314638053812166,1.0285594463465444,0.09607531368850578,0.07864069077865438
0.54,-0.005200000000000166,1.778,0.012365229283738741,1.0285594463465444,0.09658816407034836,0.07864069077865438
0.541,-0.006700000000001011,0.778,0.01233830226076272,1.0261469320084866,0.09631520106796279,0.07805579236106007
0.542,-0.015799999999999037,-0.222,0.01206267743252342,1.0382362614880634,0.09352115358951694,0.08098677170109303
0.543,-0.007100000000001855,-0.222,0.012048000820622616,1.0382362614880634,0.09337237471957431,0.08098677170109303
0.544,-0.02379999999999815,0.778,0.01218897820576187,1.033367578292096,0.09480148221320053,0.07980639111136277
0.545,-0.007099999999998268,0.778,0.012193982667521645,1.033367578292096,0.09485221314281309,0.07980639111136277
0.546,0.008500000000000634,0.778,0.012095465700847297,1.023560738919969,0.09385353285671923,0.07742878665949601
0.547,0.014199999999998146,-1.222,0.01208038928832204,1.0161858072501668,0.09370070115186414,0.07564078242031452
0.548,-0.0025000000000012434,1.778,0.012086029220468308,1.0112109631789177,0.0937578739337668,0.0744346638165202
0.549,-0.013700000000001532,-0.222,0.01208186846681206,1.0112109631789177,0.0937156957913406,0.0744346638165202
0.55,-0.02749999999999899,-0.222,0.012015370718033594,1.013659025832412,0.09304159880057353,0.0750281806920938
0.551,-0.018399999999999844,-0.222,0.012032088641921625,1.0209679948197965,0.09321107073596699,0.0768001927077441
0.552,-0.016999999999999158,-1.222,0.011992076793337896,1.0209679948197965,0.09280546502418308,0.0768001927077441
0.5529999999999999,-0.0094,-0.222,0.01190847336357212,1.0135741980953523,0.09195796535001116,0.0750076147587057
0.5539999999999999,-0.0029,-0.222,0.011904087047765936,1.0135741980953523,0.09191350065248653,0.0750076147587057
0.5549999999999999,0.0083,0.778,0.012315190996189364,1.0208837744030796,0.09608091894280964,0.07677977401522496
0.5559999999999999,0.0039,-1.222,0.01283227182296457,1.0208837744030796,0.10132263968848072,0.07677977401522496
0.5569999999999999,0.0048,-1.222,0.013096482348649815,1.0379049437406094,0.10400097878363938,0.08090644586710741
0.5579999999999999,0.0084,0.778,0.013303759996048917,1.0379049437406094,0.10610218131954022,0.08090644586710741
0.5589999999999999,0.0115,1.778,0.013495279883079506,1.0379049437406094,0.10804364523209262,0.08090644586710741
0.5599999999999999,-0.0016,-0.222,0.01351329439823525,1.0330346990482742,0.10822626089472309,0.07972568670273401
0.5609999999999999,0.0001,0.778,0.01381502499799889,1.0402901906869437,0.11128494623459247,0.08148473348284269
0.5619999999999999,-0.0111,1.778,0.013883491422248907,1.0379049437406094,0.11197899996427997,0.08090644586710741
0.563,-0.0068,-0.22200000000011103,0.013868548978473536,1.0594223173250392,0.11182752631940156,0.08612319320899083
0.564,-0.0159,-1.222,0.013852605425805516,1.0594223173250392,0.11166590429349729,0.08612319320899083
0.565,-0.0123,-1.221999999999667,0.013815322792815918,1.0594223173250392,0.11128796502235164,0.08612319320899083
0.566,-0.0,1.778,0.013926482295132882,1.0522987480010781,0.11241480446253571,0.08439613013646105
0.567,-0.0015,1.777999999999889,0.014004368747275623,1.049940782352203,0.11320435033401861,0.08382445669394002
0.568,0.0213,0.777999999999667,0.014011295057939221,1.049940782352203,0.11327456331507761,0.08382445669394002
0.569,0.018,-2.221999999999889,0.01401119193068914,1.035597233121929,0.11327351789970308,0.08034695642995099
0.57,0.0209,-1.221999999999889,0.014002310131570005,1.049940782352203,0.11318348185835148,0.08382445669394002
0.571,0.0184,-0.22199999999988898,0.014044281636635401,1.0428348961611875,0.1136089528822925,0.08210168078203553
0.572,0.0162,0.777999999999778,0.014045187246936647,1.0356802570565269,0.11361813318072503,0.08036708504315868
0.573,0.0183,-1.221999999999778,0.014038927564491524,1.0356802570565269,0.11355467790326185,0.08036708504315868
0.574,0.0201,0.777999999999778,0.014050422076449052,1.0500226721615273,0.11367119938050342,0.08384431034584806
0.575,0.0255,-1.221999999999889,0.01417455926483789,1.0548144836210174,0.11492959544160881,0.08500605388280973
0.576,0.0208,-0.222,0.014152123217388976,1.0619211770458263,0.11470215808699392,0.08672902550329967
0.577,0.007,-0.222,0.014220949370498177,1.064252599177786,0.11539985843849833,0.08729426364270297
0.578,-0.0097,0.778,0.014607716450646612,1.064252599177786,0.1193205704873286,0.08729426364270297
0.579,-0.0075,-1.222,0.015342035690437133,1.0712164210146868,0.12676446744471614,0.08898259697550756
0.58,-0.0211,1.778,0.015580309201408996,1.0664983065378377,0.1291798793898743,0.08783872079288578
0.581,-0.0193,1.778,0.01578290785382743,1.0804316984634597,0.1312336502984762,0.09121678108477962
0.582,-0.0304,-0.222,0.015780814729783915,1.0804316984634597,0.1312124320069557,0.09121678108477962
0.583,-0.0228,-1.222,0.015776022391654106,1.0919201727429146,0.1311638514042829,0.09400208698768082
0.584,-0.0162,-1.222,0.015813953842453373,1.1541740328200243,0.1315483678324164,0.10909513065330015
0.585,-0.01,-1.222,0.015969063226201084,1.1541740328200243,0.13312073337478084,0.10909513065330015
0.586,-0.0024,-0.222,0.01597625388133451,1.1649354946237662,0.13319362605274554,0.11170417710774633
0.587,0.0107,-0.222,0.01595552423168134,1.171300871863912,0.1329834866915258,0.11324742143853417
0.588,0.009,0.778,0.015888882021215203,1.1840015834557491,0.13230792527240245,0.11632662639711183
0.589,0.017,0.778,0.016022746406842647,1.1797346171161895,0.13366492729397408,0.1152921281474783
0.59,0.0126,-0.222,0.016137107329130655,1.1797346171161895,0.134824219976686,0.1152921281474783
0.591,-0.0044,1.778,0.016263495693117167,1.1669874676386722,0.1361054365200477,0.1122016646254085
0.592,-0.0055,0.778,0.016676642947981758,1.1713008718639122,0.1402935680938804,0.11324742143853422
0.593,-0.0194,0.778,0.01688660400789599,1.1713008718639122,0.1424219727581941,0.11324742143853422
0.5940000000000001,-0.010299999999997513,-0.222,0.016958034861657725,1.1713008718639122,0.14314607732493848,0.11324742143853422
0.595,0.0009,1.778,0.01682295160423217,1.1755984498257046,0.14177671942927592,0.11428934127697307
0.5960000000000001,0.0023999999999985565,-0.222,0.016808605847373755,1.1734882643786086,0.14163129448322623,0.11377774053356335
0.597,-0.0041,0.778,0.016788573886898268,1.1713742775202292,0.14142822769489513,0.11326521816270078
0.5980000000000001,-0.00520000000000071,0.778,0.016737186032282077,1.1777048542953708,0.14090730181702593,0.11480002534698493
0.599,-0.0084,0.778,0.01675590591767123,1.1713742775202292,0.14109706791648247,0.11326521816270078
0.6000000000000001,-0.010999999999996936,1.778,0.01670950548890472,1.1840742017426946,0.1406267002728197,0.11634423222869293
0.601,0.0028,-0.222,0.01657639834590282,1.1966393493568397,0.1392773745257767,0.11939057058217561
0.6020000000000001,0.004700000000001221,-0.222,0.016486350959653905,1.1987087807417784,0.13836455156241514,0.119892290768156
0.603,0.0102,-0.222,0.016581982297997074,1.204895749358542,0.13933397983005347,0.12139228108803277
0.6040000000000001,0.03160000000000196,1.778,0.01670620999113865,1.2069510244498585,0.1405932933505104,0.12189056917265399
0.605,0.0404,-1.222,0.016717540096231286,1.2192804405128148,0.14070814821234134,0.1248797559440332
0.6060000000000001,0.027099999999999534,-2.222,0.016699634221199283,1.2172459833652536,0.14052663384985764,0.12438651503453876
0.607,0.025,-1.222,0.016810859123839512,1.2172459833652536,0.14165413626227644,0.12438651503453876
0.6080000000000001,0.022899999999993318,-1.222,0.01685574485365628,1.2537040188267254,0.14210914919058873,0.13322552871981255
0.609,-0.0072,0.778,0.01684226500148951,1.2577200601189924,0.14197250204164724,0.1341991918229846
0.6100000000000001,-0.028899999999997334,-1.222,0.01680550348454341,1.2457711396677804,0.1415998453968042,0.1313022537390847
0.611,-0.0169,-0.222,0.01682519675039007,1.2477590877358662,0.1417994787902569,0.13178421882461414
0.6120000000000001,-0.005999999999997802,-2.222,0.01682689849544114,1.2477590877358662,0.14181672961812777,0.13178421882461414
0.613,0.0039,-0.222,0.016828836455060947,1.2477590877358662,0.1418363749861581,0.13178421882461414
0.6140000000000001,0.0009999999999958033,-0.222,0.016818498874679483,1.2497438736099973,0.14173158148630335,0.13226541725677657
0.615,-0.0179,-0.222,0.016744196110825834,1.2556794078985933,0.14097836396481575,0.13370444895835457
0.6160000000000001,-0.01569999999999749,-0.222,0.01678216819081008,1.2615870169018908,0.14136329225668653,0.13513671035605315
0.617,-0.0044,-0.222,0.016883773196741385,1.251656819027137,0.1423932764291333,0.13272919843717368
0.6179999999999999,0.0014,-0.222,0.016884067273999236,1.2457021180130883,0.14239625753147453,0.13128551988761183
0.619,-0.0076,1.778,0.016949914852758742,1.2437108820879628,0.14306376365771883,0.13080275768251734
0.6199999999999999,-0.0123,-1.222,0.01693184791638827,1.225433712617237,0.14288061659389434,0.12637157676355262
0.621,0.0016,-1.222,0.017087911961718206,1.2496062653540072,0.144462659674395,0.13223205502969804
0.6219999999999999,0.0034,-0.222,0.017317794217485166,1.2496062653540072,0.14679300829054895,0.13223205502969804
0.623,0.0082,1.778,0.017377984096903186,1.2595526297103563,0.14740316152634478,0.13464348640694263
0.6239999999999999,0.0188,-1.222,0.01731271021912653,1.255542450181132,0.14674147108729657,0.13367124445011322
0.625,-0.0014,-1.222,0.01720185845400491,1.2595526297103596,0.1456177512221528,0.13464348640694343
0.6259999999999999,-0.0162,0.778,0.017041274193945823,1.2555424501811345,0.14398988609199612,0.1336712444501138
0.627,-0.035,-0.222,0.016915231100101485,1.2555424501811345,0.1427121696004124,0.1336712444501138
0.6279999999999999,-0.047,1.778,0.016902187102050072,1.2555424501811345,0.1425799407656691,0.1336712444501138
0.629,-0.0314,0.778,0.016959667665759487,1.259552629710361,0.14316262928875273,0.13464348640694376
0.6299999999999999,-0.0256,1.778,0.01701016286430969,1.259552629710361,0.14367450618708613,0.13464348640694376
0.631,-0.0053,0.778,0.017051256763858467,1.24762126056497,0.14409108080101782,0.13175080352303975
0.6319999999999999,-0.0028,1.778,0.016967099442325943,1.2416472059401107,0.14323796624844726,0.13030243281635406
0.633,0.0138,3.778,0.016741489859684832,1.2416472059401107,0.14095093031805447,0.13030243281635406
0.6339999999999999,0.0251,0.778,0.016586761689546436,1.2375790080699673,0.13938242919142743,0.1293161246899439
0.635,0.007,1.778,0.016507460880024322,1.2314864229108353,0.13857854578114334,0.12783901702578648
0.6359999999999999,0.0049,1.778,0.01647809062920573,1.2314864229108353,0.1382808154360027,0.12783901702578648
0.637,0.0114,1.778,0.016480938485165346,1.2314864229108353,0.1383096845506386,0.12783901702578648
0.6379999999999999,0.0212,0.778,0.016593956125725236,1.2314864229108353,0.13945536019837854,0.12783901702578648
0.639,0.0194,0.778,0.01691469332883079,1.2294721636602615,0.1427067181377395,0.12735067296511082
0.6399999999999999,0.0209,-0.222,0.016930422281760924,1.233567097493641,0.14286616473605132,0.12834346305199806
0.641,0.0375,-1.222,0.01711896346501304,1.2537040188267408,0.14477743311130598,0.13322552871981627
0.6419999999999999,0.0309,-0.222,0.017131960059706453,1.2477590877358837,0.14490918141157152,0.13178421882461838
0.643,0.0171,-0.222,0.01713042629059461,1.2872741381051385,0.14489363337931757,0.14136438590074163
0.6439999999999999,-0.0105,-1.222,0.017021861967525944,1.2969316540329316,0.1437931016345655,0.14370578785427593
0.645,0.0015,-0.222,0.01699687936407303,1.3027181992412298,0.14353984948515455,0.14510869812190827
0.6459999999999999,-0.0022,-0.222,0.017033538457760226,1.291185768755895,0.14391146785108017,0.1423127353226492
0.647,-0.0054,1.778,0.01728382625197596,1.291185768755895,0.14644867026779093,0.1423127353226492
0.6479999999999999,-0.0083,-1.222,0.01749180628640287,1.2892647830602804,0.14855699299934497,0.14184700482900547
0.649,-0.0057,1.778,0.01748600080331853,1.2931703923470066,0.14849814200440167,0.14279389441034857
0.6499999999999999,-0.0177,1.778,0.017465926925239423,1.2970642414492601,0.14829465029145314,0.14373793281141883
0.651,-0.0064,0.778,0.017434928337485334,1.287407720129122,0.14798041326678824,0.14139677199404457
0.6519999999999999,-0.0246,1.778,0.017443339480730968,1.2893314726812282,0.1480656782036462,0.14186317329405745
0.653,-0.0224,0.778,0.01744701592667143,1.2912523591632363,0.1481029468509419,0.14232887973400732
0.6539999999999999,-0.0068,1.778,0.01746132444599189,1.2912523591632363,0.1482479943148551,0.14232887973400732
0.655,0.003,-0.222,0.01717523280407283,1.2796165979886562,0.1453478432805137,0.13950786508088978
0.6559999999999999,0.0197,-1.222,0.01672333990980649,1.2756694928721244,0.1407669417346767,0.13855091510537315
0.657,0.0132,-3.222,0.016600208386486584,1.255884816470517,0.13951874024119407,0.1337542489312638
0.6579999999999999,-0.005,-1.222,0.016493643578747965,1.2617914637673,0.1384384778633264,0.13518627716947001
0.659,-0.0029,-0.222,0.016384788381313246,1.2577884222843627,0.1373349974843957,0.13421576578555866
0.6599999999999999,0.0083,0.778,0.016374313324567458,1.255816350679631,0.13722881036738557,0.1337376498453571
0.661,0.0024,0.778,0.016128351429532783,1.2498126720563312,0.13473546019641064,0.13228209699283403
0.6619999999999999,0.0114,1.778,0.016088184317801384,1.2498126720563312,0.13432828056035792,0.13228209699283403
0.663,0.0034,0.778,0.016216214495866913,1.2316260556790066,0.1356261404029349,0.12787287008268206
0.6639999999999999,0.0019,1.778,0.016217794624608557,1.2316260556790066,0.1356421583892477,0.12787287008268206
0.665,0.0167,1.778,0.016355534496822297,1.2316260556790066,0.1370384467610127,0.12787287008268206
0.6659999999999999,0.0185,0.778,0.016323602081081835,1.2316260556790066,0.13671474339128992,0.12787287008268206
0.667,-0.0018,-1.222,0.016298257314209526,1.2336367980997114,0.13645781994058434,0.12836036151081873
0.6679999999999999,-0.026,-0.222,0.016308672076582445,1.2397188153074987,0.13656339584509394,0.12983490704387451
0.669,-0.0162,0.778,0.016331292258027742,1.2457711396677753,0.1367926997918137,0.13130225373908344
0.6699999999999999,-0.0311,2.778,0.01631456268881685,1.2397881700654778,0.13662310980615172,0.1298517216540738
0.671,-0.0336,-0.222,0.016270667404717033,1.2337064947679357,0.1361781371647601,0.12837725901493421
0.6719999999999999,-0.0217,1.778,0.016311863654386756,1.2275946903725459,0.13659574931619944,0.1268954917718896
0.673,-0.0104,0.778,0.016310573658699572,1.2275946903725459,0.13658267244928582,0.1268954917718896
0.6739999999999999,-0.0046,-1.222,0.01636350128987031,1.2153496232090195,0.1371192072576969,0.12392675484282809
0.675,-0.01,0.778,0.016410115785650638,1.209145034821128,0.13759174492865364,0.12242249272398678
0.6759999999999999,-0.0021,-0.222,0.016535770147761617,1.209145034821128,0.13886552079222383,0.12242249272398678
0.677,0.0022,-0.222,0.016606513750895717,1.2194214709569726,0.13958265860312308,0.12491394785838549
0.6779999999999999,0.017,-1.222,0.01623460979843429,1.2316260556790066,0.13581261616087717,0.12787287008268206
0.679,0.0151,-1.222,0.015550832998173853,1.2255740349862942,0.12888107499025106,0.12640559700969994
0.6799999999999999,0.0242,-0.222,0.01523068083936874,1.2357138519215793,0.12563564772688493,0.1288639297070794
0.681,0.0093,-1.222,0.015014392097067111,1.2255740349862942,0.1234430984601715,0.12640559700969994
0.6819999999999999,-0.0128,-0.222,0.01502961289074842,1.2255740349862942,0.1235973937770226,0.12640559700969994
0.683,0.0021,0.778,0.015062905698199989,1.2337761874989581,0.12393488762801079,0.1283941555645007
0.6839999999999999,-0.0004,-0.222,0.015025955006378438,1.1821246287291634,0.12356031329096594,0.1158715709256654
0.685,0.0018,-1.222,0.01481548284505414,1.2010610359399811,0.12142672752009105,0.12046257974903492
0.6859999999999999,0.0039,-0.222,0.014839823218887946,1.194854211298759,0.12167346929792439,0.11895777546511142
0.687,0.0221,-0.222,0.014831777324203613,1.1822700914181237,0.12159190693687656,0.11590683740895619
0.688,0.034,-0.22200000000011103,0.014849479383833108,1.171667854156432,0.1217713551940856,0.11333639390961715
0.6890000000000001,0.0185,-1.222000000000111,0.014697661852338742,1.171667854156432,0.12023235961895759,0.11333639390961715
0.69,0.0283,-2.221999999999889,0.014652467547052801,1.1822700914181237,0.11977421861790574,0.11590683740895619
0.6910000000000001,0.008,-1.222000000000222,0.0146598289594884,1.194854211298759,0.11984884228655297,0.11895777546511142
0.692,-0.005,-3.221999999999445,0.014423487476344976,1.2010610359399811,0.11745301557802543,0.12046257974903492
0.6930000000000001,-0.0024,1.777999999999667,0.014099083793130504,1.2318354751540734,0.11416449001639858,0.12792364247298363
0.694,-0.0046,-1.221999999999889,0.014078392874518397,1.2439182670274695,0.11395474327716545,0.13085303681289884
0.6950000000000001,-0.0112,-0.222,0.014096425027600596,1.2498814667157299,0.11413753773792615,0.13229877581077368
0.696,-0.0294,-0.222,0.014107539242751686,1.2617914637672998,0.1142502040931895,0.13518627716946996
0.6970000000000001,-0.0272,-0.22200000000011103,0.014116167584051409,1.2677384152252171,0.11433767079713508,0.13662807688952727
0.698,-0.0026,-1.222,0.01411042186249045,1.26185960536143,0.11427942561312245,0.13520279765598078
0.6990000000000001,0.0007,-1.221999999999778,0.014087116364571642,1.26185960536143,0.11404317451734876,0.13520279765598078
0.7,0.0036,0.778,0.014078745228358775,1.2698274013620048,0.11395831513738397,0.13713453799796868
0.7010000000000001,0.0061,0.778,0.013967774502531363,1.2991060719811836,0.11283338935090804,0.14423296135001776
0.702,-0.0059,0.777999999999889,0.013955494041261628,1.3163607258132317,0.11270890059543548,0.14841623999972203
0.7030000000000001,-0.0124,-0.222,0.01378405497174845,1.304948866150309,0.11097099874188938,0.14564950881253025
0.704,-0.0027,-0.222,0.013704050686473417,1.304948866150309,0.11015998409939318,0.14564950881253025
0.7050000000000001,0.01,0.778,0.01368859798648163,1.2953511240851636,0.11000333791579994,0.14332259864340718
0.706,0.018,-0.222,0.013748784775459816,1.314541942074172,0.11061345982337442,0.1479752877060338
0.7070000000000001,0.0165,1.778,0.013607124485030838,1.314541942074172,0.10917742962320191,0.1479752877060338
0.708,0.0129,0.778,0.01356961356472677,1.2739276051907256,0.10879717617158338,0.13812860576096636
0.7090000000000001,0.0042,-0.222,0.01357892808806615,1.2797509793166084,0.10889159879894814,0.13954044496024368
0.71,-0.006,-0.222,0.013602372387622744,1.2797509793166084,0.1091292569463599,0.13954044496024368
0.7110000000000001,-0.0125,-0.222,0.013578522452906102,1.2778128033728329,0.10888748681853135,0.13907054680268646
0.712,-0.0212,0.778,0.013577480872426512,1.2778128033728329,0.10887692817136163,0.13907054680268646
0.7130000000000001,-0.0045,-0.222,0.013538834742666673,1.2856817359169477,0.10848516694253131,0.14097831834236338
0.714,-0.0212,-0.222,0.013653813073137802,1.2837525141054782,0.10965071837844861,0.1405105910559733
0.7150000000000001,-0.0147,-0.222,0.01374833600076453,1.2739950976647656,0.1106089105314483,0.13814496887253125
0.716,-0.0128,0.778,0.01385959526978575,1.262200258151334,0.11173676132068332,0.13528538671032167
0.7170000000000001,-0.0073,-1.222,0.013923665457289708,1.2661893517482816,0.11238624978288952,0.1362525165199495
0.718,-0.0087,-1.222,0.014090669723041101,1.289598196677498,0.11407919540971548,0.14192783879299012
0.7190000000000001,0.0018000000000002441,-1.222,0.013888409014623829,1.301144698360031,0.1120288502867743,0.14472721306253353
0.72,0.0029,-0.222,0.014004310564808137,1.2992384374979582,0.11320376053019866,0.14426505250905639
0.7210000000000001,0.011699999999996803,-0.222,0.013901805943717404,1.2700982212716048,0.11216465683291144,0.13720019652446083
0.722,-0.0027,-0.222,0.01365829323538103,1.270098221271605,0.10969613441044647,0.1372001965244609
0.7230000000000001,0.015500000000001554,-0.222,0.013727540887672177,1.258266853445935,0.11039810755817897,0.1343317583104183
0.724,0.0225,-0.222,0.013698717929933851,1.268145292574559,0.11010592519962818,0.1367267216577804
0.7250000000000001,0.020400000000000425,-1.222,0.014240970516443954,1.262200258151334,0.1156028155984274,0.13528538671032167
0.726,0.0223,1.778,0.015347783257144804,1.2661893517482816,0.12682273133323935,0.1362525165199495
0.7270000000000001,0.0019999999999982237,1.778,0.01621288829077442,1.272115743901652,0.1355924221961578,0.13768933177027468
0.728,-0.006,-1.222,0.016415339134075137,1.2780146545654996,0.13764469474303628,0.13911948431212126
0.7290000000000001,0.0008999999999995337,1.778,0.016368246859618917,1.2721157439016522,0.13716731376274066,0.13768933177027473
0.73,-0.0012,0.778,0.0163758182792071,1.2681452925745593,0.13724406630330008,0.13672672165778046
0.7310000000000001,0.008600000000000399,0.778,0.016432865242143952,1.2681452925745593,0.13782235935463696,0.13672672165778046
0.732,0.0104,-2.222,0.016434589429387445,1.2739950976647656,0.13783983768215494,0.13814496887253125
0.7330000000000001,0.008899999999998312,-1.222,0.01638464082143721,1.2759390727899729,0.13733350164927013,0.13861627300392632
0.734,0.0013,-2.222,0.01638624365076632,1.279885346535218,0.13734974975461678,0.13957302141887917
0.7350000000000001,-0.010999999999997491,-1.222,0.016396122018179454,1.279885346535218,0.1374498881483099,0.13957302141887917
0.736,0.0003,-0.222,0.01639910252439916,1.275939072789973,0.13748010195720684,0.13861627300392637
0.7370000000000001,-0.01349999999999718,0.778,0.016462091780369798,1.287608067180653,0.13811863286510143,0.14144534483423934
0.738,-0.0008,0.778,0.016321443808464908,1.29917225642532,0.1366928646795583,0.144249007338236
0.7390000000000001,-0.015600000000001286,1.778,0.015998676214310795,1.3106344147251048,0.13342092438183098,0.14702793310294537
0.74,-0.0214,1.778,0.016041674734042624,1.3162954056201277,0.1338568063972542,0.14840040354354814
0.7410000000000001,-0.026799999999995248,1.778,0.0158320230933204,1.2990398841650332,0.1317315383586166,0.1442169145442767
0.742,-0.0054,2.778,0.015831571747166442,1.299039884165031,0.1317269629994538,0.14421691454427618
0.7430000000000001,0.015299999999999422,1.778,0.0158387170006674,1.257925135469665,0.13179939543471278,0.13424891100856778
0.744,0.0127,1.778,0.01586473328820925,1.252000247864011,0.13206312618447572,0.13281246052605541
0.7450000000000001,0.005799999999997513,1.778,0.015869756761921067,1.245978181690927,0.13211404984090827,0.13135244973162394
0.746,-0.0054,-1.222,0.015854066567702094,1.2579251354696708,0.13195499614507872,0.13424891100856917
0.7469999999999999,-0.0036,-1.222,0.015653986715800428,1.2598939062653927,0.12992675867001235,0.13472622668908474
0.748,-0.0018,-1.222,0.015559575280254135,1.2658497724636952,0.12896969672784384,0.13617018772999406
0.7489999999999999,0.003,-2.222,0.015580082469118288,1.2658497724636952,0.12917758097289506,0.13617018772999406
0.75,0.0015,-3.222,0.015610062752168892,1.2598939062653947,0.12948149530019182,0.13472622668908524
0.7509999999999999,0.0026,-2.222,0.015608425291183664,1.2598939062653947,0.12946489612889778,0.13472622668908524
0.752,0.0114,-0.222,0.015619693252270255,1.2598939062653947,0.1295791210282377,0.13472622668908524
0.7529999999999999,0.0168,0.778,0.015617169852429603,1.277678218194955,0.12955354097071198,0.13903791750124334
0.754,0.002,0.778,0.015603835011466347,1.2835515652483755,0.12941836382064578,0.14046187231192994
0.7549999999999999,0.0132,-2.222,0.015676282908563183,1.28939815885291,0.1301527782980904,0.14187934092285734
0.756,-0.0006,-1.222,0.01566237901709638,1.293303365362015,0.13001183260338806,0.14282613285338464
0.7569999999999999,0.0085,-0.222,0.015560209353201288,1.299106071981204,0.12897612441409567,0.14423296135002273
0.758,0.0071,1.778,0.015480919499976835,1.299106071981204,0.1281723520693351,0.14423296135002273
0.7589999999999999,0.0085,-0.222,0.015482598242181775,1.3086762758057142,0.1281893697141338,0.1465531950517289
0.76,0.002,-0.222,0.015551325839021113,1.3086762758057142,0.12888607098693014,0.1465531950517289
0.7609999999999999,-0.0017,0.778,0.015539780202587391,1.3105688091264014,0.12876903125371467,0.14701202745203934
0.762,-0.005,-2.222,0.015491098628281139,1.3162954056201495,0.12827553931829633,0.1484004035435534
0.7629999999999999,-0.018,-0.222,0.015360315871678566,1.3162954056201495,0.12694977620165734,0.1484004035435534
0.764,-0.0162,0.778,0.01535418085683893,1.3162954056201495,0.12688758469716765,0.1484004035435534
0.7649999999999999,-0.0242,-0.222,0.015207061009201236,1.3162954056201495,0.1253962102010916,0.1484004035435534
0.766,-0.0228,-1.222,0.015148922556655654,1.316295405620149,0.12480685256675435,0.14840040354355333
0.7669999999999999,-0.0217,2.778,0.015303695934532438,1.3257415296561337,0.12637581197055567,0.15069055490716965
0.768,-0.0105,1.778,0.015299663989605689,1.3200559124723712,0.12633493958025693,0.14931211398295657
0.7689999999999999,-0.0242,-0.222,0.01541176056606535,1.3256766716843522,0.12747127827224009,0.15067483051355055
0.77,-0.0261,-0.222,0.015501962651524684,1.3218671094496077,0.12838566944315957,0.149751226915562
0.7709999999999999,-0.0214,-0.222,0.015552891843304837,1.3218671094496077,0.12890194579163525,0.149751226915562
0.772,-0.0257,-0.222,0.015600722368877365,1.3218671094496082,0.12938681052687107,0.1497512269155621
0.7729999999999999,-0.0054,1.778,0.015609931848794598,1.3406784244732612,0.12948016831435674,0.1543119079513733
0.774,0.0392,-0.222,0.015535192750517035,1.3793286816612123,0.12872252760971586,0.1636824115426784
0.7749999999999999,0.0581,-1.222,0.015381682513531697,1.3973666644287397,0.12716637284200344,0.16805560320039675
0.776,0.0523,-1.222,0.015303730764862905,1.429237411230248,0.12637616505049276,0.17578245857185879
0.7769999999999999,0.0258,-1.222,0.015275875676469075,1.4553125213055549,0.12609379411901375,0.18210419949627651
0.778,0.0116,-0.222,0.015336739671837811,1.4622265557278067,0.12671078096259564,0.18378046219406563
0.7789999999999999,0.0159,0.778,0.01534581921061978,1.4622265557278067,0.12680282151859804,0.18378046219406563
0.78,0.0278,-0.222,0.015345887380225975,1.4571326207592645,0.12680351256344155,0.1825454707764282
0.7809999999999999,0.0096,1.778,0.01539467059023868,1.460589421187282,0.1272980347942478,0.18338354956766742
0.782,-0.0002,0.778,0.015371604494441344,1.4588915136794507,0.12706421055130193,0.18297190293042853
0.7829999999999999,-0.0031,-1.222,0.01533758731879052,1.4433417732750469,0.12671937367844766,0.17920196945767658
0.784,-0.0057,-0.222,0.015367666049420617,1.4433417732750469,0.12702428598264295,0.17920196945767658
0.7849999999999999,-0.0036,0.778,0.015367239571506224,1.4276226743350633,0.12701996271630683,0.175390976108967
0.786,-0.0149,1.778,0.015335281327963806,1.422344370704183,0.1266959975265391,0.17411128570771964
0.7869999999999999,-0.0052,1.778,0.015368510197066644,1.427622674335063,0.12703284322553318,0.17539097610896695
0.788,-0.0106,1.778,0.015309087827315408,1.4363368368436,0.12643047034270066,0.1775036681587088
0.7889999999999999,-0.0219,1.778,0.015319878459154859,1.4449984489514716,0.12653985648862395,0.17960361970543756
0.79,-0.0115,0.778,0.015241774011035481,1.4363368368436,0.12574810076140083,0.1775036681587088
0.7909999999999999,-0.0079,-1.222,0.01512247725059748,1.427622674335063,0.12453877279621778,0.17539097610896695
0.792,-0.0069,-0.222,0.01492004587676214,1.418854993181938,0.12248669761403606,0.1732653088117675
0.7929999999999999,0.0094,-1.222,0.014945065759653512,1.3939998115067147,0.12274032767033476,0.16723933159723994
0.794,0.0061,-0.222,0.014868214957259563,1.3850193016281311,0.12196128032537304,0.16506206535914486
0.7949999999999999,-0.0087,1.778,0.014820437099064195,1.3759801805564627,0.1214769494867143,0.16287058921831554
0.796,-0.0153,0.778,0.014824730374355739,1.3668812855130892,0.12152047101951395,0.16066462126663475
0.7969999999999999,-0.0211,-1.222,0.015022752866160805,1.3668812855130892,0.12352785274719758,0.16066462126663475
0.798,-0.0084,-1.222,0.015040823418438808,1.3631868785615844,0.12371103646598303,0.1597689363184474
0.7989999999999999,0.0097,-0.222,0.015040706731622715,1.3594824320597294,0.12370985359538915,0.15887081734654437
0.8,0.0028,0.778,0.0150594967701409,1.3427820034815325,0.12390033084693794,0.1548219070066382
0.8009999999999999,-0.0085,0.778,0.015059026721581903,1.3030481705097166,0.12389556589887647,0.1451886975108217
0.802,0.0052,-2.222,0.015154656333179013,1.2895315208504987,0.1248649766622482,0.14191167367219124
0.8029999999999999,0.0106,-1.222,0.015111872859384918,1.2895315208504987,0.12443127459760778,0.14191167367219124
0.804,0.0153,-1.222,0.015029860215546195,1.2934363247065699,0.12359990094312949,0.14285836798210813
0.8049999999999999,-0.0075,-1.222,0.015049259155794019,1.2915186864587593,0.1237965507167736,0.1423934490554228
0.806,0.0022,-1.222,0.014991786355429842,1.2778800906463952,0.12321394089180772,0.13908686016472954
0.8069999999999999,0.0051,1.778,0.01516113069931327,1.2719805559318584,0.1249306082183294,0.1376565563258503
0.808,0.0131,1.778,0.015138511695381598,1.2778800906463952,0.12470131620823016,0.13908686016472954
0.8089999999999999,0.0152,-0.222,0.01516550332696687,1.2661214431775012,0.12497493415713459,0.1362360525284349
0.81,-0.0004,0.778,0.015148969458129704,1.2720481517126614,0.1248073280135642,0.13767294448346828
0.8109999999999999,-0.0023,-1.222,0.015186858821438446,1.2720481517126614,0.1251914177949129,0.13767294448346828
0.812,0.0068,0.778,0.015213172896952058,1.2720481517126614,0.1254581672630436,0.13767294448346828
0.813,-0.0012,-0.222,0.015222475564309956,1.2541840080588011,0.12555246970466394,0.1333418989887368
0.8140000000000001,0.0002,-0.222,0.015115778850076698,1.2561586423174103,0.12447087017218979,0.13382063622771123
0.815,-0.0063,-0.22199999999977796,0.01503012370723355,1.2541840080588011,0.12360257199525983,0.1333418989887368
0.8160000000000001,-0.0252,1.777999999999778,0.014834273454560894,1.2561586423174103,0.12161721055983095,0.13382063622771123
0.817,-0.0064,-0.22199999999977796,0.014659428691069969,1.2501566074964368,0.11984478470954744,0.13236548190437586
0.8180000000000001,0.0205,1.777999999999889,0.014617891841373637,1.2198444644593665,0.11942371984794556,0.1250164998831755
0.819,0.0168,0.777999999999889,0.014584071568316353,1.2137336988307268,0.11908087900425347,0.12353498448237651
0.8200000000000001,-0.0129,-0.222,0.014497829028829302,1.2157740333941984,0.11820662630529358,0.12402965033314957
0.821,-0.0169,-0.22200000000022205,0.01443408983790055,1.2157740333941984,0.1175604932017183,0.12402965033314957
0.8220000000000001,-0.006,-2.222000000000111,0.014282545240214222,1.2178109495623195,0.11602426439482012,0.12452348741619274
0.823,-0.0027,-3.221999999999889,0.01404936043287235,1.2178109495623195,0.11366043735090892,0.12452348741619274
0.8240000000000001,-0.0056,-2.222000000000111,0.014045836999305932,1.207520807388261,0.11362471981147458,0.12202870934193158
0.825,0.0133,-3.222,0.013515949227552214,1.207520807388261,0.10825317327125372,0.12202870934193158
0.8260000000000001,0.0203,-3.221999999999889,0.012212781731077954,1.203337241787255,0.09504278188243712,0.12101443105917518
0.827,0.0138,-2.221999999999889,0.011067708394453328,1.1970703931141389,0.08343501312927569,0.11949507433893305
0.8280000000000001,0.008,-1.222,0.010775017195316289,1.1970703931141389,0.0804679614593074,0.11949507433893305
0.829,-0.001,-1.222,0.010718479602885574,1.203337241787255,0.07989483196811625,0.12101443105917518
0.8300000000000001,-0.0123,-1.221999999999889,0.010609116784477596,1.203337241787255,0.07878620576429962,0.12101443105917518
0.831,-0.0017,-0.22199999999988898,0.010259826486377216,1.203337241787255,0.07524540110280645,0.12101443105917518
0.8320000000000001,0.0019,0.777999999999778,0.010224791741900687,1.1908427689143508,0.07489024899228013,0.11798522733725243
0.833,0.0131,-1.222,0.010228348797076223,1.1908427689143508,0.07492630735867399,0.11798522733725243
0.8340000000000001,-0.0006,0.778,0.010227185941011298,1.1866004034518776,0.07491451932391402,0.11695669341033907
0.835,0.0048,-0.222,0.01026711609576364,1.1886873121517025,0.07531929689388993,0.11746265085769422
0.8360000000000001,-0.0101,-1.222,0.01026548207996131,1.1886873121517025,0.07530273264689735,0.11746265085769422
0.837,-0.0003,1.778,0.010159290430048014,1.1760372055653163,0.0742262530221567,0.11439571475370686
0.8380000000000001,-0.0058,1.778,0.010146259161064283,1.1696976032629274,0.0740941532237549,0.11285871938901622
0.839,0.0022,0.778,0.010090930248684548,1.1782887798353658,0.07353327629148691,0.11494159429807807
0.8400000000000001,0.0098,0.778,0.009867338577567547,1.1676503929206012,0.07126669621277368,0.11236238655035909
0.841,-0.0105,0.778,0.009885950757210901,1.171961357251626,0.0714553704840035,0.11340755182699402
0.8420000000000001,0.0102,0.778,0.009867509263773683,1.1655258175988013,0.07126842648274576,0.11184729707537543
0.843,0.0022,0.778,0.009844956008368563,1.1655258175988015,0.07103980097466667,0.11184729707537548
0.8440000000000001,0.0043999999999975135,0.778,0.00988580773430081,1.1611909613349198,0.07145392064073701,0.11079633935493999
0.845,-0.0068,0.778,0.009905237578785033,1.1633234534230776,0.07165088369495289,0.11131334819846049
0.8460000000000001,-0.02489999999999629,-1.222,0.009871157875695851,1.152546939905666,0.07130541297270053,0.10870065255388574
0.847,-0.0082,0.778,0.009787000049273563,1.1633234534230774,0.07045229330199174,0.11131334819846044
0.8480000000000001,-0.001699999999997824,0.778,0.009561455883428606,1.1696976032629274,0.06816592051082161,0.11285871938901622
0.849,0.0081,0.778,0.009726144248472013,1.1696976032629274,0.0698353895278849,0.11285871938901622
0.8500000000000001,-0.000899999999995981,-0.222,0.009677887304465683,1.176110315608513,0.06934620212927607,0.11441343980839418
0.851,0.0172,-1.222,0.009675726237488795,1.1951420202996441,0.06932429509072624,0.11902755288634019
0.8520000000000001,0.0005999999999985567,-0.222,0.009651207815398776,1.19935417266517,0.06907574841278832,0.1200487618443129
0.853,-0.0059,-1.222,0.009664036937868476,1.1846549877865853,0.06920579902367167,0.11648504002936531
0.8540000000000001,0.00789999999999798,-0.222,0.00960679659357455,1.1846549877865853,0.06862554563843976,0.11648504002936531
0.855,-0.0012,-1.222,0.00948963988070467,1.1803903834258376,0.06743791163511662,0.11545111442613959
0.8560000000000001,-0.0225999999999954,-0.222,0.009493639806687307,1.1803903834258376,0.0674784594448954,0.11545111442613959
0.857,-0.0019,-1.222,0.009508838321121574,1.176110315608513,0.06763252891389954,0.11441343980839418
0.8580000000000001,0.01149999999999849,-0.222,0.009503621780830874,1.1654520435790037,0.06757964811452254,0.11182941104387771
0.859,0.0047,-1.222,0.00945313877354708,1.1590545457775638,0.06706789480076379,0.11027837929181872
0.8600000000000001,-0.010899999999999601,-0.222,0.009357996532306147,1.1655258175988013,0.06610342457893705,0.11184729707537543
0.861,-0.0091,0.778,0.009359827262572562,1.1655258175988013,0.06612198294799713,0.11184729707537543
0.8620000000000001,-0.007299999999998224,0.778,0.009373109259100579,1.1611909613349198,0.0662566244066237,0.11079633935493999
0.863,0.0007,0.778,0.009441108495963125,1.1611909613349196,0.06694594219234612,0.11079633935493993
0.8640000000000001,0.0020999999999997557,-0.222,0.009449655192747578,1.1633234534230776,0.06703258125440809,0.11131334819846049
0.865,0.001,0.778,0.009507735856146381,1.1697711095278065,0.06762135307207248,0.1128765405050746
0.8660000000000001,0.0021000000000036857,-0.222,0.009500478285904423,1.1718879883692794,0.06754778206628274,0.1133897640184375
0.867,0.0187,-0.222,0.009161106897234478,1.1611909613349236,0.06410752677858901,0.1107963393549409
0.8680000000000001,-0.0034000000000033084,-1.222,0.009147028295197682,1.1676503929206057,0.06396481001837465,0.11236238655036015
0.869,-0.0183,0.778,0.008954850126624989,1.1547698571105358,0.062016673013653545,0.10923958437910267
0.8700000000000001,0.022299999999996115,-0.222,0.008970198428491106,1.1526215399222803,0.062172260898828456,0.10871873884294189
0.871,0.0048,0.778,0.008881282076604075,1.1591287269732076,0.06127090338916728,0.11029636404045329
0.8720000000000001,-0.0002999999999989564,-0.222,0.00880940897683661,1.1719613572516323,0.06054231571273698,0.11340755182699554
0.873,0.0044,0.778,0.0088217599382885,1.1633234534230816,0.060667519138427904,0.11131334819846146
0.8739999999999999,-0.0087,-0.222,0.008954633081692856,1.1239374869096472,0.06201447279878463,0.10176447666401242
0.875,-0.0047,0.778,0.009035570414308731,1.1014306567720589,0.06283494587282563,0.09630784201323672
0.8759999999999999,-0.0083,-0.222,0.008940170338944094,1.0597469079331583,0.06186786195038346,0.08620188809177758
0.877,-0.0051,-1.222,0.008716391730613839,1.0113810079623895,0.05959938686296345,0.074475890068818
0.8779999999999999,0.0036,-1.222,0.008620503283631472,0.9863090593032109,0.05862735224904774,0.06839735910822478
0.879,-0.0044,0.778,0.008590100716080757,0.9863090593032109,0.05831915716464263,0.06839735910822478
0.8799999999999999,-0.0066,-0.222,0.008652183358153074,0.9786534468655721,0.05894849760050065,0.06654130564157676
0.881,-0.0045,-0.222,0.008567337104693647,0.9963962868575873,0.05808839924851885,0.07084294185208458
0.8819999999999999,-0.0027,0.778,0.008573649597749412,0.9988806580677536,0.05815238987453695,0.07144526150118269
0.883,0.0027,0.778,0.008608854111009936,0.9988806580677553,0.05850926295499864,0.07144526150118309
0.8839999999999999,0.0107,0.778,0.00853584691650203,0.9938191919350484,0.05776917880138197,0.07021814194171522
0.885,-0.0031,0.778,0.008537735626765864,0.9988806580677553,0.05778832492179461,0.07144526150118309
0.8859999999999999,0.0023,-0.222,0.008531463498403348,1.006382412636266,0.05772474347832405,0.0732640131276854
0.887,0.0008,-1.222,0.008489863420709025,0.9988806580677553,0.057303037665653,0.07144526150118309
0.8879999999999999,-0.0007,-2.222,0.008492392953158694,0.9837929415610335,0.05732867989029507,0.06778734271882363
0.889,0.0058,0.778,0.008533767237382401,0.9684702032942208,0.05774809680293758,0.06407244443859804
0.8899999999999999,-0.013,-1.222,0.008533793321424128,0.968470203294221,0.05774836122052101,0.06407244443859807
0.891,-0.0051,-0.222,0.008480235693598959,0.9684702032942192,0.05720544004780816,0.06407244443859764
0.8919999999999999,0.0018,-0.222,0.008443200410498335,0.973663451851913,0.056830008197122396,0.06533151379029088
0.893,0.013,0.778,0.008383565647377066,0.9711145704158203,0.05622548225295733,0.06471355405629552
0.8939999999999999,0.0087,0.778,0.0084450368755209,0.9940787107060772,0.05684862470020861,0.07028106058062908
0.895,0.0029,0.778,0.008445563196787508,0.9991388621620572,0.05685396009258676,0.07150786140527118
0.8959999999999999,0.0083,1.778,0.008538612464441177,0.9991388621620555,0.057797213548089144,0.07150786140527078
0.897,-0.003,1.778,0.008169088776368417,0.9991388621620568,0.05405130017924955,0.0715078614052711
0.8979999999999999,-0.0197,-1.222,0.00815289728940782,1.0214731714967522,0.05388716480870423,0.07692266950893685
0.899,0.0006,-1.222,0.008161444543894614,1.0214731714967515,0.053973809524272914,0.07692266950893668
0.8999999999999999,-0.0019,-2.222,0.008190150737602746,1.019043881042103,0.05426480822949969,0.07633370383093586
0.901,0.005,-1.222,0.008189866747085012,1.0263982769330169,0.05426192937785542,0.07811672930402824
0.9019999999999999,0.0072,-1.222,0.008037908054046075,1.0214731714967484,0.0527215028283838,0.07692266950893593
0.903,0.0014,-1.222,0.008059350070183394,1.0214731714967484,0.052938863548403034,0.07692266950893593
0.9039999999999999,0.0032,0.778,0.00807636844584379,1.0214731714967458,0.05311138120548394,0.07692266950893528
0.905,0.008,-1.222,0.00808577250329745,1.0238966982493396,0.053206711452702275,0.07751023781484255
0.9059999999999999,-0.0058,0.778,0.00808842090447391,1.0165242039834468,0.0532335586662725,0.07572282450839342
0.907,-0.004,0.778,0.007766350839191258,1.0238966982493372,0.04996868931638722,0.07751023781484195
0.9079999999999999,-0.0087,-1.222,0.0077879006105172136,1.0189595015909383,0.050187142365842166,0.07631324658154873
0.909,-0.0072,-1.222,0.0077389793021012095,1.0189595015909383,0.04969122021218431,0.07631324658154873
0.9099999999999999,0.0019,0.778,0.007750413770616085,1.0115510241607857,0.04980713302064009,0.07451710939085004
0.911,0.0055,0.778,0.007905164968034778,1.0189595015909385,0.05137586757803192,0.07631324658154877
0.9119999999999999,0.0132,0.778,0.007981789229653796,1.0238966982493365,0.05215261844743659,0.0775102378148418
0.913,0.0042,0.778,0.008163136813624485,1.0360122862612071,0.05399096429948603,0.08044758336532364
0.9139999999999999,0.0105,-1.222,0.008171704714861491,1.0360122862612071,0.05407781831405269,0.08044758336532364
0.915,0.0051,0.778,0.008171454464467508,1.0503501675540088,0.05407528149076737,0.08392370947471957
0.9159999999999999,-0.0014,0.778,0.008178363123131926,1.062164056574602,0.054145315531038955,0.08678791006610036
0.917,-0.0039,-1.222,0.008445945230719338,1.062164056574602,0.05685783282404832,0.08678791006610036
0.9179999999999999,0.0085,-0.222,0.008420196687490594,1.0692219014221203,0.05659681623587846,0.08849903866658898
0.919,0.0176,-0.222,0.00841402144916978,1.0621640565746022,0.056534216980327755,0.08678791006610041
0.9199999999999999,0.0028,-1.222,0.00827069608894675,1.0598280400521278,0.055081307734500234,0.08622155804658478
0.921,0.0126,1.778,0.00796633529917365,1.0621640565746022,0.05199595979021056,0.08678791006610041
0.9219999999999999,-0.0076,1.778,0.007952052210065626,1.0598280400521276,0.051851170115921684,0.08622155804658474
0.923,-0.0156,-1.222,0.007956939568767613,1.073847983504786,0.051900713955439985,0.08962060219354026
0.9239999999999999,-0.0133,-0.222,0.007950435771244848,1.085406145309476,0.05183478404925234,0.09242280338389863
0.925,0.0023,-1.222,0.00823600032286404,1.0876872293420825,0.05472959189541777,0.09297583737835988
0.9259999999999999,0.0041,0.778,0.008223292349847838,1.0876872293420825,0.05460076939350859,0.09297583737835988
0.927,-0.0049,-0.222,0.00818392844552785,1.0876872293420825,0.05420173198345511,0.09297583737835988
0.9279999999999999,-0.0034,-1.222,0.008183248919952445,1.0807499791682331,0.05419484353754611,0.09129394617252069
0.929,0.0104,-0.222,0.008180508575533013,1.0737679107099527,0.05416706428244745,0.08960118906498324
0.9299999999999999,-0.0023,-2.222,0.008227275790022767,1.0784542219648714,0.054641150084346196,0.09073735476319957
0.931,-0.0037,0.778,0.008207376744848099,1.0807499791682331,0.05443943067703108,0.09129394617252069
0.9319999999999999,-0.008,0.778,0.008211516538235066,1.0830408699907945,0.05448139634227261,0.09184935775945294
0.933,-0.0068,0.778,0.008215829001947504,1.0830408699907945,0.05452511239078172,0.09184935775945294
0.9339999999999999,0.0019,-1.222,0.008222167860705211,1.0807499791682331,0.0545893702896123,0.09129394617252069
0.935,-0.0035,-1.222,0.008196559459985844,1.0807499791682331,0.05432977434568355,0.09129394617252069
0.9359999999999999,0.0056,-0.222,0.00820535002938075,1.0784542219648714,0.05441888557854613,0.09073735476319957
0.937,0.0021,-0.222,0.008211430838726936,1.0922351056757043,0.05448052759435854,0.09407844042986814
0.938,-0.0102,-0.22199999999988898,0.008211268968366913,1.0990216339386856,0.054478886691852975,0.09572379008825502
0.9390000000000001,-0.0022,0.778,0.008232099992372706,1.0782947545361146,0.05469005369908027,0.09069869292178942
0.94,0.0022,0.777999999999778,0.008213038740771167,1.0829614769065143,0.05449682712252867,0.09183010942230076
0.9410000000000001,-0.0069,-1.221999999999889,0.008145002086352231,1.0759937588396224,0.053807130029797694,0.09014083147386408
0.942,0.0019,-0.22200000000022205,0.008138848056631958,1.0782947545361148,0.05374474576880042,0.09069869292178948
0.9430000000000001,-0.0104,-2.221999999999889,0.008169594140763336,1.0852476994040667,0.05405642312888488,0.0923843892041832
0.944,0.0045,-1.221999999999778,0.008100328691694974,1.089884650715505,0.05335426957272974,0.0935085879049899
0.9450000000000001,0.0143,0.777999999999778,0.008070914999223728,1.101274516396134,0.05305609885347322,0.09626998679415662
0.946,0.0017,-1.222000000000111,0.008066229193854952,1.1058442671854738,0.053008598188316346,0.0973778931652487
0.9470000000000001,0.0064,-2.221999999999667,0.008038997904031278,1.0945019573617478,0.052732550790290905,0.0946280238844292
0.948,-0.0041,0.777999999999889,0.0082259523995646,1.0830408699907945,0.054627734689962966,0.09184935775945294
0.9490000000000001,-0.0106,-0.22200000000011103,0.008012012986014252,1.089884650715505,0.05245900089776787,0.0935085879049899
0.95,0.0006,-1.221999999999778,0.008012698310284512,1.096685724198186,0.05246594812585857,0.095157463957335
0.9510000000000001,-0.007,0.777999999999889,0.008014012673976181,1.0874500503716118,0.05247927201464584,0.0929183348788611
0.952,-0.0059,-0.22200000000011103,0.007999479577058611,1.0942662554643887,0.05233194797618407,0.09457087949170392
0.9530000000000001,0.0079,-1.221999999999778,0.008016670287468419,1.0896479500483702,0.05250621261475108,0.09345120136702548
0.954,-0.0088,0.777999999999889,0.008015480267188974,1.082723262723627,0.05249414921254482,0.09177235594228143
0.9550000000000001,0.0024,-0.22200000000011103,0.008009621635928157,1.0804316984634503,0.05243475944709445,0.09121678108477736
0.956,0.0006,-1.221999999999778,0.007994522225959116,1.0965289081671834,0.052281694613931486,0.09511944493007372
0.9570000000000001,0.0061,0.777999999999889,0.00797503358402617,1.0942662554643796,0.05208413552174475,0.09457087949170172
0.958,0.0075,-0.222,0.007965484731582678,1.0988651512590017,0.05198733746743947,0.09568585187985387
0.9590000000000001,-0.0063,-0.22200000000011103,0.007931097106845619,1.0919989144911038,0.05163874530032561,0.09402117741263204
0.96,-0.019,-1.222,0.007901664732027747,1.0919989144910986,0.05134038519550533,0.0940211774126308
0.9610000000000001,-0.0143,-1.222,0.007905492485366825,1.0919989144910986,0.051379187667087746,0.0940211774126308
0.962,-0.0186,1.778,0.007886880046197352,1.0919989144910986,0.05119051076500532,0.0940211774126308
0.9630000000000001,-0.0038,0.778,0.007781876301941765,1.0919989144910986,0.05012607310625428,0.0940211774126308
0.964,0.002,1.778,0.00779934906446126,1.0919989144910986,0.05030319694655176,0.0940211774126308
0.9650000000000001,-0.0035,1.778,0.007728440203616924,1.0873709792183617,0.049584383895103536,0.0928991645917943
0.966,0.0212,-0.222,0.007711865189792769,1.0873709792183601,0.049416360659038684,0.09289916459179391
0.9670000000000001,0.0175,-1.222,0.007779008992300891,1.0850892303621924,0.050097006786927446,0.09234596941518222
0.968,0.0011,-0.222,0.008134257671656634,1.1011183538792386,0.05369821239353328,0.09623212620714218
0.9690000000000001,0.0097999999999982,-0.222,0.008169636127000337,1.1079280755768597,0.054056848749248515,0.09788309896297778
0.97,0.0017,0.778,0.008210284545861597,1.1146961972004585,0.05446890746307204,0.09952398605130727
0.9710000000000001,-0.0005000000000005107,-0.222,0.00822457834911155,1.1146961972004585,0.054613805748117895,0.09952398605130727
0.972,-0.0028,1.778,0.008420189418327267,1.103444880116302,0.05659674254735195,0.09679617736865588
0.9730000000000001,0.003000000000004485,1.778,0.008576890002212723,1.089805756205352,0.058185238308321736,0.09348946044389363
0.974,0.0232,0.778,0.008464454630987078,1.0828820780013853,0.05704546520635579,0.09181085967392161
0.9750000000000001,-0.0010999999999992895,0.778,0.008424981240139308,1.0851684677758004,0.05664531791603923,0.09236518001099196
0.976,0.0021,-0.222,0.008635836620944715,1.0919989144910907,0.058782788436454736,0.09402117741262886
0.9770000000000001,0.004999999999998246,-0.222,0.009221761623518055,1.1033669552093721,0.06472239223215154,0.09677728498155773
0.978,-0.0029,-0.222,0.009267305106107848,1.110162884107427,0.06518407289242636,0.09842491376280499
0.9790000000000001,-0.009799999999998556,-1.222,0.009262616904746397,1.1033669552093721,0.06513654793875624,0.09677728498155773
0.98,-0.0033,0.778,0.009224928014846659,1.110162884107427,0.06475449038442604,0.09842491376280499
0.9810000000000001,-0.005199999999998001,0.778,0.009260178953758259,1.094266255464364,0.06511183408821347,0.09457087949169796
0.982,0.0038,0.778,0.00925450472834312,1.0919989144910907,0.06505431367064232,0.09402117741262886
0.9830000000000001,-0.004200000000000955,-0.222,0.009228513046415927,1.1124704955435352,0.06479083235144059,0.09898437915379157
0.984,-0.0085,0.778,0.00924437043619122,1.1102403320257277,0.06495158093203625,0.09844369050711091
0.9850000000000001,-0.004899999999999778,-0.222,0.009251057900803656,1.1169174636701853,0.06501937269723002,0.10006251766652015
0.986,-0.0039,1.778,0.00924450423910083,1.1433864854215137,0.06495293731086682,0.1064797599159838
0.9870000000000001,-0.0005999999999985567,1.778,0.00922878523983942,1.1756715871532333,0.06479359161428865,0.11430707294656929
0.988,0.0059,0.778,0.009254418457487283,1.2070934953988626,0.06505343913089655,0.12192511032804158
0.9890000000000001,0.0014999999999979795,-1.222,0.009206222588641242,1.2194214709569473,0.06456487085973966,0.12491394785837934
0.99,-0.0076,-0.222,0.009215044564689459,1.2296120251644769,0.0646543004662446,0.1273845814775733
0.9910000000000001,-0.004000000000000733,0.778,0.009302239714484756,1.2296120251644782,0.06553820990928919,0.12738458147757364
0.992,-0.0073,-1.222,0.009280489878233938,1.3312091113104545,0.06531772877367666,0.15201613453471063
0.9930000000000001,0.007499999999999511,-1.222,0.009279925793557393,1.5157237999873217,0.06531201056832411,0.19675052128114945
0.994,0.0053,1.778,0.009225345374511612,1.533773656459691,0.06475872121779079,0.20112659164141622
0.9950000000000001,-0.0008999999999986899,-1.222,0.009320212932366817,1.5628651931798772,0.06572040693567366,0.20817964559620517
0.996,0.005,0.778,0.009286561258855491,1.566088629310812,0.06537927520918721,0.2089611467307095
0.9970000000000001,0.017699999999997492,0.778,0.009300733217913543,1.577237010172642,0.06552293834259844,0.21166399919544243
0.998,0.0064,1.778,0.009306654309449313,1.5660886293108158,0.06558296127660204,0.20896114673071042
0.9990000000000001,-0.0011999999999992006,1.778,0.009313235379170495,1.5645052209111836,0.06564967450188515,0.2085772596578999
1.0,0.0024,1.778,0.009256324529191952,1.5645052209111834,0.06507276124666599,0.20857725965789983
1.001,0.0013,1.777999999999778,0.009257685050377345,1.5596902240049582,0.06508655304043036,0.20740989496010498
1.002,-0.0089,0.778,0.009246317536234757,1.5629202083472071,0.06497131895782181,0.20819298366587272
1.003,0.0002,-0.222,0.009228998808899892,1.562920208347207,0.06479575659375982,0.20819298366587266
1.004,-0.0009,-0.222,0.009257272868306675,1.5596902240049604,0.06508237469306385,0.2074098949601055
1.005,-0.0063,-2.221999999999556,0.009219272409562818,1.5676704384069138,0.06469715872173316,0.20934464606277609
1.006,-0.0016,-0.222,0.009217541142058302,1.5724609994707799,0.06467960862061778,0.2105060864494475
1.007,-0.0009,-1.221999999999778,0.009217482021870933,1.5771824944030703,0.06467900931100007,0.21165078220151481
1.008,0.0046,-0.222,0.009243157532263816,1.57561023481482,0.06493928555508634,0.2112695980855458
1.009,-0.0023,-1.2219999999995559,0.00924821606897173,1.577182494403071,0.06499056465002004,0.21165078220151498
1.01,-0.0031,0.778,0.009232579765842916,1.5771824944030708,0.06483205725571757,0.21165078220151493
1.011,0.0009,0.778,0.009044130244534439,1.577182494403071,0.0629217180704206,0.21165078220151498
1.012,0.0031,0.778,0.00894429711650373,1.572406318115573,0.061909695672360786,0.2104928293103591
1.013,0.0067,0.778,0.008756454453690643,1.572406318115573,0.06000550829660742,0.2104928293103591
1.014,0.0002,0.778,0.008795333386552353,1.572406318115573,0.060399629483079836,0.2104928293103591
1.015,-0.0006,0.777999999999778,0.008796898809963887,1.5628651931798891,0.0604154983994022,0.20817964559620808
1.016,0.0103,-0.222,0.00880840798715778,1.5628651931798891,0.060532168540198314,0.20817964559620808
1.017,0.0241,-2.221999999999778,0.008560896628756883,1.5676704384069158,0.05802311124211515,0.20934464606277656
1.018,0.0114,-1.222,0.008452047607339138,1.5788076497333838,0.05691969347033334,0.21204479054627373
1.019,0.0194,-1.222,0.008482763785594302,1.5788076497333838,0.05723106767036304,0.21204479054627373
1.02,0.0056,-1.222,0.008448765927006208,1.611757602451997,0.05688642661727856,0.22003329237645955
1.021,-0.022,0.777999999999778,0.008448388362598744,1.6148834483842012,0.056882599194011334,0.22079113340171191
1.022,-0.018,-0.222,0.008476409232439393,1.6195343600143124,0.057166650675230406,0.22191871669102536
1.023,-0.0072,-0.22199999999977796,0.008509502900320138,1.6149366914749714,0.05750212582050448,0.22080404184293778
1.024,-0.0105,0.778,0.008598611988737025,1.605648311516431,0.058405437127356886,0.21855213450540933
1.025,-0.0191,1.778,0.008366438290010065,1.6041039528899883,0.056051859833056314,0.21817771479624742
1.026,-0.0326,1.778,0.00848545314732546,1.6041039528899883,0.05725833010681178,0.21817771479624742
1.027,-0.0104,-1.222,0.008503394884019437,1.605648311516431,0.057440208003984465,0.21855213450540933
1.028,-0.0017,-0.222,0.008490403903630818,1.6071911861610761,0.05730851661671276,0.21892619443283168
1.029,0.0062,-1.222,0.008490751943424439,1.6164707006532495,0.05731204474483524,0.22117595239567353
1.03,0.0084,-1.222,0.008465525123425955,1.6210640184351908,0.05705631693810523,0.22228957243091366
1.031,0.0018,-0.222,0.008460975097384426,1.6210640184351908,0.05701019268700126,0.22228957243091366
1.032,-0.004,-2.222,0.008449910061206026,1.6287435527005254,0.0568980248658704,0.22415142558917162
1.033,0.0087,-0.222,0.008443510661094857,1.6272211133909396,0.05683315325086243,0.223782320075885
1.034,0.004,1.778,0.008444477611910143,1.6287435527005254,0.05684295536667504,0.22415142558917162
1.035,-0.0004,2.778,0.00842088586994933,1.6287435527005254,0.056603802574966,0.22415142558917162
1.036,-0.0015,2.778,0.008493150109277684,1.6302645702651486,0.05733635528789465,0.22452018640963475
1.037,0.0072,2.778,0.008542838660539205,1.622592234809328,0.057840055089711295,0.22266007855594427
1.038,0.0039,1.778,0.008578114155802855,1.6180032554567645,0.05819764772467797,0.2215475103447028
1.039,0.0046,1.778,0.008666721021691292,1.6486680988833278,0.05909586793143537,0.22898200228244334
1.04,0.0129,0.778,0.008704095321364921,1.6592617309144708,0.05947473644059276,0.23155035949957817
1.041,0.0027,-5.222,0.008676013481806728,1.6906443936802453,0.059190066900809614,0.2391588820695931
1.042,0.0016,-7.222,0.008679471739256072,1.6891777459119464,0.05922512374081884,0.23880330285279272
1.043,0.0027,-3.222,0.008656143876641419,1.6891777459119464,0.058988645930991734,0.23880330285279272
1.044,-0.014,-3.222,0.00871672361867408,1.6847191059290698,0.059602751258703,0.23772233457440037
1.045,-0.0119,-1.222,0.008705441601422892,1.6802998066082147,0.05948838387005434,0.23665090418376286
1.046,-0.0054,-2.222,0.008797052769592402,1.6772958764881538,0.060417059109714774,0.23592262085459437
1.047,-0.0072,-1.222,0.008787630505915568,1.6847191059290698,0.0603215443034628,0.23772233457440037
1.048,0.0054,-0.222,0.008620977620169012,1.6847191059290698,0.05863216066494813,0.23772233457440037
1.049,-0.0026,-0.222,0.008597231680021683,1.6758175463593532,0.05839144474463065,0.23556420932543695
1.05,0.0017,-0.222,0.008597377662865863,1.6668684505651075,0.05839292459316346,0.23339455922786775
1.051,0.0053,-1.222,0.008608027723597452,1.6578710487528159,0.058500885750082735,0.23121319765025897
1.052,0.0017,-0.222,0.008608043003935847,1.6639436228128788,0.058501040649012695,0.23268545375353855
1.053,-0.0107,0.778,0.00860804300393588,1.6624534192877007,0.05850104064901303,0.23232416359661795
1.054,-0.0027,1.778,0.008928455776559022,1.677449657696113,0.061749109791145146,0.23595990410873807
1.055,0.0016,-1.222,0.008928551411758714,1.6819275684483344,0.061750079258555815,0.2370455444598795
1.056,0.0005,1.778,0.008971443592781115,1.675920159166202,0.06218488330359139,0.23558908713337534
1.057,0.0092,-0.222,0.009023437804546482,1.675920159166202,0.06271195590878745,0.23558908713337534
1.058,0.0081,0.778,0.00910785888009938,1.6759201591662036,0.06356774417279491,0.23558908713337573
1.059,0.0033,-0.222,0.009096350877061933,1.6773983988599588,0.06345108593458709,0.23594747673714428
1.06,0.0041,-1.222,0.009095201176532204,1.6729083648234429,0.0634394312593295,0.23485889717453864
1.061,-0.005,-0.222,0.009168832256154166,1.6714261540666295,0.06418583982370736,0.2344995448123474
1.062,0.0037,1.778,0.009332139975974168,1.6744406144445385,0.06584131304681506,0.23523038113407435
1.063,0.0091,0.778,0.009327345240990732,1.6744406144445385,0.06579270814690143,0.23523038113407435
1.064,0.0026,-0.222,0.009307789948625604,1.672959761232506,0.06559447340995088,0.23487135789978983
1.065,-0.0057,1.778,0.00930810899269435,1.67147759605232,0.06559770760435014,0.23451201658735557
1.066,0.0044,-1.222,0.009308454946540968,1.6789265507171915,0.06560121458693578,0.23631796722047083
1.067,0.011,-2.222,0.009285831476245955,1.6834005328812411,0.06537187730068596,0.23740265511094963
1.068,0.0073,-0.222,0.008973826984310113,1.6684577822952,0.06220904407725713,0.23377988237364103
1.069,0.0062,-3.222,0.008968835555201022,1.665432492927281,0.06215844526144947,0.233046420633685
1.07,0.0015,-1.222,0.00883839125330464,1.660910111082553,0.06083611310755954,0.2319499985552703
1.071,-0.0069,-1.222,0.008821022934408425,1.6563753818789202,0.06066004802689605,0.23085058293995883
1.072,-0.008,-1.222,0.008664251413017268,1.6563753818789213,0.059070833162497886,0.23085058293995908
1.073,-0.0127,-0.222,0.008477974634763881,1.6578710487528343,0.05718251937779044,0.23121319765026344
1.074,-0.012,-0.222,0.008447302848448055,1.6624016980545175,0.05687159518506583,0.23231162411987052
1.075,-0.0142,0.778,0.008402503197647935,1.6654324929272823,0.056417454851798554,0.23304642063368533
1.076,-0.0059,0.778,0.00818865701307275,1.656427291281275,0.054249666134779155,0.2308631680370986
1.077,0.0017,0.778,0.007526891182972228,1.6473728643221184,0.04754125325076758,0.22866798108335082
1.078,-0.003,1.778,0.007481241611074492,1.6428007678057437,0.047078497148322906,0.22755950600598862
1.079,-0.0073,1.778,0.007497388223404633,1.6443087822247433,0.04724217761845568,0.2279251142983283
1.08,0.0018,0.778,0.007472286559360257,1.6397281420710261,0.04698771853515752,0.2268145678716343
1.081,0.0029,1.778,0.007428556323315537,1.6442564902394459,0.046544419009011385,0.2279124364464412
1.082,0.0019,-0.222,0.007428121772014041,1.653327984064596,0.04654001390161973,0.23011176115089807
1.083,0.0044,0.778,0.0074844906398801305,1.6608065708813002,0.04711143300827349,0.23192489590658763
1.084,-0.0057,0.778,0.007486960725307733,1.6831962130652935,0.04713647261012876,0.23735311909984882
1.085,0.0121,0.778,0.007478956027536771,1.6742865568596024,0.047055327867960385,0.23519303087412932
1.086,0.01,0.778,0.00750529182360083,1.653275977350491,0.04732229752035238,0.23009915246115706
1.087,0.0078,-1.222,0.007503810620192664,1.6304755231187564,0.04730728235399713,0.22457133055759515
1.088,0.0137,-3.222,0.007476948462228397,1.622857168236928,0.04703497689731848,0.22272430994314332
1.089,0.0082,-2.222,0.007470636524183576,1.6458676573487245,0.04697099189752403,0.22830305343794716
1.09,-0.003,-3.222,0.007468339872983104,1.668560847711337,0.04694771042271445,0.2338048699137589
1.091,0.0047,-0.222,0.007364051173677655,1.6983130654040275,0.04589052127474769,0.24101810167526863
1.092,0.0036,-1.222,0.007361821820336191,1.6199059548366215,0.04586792200775831,0.22200880743996979
1.093,-0.0127,-0.222,0.00736106384881178,1.450431443157996,0.0458602383442798,0.18092081383111205
1.094,0.002900000000002176,-1.222,0.007383014068734606,1.4137264222954273,0.046082750797234354,0.1720219201409854
1.095,0.0127,0.778,0.007256909549611233,1.381497887907462,0.04480441162899592,0.16420832149515088
