time_sec,bts_raw,diy_raw,bts_rms,diy_rms,bts_norm_rms,diy_norm_rms
0.0,0.0026,-0.233,0.0041747712886698735,1.0472281500290164,0.0,0.10180748812663135
0.001,0.0,-0.233,0.00419913764097994,1.0498112758157403,0.0003241780241737949,0.10259844275165633
0.002,0.0007,-0.233,0.004235226142096844,1.0472281500290164,0.0008043113998468813,0.10180748812663135
0.003,-0.0032,0.767,0.004427827268022958,1.04024214240237,0.003366740591621394,0.09966836850994255
0.004,0.0036,0.767,0.004472662675358441,1.04024214240237,0.00396324570564454,0.09966836850994255
0.005,0.0011,-0.23299999999977797,0.004556817873858272,1.0163353521664125,0.005082874348720441,0.09234809537271578
0.006,0.0018,0.767,0.004556978745374995,1.0163353521664125,0.005085014636678752,0.09234809537271578
0.007,0.0068,-0.23299999999977797,0.004602861680872159,1.0531800880729068,0.005695456412431105,0.10362997503294956
0.008,0.006,0.767,0.004613853529860719,1.0384384741908894,0.005841695613185667,0.09911608424983671
0.009000000000000001,0.0020000000000000044,-0.23299999999977797,0.004648720071991964,1.0384384741908892,0.006305571641655054,0.09911608424983666
0.01,0.0045,0.767,0.004674294146260445,1.059293969977113,0.006645817598905085,0.10550204924390832
0.011,0.0102,1.767,0.004674580158099999,1.0592939699771127,0.006649622795179729,0.10550204924390827
0.012,0.0108,-0.233,0.004717956571981707,1.0592939699771127,0.0072267169769013,0.10550204924390827
0.013000000000000001,-9.999999999999255e-05,-0.233,0.004750873848146203,1.0661551473463868,0.0076646593251197825,0.10760294576286056
0.014,0.0042,-1.233,0.004750881081522548,1.0661551473463868,0.007664755560355232,0.10760294576286056
0.015,0.0006,-0.233,0.004850559044469568,1.0889687621689808,0.00899090420462664,0.11458848794985352
0.016,-0.0055,-0.233,0.004888551951649159,1.0973537709021353,0.009496374429524038,0.1171559825226884
0.017,-0.0066,-1.233,0.0048885522506058494,1.0998191738325953,0.009496378406942894,0.11791089034034859
0.018000000000000002,-2.8449465006019615e-17,0.767,0.004992143781896948,1.112064205976074,0.01087459446110431,0.12166032633655206
0.019,-0.0082,-2.233,0.005034503452928797,1.0981133661784845,0.0114381615590849,0.11738857104008212
0.02,-0.0006,-2.233,0.005062503350915945,1.0956441248704645,0.011810681478810087,0.11663248790897056
0.021,0.0019,-0.233,0.00506692817763925,1.0998191738325953,0.01186955083956704,0.11791089034034859
0.022,-0.0081,-2.233,0.0050747533426565294,1.0998191738325955,0.011973659427584446,0.11791089034034866
0.023,-0.0015,-0.233,0.005086926495673217,1.0998191738325955,0.012135615088517938,0.11791089034034866
0.024,-0.0004,0.767,0.005094177785538097,1.1022790625547096,0.012232088651371957,0.11866410970419179
0.025,-0.0104,1.767,0.005099290518384797,1.1022790625547096,0.012300110143111075,0.11866410970419179
0.026000000000000002,-0.0014000000000000208,0.767,0.005100991200239183,1.1022790625547096,0.012322736577970396,0.11866410970419179
0.027,-0.0074,0.767,0.005103553785200091,1.1047334739036228,0.01235683005732395,0.11941565189316074
0.028,0.0092,1.767,0.005103599959605339,1.1047334739036228,0.012357444376909839,0.11941565189316074
0.029,0.007,0.767,0.0051087032628547606,1.107182444306196,0.01242534041416256,0.12016552806118166
0.03,0.0059,-0.233,0.00512863438383895,1.107182444306196,0.01269051065129954,0.12016552806118166
0.031,0.008,-0.233,0.005148189475316958,1.1047334739036228,0.012950678067300474,0.11941565189316074
0.032,0.0097,-2.233,0.005150728578296171,1.107182444306196,0.012984459134589526,0.12016552806118166
0.033,0.0007,0.767,0.005153160265276612,1.107182444306196,0.01301681110384193,0.12016552806118166
0.034,-0.0104,0.767,0.005234941204388284,1.107182444306196,0.014104851813380014,0.12016552806118166
0.035,-0.0146,-0.233,0.005257057504733862,1.103035266078649,0.014399094400732814,0.11889565966501607
0.036000000000000004,0.0002999999999999875,1.767,0.0053240143460141255,1.1144970681118334,0.015289910401213407,0.12240527014386374
0.037,-0.0015,-0.233,0.005406657547567023,1.1103772098090026,0.01638942293595366,0.12114376712460721
0.038,-0.0068,0.767,0.005429570802699397,1.1079353011103819,0.016694268473836434,0.12039605325446218
0.039,-0.0081,-0.233,0.005471774564936268,1.1079353011103819,0.01725576130955306,0.12039605325446218
0.04,-0.0005,-0.233,0.005473521819464599,1.1234338942856792,0.01727900736269697,0.1251417315394246
0.041,0.0032,-0.233,0.005473522086470992,1.1234338942856792,0.01727901091503848,0.1251417315394246
0.042,-0.0004,-0.233,0.0055257984286212,1.1120642059760875,0.017974512691161404,0.12166032633655621
0.043000000000000003,0.0006999999999999826,0.767,0.0055394239468910395,1.1120642059760875,0.018155791100619337,0.12166032633655621
0.044,-0.0018,0.767,0.0055394961870946806,1.1054879985010704,0.018156752208223145,0.11964668776571236
0.045,0.0043,0.767,0.005595303358176316,1.0988724363849423,0.018899229302281235,0.11762099878076827
0.046,0.0083,2.767,0.005660749242023732,1.0988724363849423,0.019769943024466,0.11762099878076827
0.047,0.0089,0.767,0.005848073059502756,1.1030352660786626,0.02226216115618674,0.11889565966502022
0.048,0.0053,-0.233,0.0058746614043003395,1.1030352660786615,0.02261590130460327,0.11889565966501987
0.049,0.0038,-1.233,0.005901454427100436,1.080518686301434,0.02297236455697899,0.1120010697824538
0.05,-0.0045,0.767,0.006047650847674209,1.068692525860416,0.024917410173975498,0.10837989254625968
0.051000000000000004,-0.005500000000000051,-0.233,0.006352611404548385,1.0830224134630222,0.028974706461921268,0.11276771250207546
0.052000000000000005,-0.012899999999999955,-0.233,0.006444048767554907,1.0830224134630222,0.030191219434315204,0.11276771250207546
0.053,-0.0063,0.767,0.0065165420743986706,1.097165156800298,0.03115569440699002,0.11709822877451251
0.054,-0.0087,-0.233,0.006517381672018132,1.0946937766699625,0.03116686469189416,0.1163414907347584
0.055,0.0004,-0.233,0.006510651171410924,1.092216804514227,0.031077319881871693,0.11558304041355984
0.056,0.0065,2.767,0.0066340694958610755,1.0922168045142275,0.03271931816121866,0.11558304041355998
0.057,0.0032,-0.233,0.0071372029926448045,1.0922168045142275,0.03941317290022365,0.11558304041355998
0.058,0.0057,0.767,0.007170577030932609,1.0922168045142282,0.03985719216306471,0.11558304041356018
0.059000000000000004,0.0048999999999999625,-2.233,0.00715265911148131,1.0897342022009748,0.03961880622613365,0.11482286613484033
0.06,-0.0005,0.767,0.007167252372437821,1.089734202200975,0.03981295980492681,0.1148228661348404
0.061,0.0064,-1.233,0.007159859305494397,1.0939318069300492,0.03971459999284638,0.11610817515523415
0.062,0.0056,-1.233,0.007101880039222805,1.0797467133452592,0.038943224624724236,0.11176469121226613
0.063,0.0001,0.767,0.007177664242546726,1.0822522264225483,0.039951482774508294,0.11253188078031878
0.064,0.0098,-2.233,0.00718266709309401,1.0822522264225483,0.04001804235572987,0.11253188078031878
0.065,0.0061,-2.233,0.007173601657422981,1.0822522264225456,0.03989743279600948,0.11253188078031796
0.066,-0.0,0.767,0.007237544365448908,1.0822522264225456,0.04074814776903413,0.11253188078031796
0.067,-0.0101,2.767,0.0072415274222810255,1.1047334739036307,0.04080113967679187,0.1194156518931632
0.068,-0.0065,-0.233,0.00721495316004957,1.098113366178493,0.040447586887500935,0.1173885710400847
0.069,-0.0053,-0.233,0.00732102377087514,1.0956441248704738,0.04185878543715564,0.1166324879089734
0.07,-0.0021,-1.233,0.007362265211313787,1.0956441248704738,0.042407475224833,0.1166324879089734
0.07100000000000001,-0.0028000000000000095,0.767,0.007401306814544103,1.0797467133452443,0.04292689764944238,0.11176469121226158
0.07200000000000001,-0.003499999999999989,0.767,0.007427557794360934,1.0797467133452443,0.04327614938237948,0.11176469121226158
0.073,-0.0027,0.767,0.007387587977161796,1.056734024347286,0.04274437769159376,0.10471819239646768
0.074,0.0023,0.767,0.007436892389825606,1.056734024347286,0.0434003399331723,0.10471819239646768
0.075,-0.0013,-0.233,0.007459491594509634,1.0541678621531454,0.043701007239839315,0.10393243203340227
0.076,-0.0016,0.767,0.007386396872615066,1.0420426886552472,0.04272853084206824,0.10021969682450009
0.077,-0.0002,0.767,0.007404629202384454,1.0394402572361618,0.04297109979804133,0.09942283080356717
0.078,0.0023,0.767,0.007367704118565963,1.0394402572361618,0.04247983624893041,0.09942283080356717
0.079,-0.0045,-0.233,0.007319196725282694,1.0394402572361543,0.04183447781725843,0.09942283080356487
0.08,0.0045,-0.233,0.007285810471367248,1.0368312937727555,0.041390296033659964,0.09862396466684699
0.081,-0.0016,0.767,0.00726304081904692,1.060276048259661,0.041087361035167025,0.10580276218778054
0.082,0.0016,0.767,0.0072229686941159,1.0671309113208398,0.040554228208419835,0.10790172526190507
0.083,-0.0092,0.767,0.007166240069393652,1.0438401291049313,0.03979949178983174,0.10077007414030542
0.084,-0.0048,0.767,0.0071671249881253285,1.041242190133075,0.03981126504182854,0.09997458370933868
0.085,-0.0084,1.767,0.00709120550205923,1.0412421901330768,0.03880120704562078,0.09997458370933922
0.08600000000000001,-0.009399999999999801,0.767,0.007056300730236097,1.0559446632028024,0.038336822396664284,0.10447648955286123
0.08700000000000001,0.005000000000000025,-0.233,0.007094080537729637,1.0412421901330768,0.03883945747273443,0.09997458370933922
0.088,0.0068,-0.233,0.007147053573086903,1.0412421901330768,0.03954422828611189,0.09997458370933922
0.089,0.0014,-2.233,0.007128166253722021,1.0456344797680344,0.03929294513154971,0.1013195053616545
0.09,-0.0,0.767,0.007102487657528488,1.0456344797680344,0.03895130857997866,0.1013195053616545
0.091,0.0076,0.767,0.007115407947930777,1.0482215328338016,0.039123204404231164,0.10211166252181698
0.092,0.0039,-0.233,0.007109163141426372,1.0714170750287169,0.039040121429472184,0.10921415109334677
0.093,0.0003,-0.233,0.007118063841028724,1.0714170750287169,0.03915853928595466,0.10921415109334677
0.094,0.0079,-0.233,0.007216245783708271,1.0756861602854886,0.04046478438092734,0.11052134749308232
0.095,0.0086,0.767,0.007263661701598341,1.0958330007714259,0.04109562146234145,0.1166903218201912
0.096,0.0147,-1.233,0.007275664920233975,1.1000073328602653,0.04125531625996688,0.1179685047445486
0.097,0.0056,-0.233,0.0072779689230719116,1.0647841952697856,0.04128596947708319,0.10718315943605895
0.098,-0.0056,-0.233,0.007227599565030916,1.062237480923945,0.04061583884936971,0.10640335401550495
0.099,-0.0132,0.767,0.007210725209014803,1.0851334630571003,0.04039133682613299,0.11341411712111298
0.1,-0.0196,1.767,0.007202842401704815,1.0783930402515458,0.0402864613459554,0.11135019572011963
0.101,-0.0108,-0.233,0.007189022139600407,1.0783930402515458,0.040102591999999986,0.11135019572011963
0.10200000000000001,-0.009699999999999818,1.767,0.007285060316206545,1.0783930402515458,0.04138031572086114,0.11135019572011963
0.10300000000000001,0.003399999999999925,-0.233,0.007187162343443993,1.0809016911262783,0.04007784865574886,0.11211834608358263
0.10400000000000001,-0.0019999999999997945,-0.233,0.007164004422085294,1.0783930402515458,0.039769747997328436,0.11135019572011963
0.105,0.0128,-0.233,0.007120303322727764,1.0851334630571003,0.03918833409246201,0.11341411712111298
0.106,0.0264,0.767,0.007124648132316971,1.1075562285558878,0.03924613887875571,0.12027998101681191
0.107,0.0097,-0.233,0.007135498222587731,1.0793577409488644,0.03939049207456127,0.11164558763724212
0.108,0.0032,-0.233,0.00721558032535452,1.0818641548562888,0.040455930902509915,0.11241305304000852
0.109,0.005,-0.233,0.007197450493946243,1.0793577409488644,0.04021472561869271,0.11164558763724212
0.11,0.0031,-1.233,0.007203320072544054,1.063216840330754,0.04029281643706216,0.10670323443803743
0.111,0.0046,-0.233,0.0072097287822571274,1.0606663626919803,0.040378080034413545,0.10592227669498872
0.112,0.015,0.766999999999778,0.007182626398966617,1.053769448011714,0.040017500947576286,0.1038104373905319
0.113,0.0027,-0.233,0.007223412521366809,1.049411207676126,0.04056013303321443,0.10247594165357607
0.114,-0.0021,-1.232999999999778,0.007241977948227201,1.0537694480117141,0.04080713362324769,0.10381043739053197
0.115,-0.0096,-0.233,0.007176996184803377,1.0328024009523518,0.03994259471295042,0.09739031533145405
0.116,-0.006,-2.232999999999556,0.007222382815167291,1.011400785674488,0.04054643348077458,0.09083712822998478
0.117,-0.0023,-0.233,0.0074365156974476885,1.0114007856744882,0.04339532829297106,0.09083712822998485
0.11800000000000001,-0.012399999999999984,-0.2330000000004441,0.007417597510040928,0.9729752306266289,0.04314363445975255,0.07907120082510893
0.11900000000000001,-0.011299999999999947,-2.233,0.007405926000409731,0.9729752306266289,0.04298835282862372,0.07907120082510893
0.12,-0.0076,-1.232999999999778,0.007397192793167265,0.9804406574577909,0.0428721633459906,0.08135711888230972
0.121,-0.0065,-0.233,0.0074011578380724155,0.975754946710299,0.042924915617104285,0.07992235151391208
0.122,0.0026,-0.233,0.0074139329570175735,0.9729752306266289,0.04309488003219302,0.07907120082510893
0.123,0.0087,-0.233,0.00760686239657491,0.9776742638423027,0.04566167721729393,0.08051004754104722
0.124,-0.0058,-0.23299999999977797,0.00762711035249023,0.9776742638423027,0.04593106273132817,0.08051004754104722
0.125,0.0,0.767,0.007625777553461056,0.9749000202907536,0.045913330731462115,0.07966057254477674
0.126,0.0054,-0.23299999999977797,0.007627049787030282,0.9749000202907536,0.04593025694838253,0.07966057254477674
0.127,0.0007,0.767,0.00763735366847169,0.9721178595963739,0.046067343200952904,0.0788086733147461
0.128,-0.0036,1.7669999999995558,0.007727681921375508,0.9943653167202713,0.04726910020507098,0.08562085768363395
0.129,-0.0,-0.233,0.007898215776302876,0.9916377697927449,0.04953793911216731,0.0847856812209206
0.13,-0.0012,-2.232999999999778,0.007926607351869229,0.9916377697927449,0.049915670040176545,0.0847856812209206
0.131,0.0024,-1.233,0.007918466997317847,0.9916377697927449,0.0498073680661691,0.0847856812209206
0.132,0.0035,-0.233,0.007916836749024657,0.9916377697927449,0.04978567870274391,0.0847856812209206
0.133,-0.0013,-0.233,0.007938091886024705,0.9916377697927449,0.050068464087627815,0.0847856812209206
0.134,-0.0005,0.7670000000002221,0.008001125376474951,0.9962487808003458,0.05090708252878436,0.0861975754853221
0.135,-0.0128,1.767,0.008113923566339613,0.9962487808003458,0.052407787018951324,0.0861975754853221
0.136,-0.0073,-0.233,0.008110866356987843,0.996248780800346,0.052367112892823184,0.08619757548532214
0.137,-0.0088,-0.233,0.008090084622405994,0.996248780800346,0.05209062581055831,0.08619757548532214
0.138,-0.0044,-1.232999999999778,0.00809156084449406,0.9962487808003458,0.0521102659583187,0.0861975754853221
0.139,-0.0054,-0.233,0.008063089744526214,0.9989637380119722,0.05173147701132402,0.08702889696967163
0.14,-0.0043,0.767,0.008110693665845187,0.9768210172354411,0.05236481535264539,0.08024878293153706
0.14100000000000001,-0.0010999999999998695,-2.233,0.008114193188808634,0.9740443434958213,0.052411374165610286,0.07939856381025953
0.14200000000000002,0.00360000000000023,-0.233,0.0080797020535707,0.9740443434958213,0.051952492674829015,0.07939856381025953
0.14300000000000002,0.011899999999999907,-1.233,0.008074185034957628,0.9740443434958211,0.05187909243130645,0.07939856381025949
0.14400000000000002,0.008499999999999931,-2.233,0.00814364114099601,0.9768210172354411,0.05280315947818349,0.08024878293153706
0.145,0.006,-1.233,0.008106818438234038,0.9924782783246369,0.0523132580405693,0.08504304542443315
0.146,0.0085,-0.233,0.00806125584523708,0.9897455310985539,0.051707078207575315,0.08420627662726364
0.147,-0.0024,-0.233,0.007961974421221952,0.9823508196903158,0.05038620524863476,0.08194201167387594
0.148,0.0019,-2.233,0.007952030246076944,0.9823508196903158,0.050253904647809294,0.08194201167387594
0.149,-0.0017,-0.233,0.007993496424876323,0.9823508196903157,0.05080558442909796,0.08194201167387591
0.15,-0.0007,0.767,0.00789620370209308,1.004371635947673,0.049511169810241354,0.08868479847701964
0.151,-0.013,-0.233,0.00765445656140783,0.9889026998966339,0.04629488575509235,0.08394820122083155
0.152,-0.005,0.767,0.0075787833390425835,0.988902699896634,0.04528810413275262,0.08394820122083159
0.153,0.0026,-0.233,0.007588075925574221,0.9759670246715181,0.04541173578278198,0.07998728990953888
0.154,0.0037,-1.233,0.00763757414260397,0.9787382437929214,0.046070276461856075,0.08083583882353178
0.155,-0.0025,-2.233,0.007636840721416721,0.9787382437929214,0.04606051878338439,0.08083583882353178
0.156,0.0076,-1.233,0.0075408984240421355,0.9861600444381102,0.04478407067158643,0.08310839851710003
0.157,0.0112,0.767,0.007066825763117148,0.9861600444381102,0.0384768509212594,0.08310839851710003
0.158,0.0025,-0.233,0.0070858084828167986,0.9861600444381102,0.038729403313483304,0.08310839851710003
0.159,0.0057,-1.233,0.0072273082011743844,1.0107807873188046,0.04061196244808797,0.09064728437125516
0.16,0.0031,-0.233,0.007243845661769386,1.0134568153747348,0.04083198230302231,0.09146668572538705
0.161,-0.0013,-0.233,0.007299144580648313,1.0089244520095904,0.04156769744138184,0.09007887341505377
0.162,0.0095,0.767,0.007285703409877054,1.0089244520095906,0.04138887165212289,0.09007887341505384
0.163,0.0052,-1.233,0.0072563411630183604,1.0062363704648025,0.040998226591638307,0.0892557812755917
0.164,-0.0014,0.767,0.00727207877196035,1.0062363704648025,0.04120760495517475,0.0892557812755917
0.165,-0.0101,0.767,0.0072698029880068,0.9989637380119766,0.04117732717144577,0.08702889696967295
0.166,-0.0177,0.767,0.007294238600990226,1.006236370464805,0.04150242666256533,0.08925578127559244
0.167,-0.0086,-0.233,0.0073797769417501685,0.9815016385516416,0.04264045708853136,0.08168199191309992
0.168,-0.005,-0.233,0.007511902335373526,0.9815016385516416,0.04439829710097796,0.08168199191309992
0.169,-0.0039,-1.233,0.0074842542193117425,1.0196059122668844,0.04403045740453994,0.09334954278622763
0.17,-0.0032,0.767,0.0075847153967699725,0.9979213226400241,0.045367026194162496,0.08670970877377458
0.171,0.0052,-0.233,0.007549626561578105,0.9933180756499771,0.04490019270516462,0.08530019185608405
0.17200000000000001,0.017399999999999687,-1.233,0.0075215607048299635,0.9933180756499771,0.04452679524822978,0.08530019185608405
0.17300000000000001,0.0061999999999998775,0.767,0.007616814209352197,1.0087193031990251,0.045794079431709746,0.09001605672940537
0.17400000000000002,0.0017999999999998972,-0.233,0.007926125403925031,1.0087193031990251,0.04990925804504833,0.09001605672940537
0.17500000000000002,-0.0018999999999998278,-0.233,0.007934659500397736,1.0114007856745044,0.05002279849203132,0.09083712822998982
0.176,0.0043,-0.233,0.007948466160755027,1.015922101358983,0.050206486875836565,0.09222155773404887
0.177,0.0118,-2.233,0.007946710299904696,1.0230741905712293,0.05018312632133332,0.0944115316292776
0.178,0.0165,-0.233,0.007953337181150192,1.0230741905712295,0.05027129254503648,0.09441153162927766
0.179,0.0081,-0.233,0.007958896549439032,1.023074190571237,0.05034525622267675,0.09441153162927997
0.18,0.0027,-0.233,0.007980126408023364,1.0230741905712368,0.05062770529514273,0.0944115316292799
0.181,0.0002,0.767,0.007993129190040641,0.9987565432308089,0.0508006986151721,0.08696545380663075
0.182,-0.006,0.767,0.008010725191136686,0.9941571635710864,0.05103480164364712,0.08555712106774499
0.183,-0.0136,-1.233,0.008022144069538703,1.0014647019556062,0.05118672218520136,0.08779469359034135
0.184,-0.0143,0.767,0.008021071322117676,1.0014647019556062,0.05117244999809018,0.08779469359034135
0.185,-0.0081,1.767,0.008024443504244947,1.0014647019556047,0.05121731462638013,0.08779469359034088
0.186,-0.0074,0.767,0.007958922647041441,1.010576015347842,0.05034560343382583,0.09058458307411324
0.187,-0.0052,-0.233,0.007926254417422616,1.0132525842123465,0.04991097448336485,0.09140415002414656
0.188,-0.0001,0.767,0.007877112257168046,1.0132525842123465,0.049257170901596176,0.09140415002414656
0.189,0.0089,0.767,0.007885223142228058,1.006030673503388,0.04936508080372663,0.08919279674583297
0.19,0.0024,-0.233,0.007867207613912408,1.0060306735033875,0.04912539624612456,0.08919279674583283
0.191,0.0013,0.767,0.007862782452920153,1.0060306735033875,0.049066522438142746,0.08919279674583283
0.192,0.0025,-0.233,0.007866682591317063,1.0060306735033775,0.04911841117156602,0.08919279674582978
0.193,-0.0106,0.767,0.007935369379814062,1.0060306735033775,0.05003224296298281,0.08919279674582978
0.194,-0.0015,1.767,0.007938910098547462,1.0060306735033748,0.05007934985812011,0.08919279674582896
0.195,0.0,-0.233,0.007894071068841569,0.9812907567398191,0.049482796550880864,0.08161741977911717
0.196,-0.0075,-0.233,0.007934418082850612,0.9738318468194007,0.050019586592998114,0.0793334972037934
0.197,-0.0039,-0.233,0.007889880040287015,0.9812907567398198,0.0494270377184228,0.08161741977911738
0.198,0.0099,-0.233,0.007906155907347338,0.9886933966838919,0.0496435772463008,0.08388411245480949
0.199,0.0045,-2.233,0.008039137049872214,0.9710466256895229,0.05141280242565926,0.07848066086662528
0.2,0.003,-0.233,0.008060288917901235,0.9960410212584847,0.051694213885937625,0.08613395939222562
0.201,-0.0013,-0.233,0.00806224954699232,1.0006317418492638,0.05172029874495951,0.0875396407191421
0.202,-0.0104,0.767,0.007956520600583898,1.0006317418492634,0.05031364581191054,0.08753964071914196
0.203,-0.0093,0.767,0.008024720805282194,1.0006317418492634,0.051221003931254824,0.08753964071914196
0.20400000000000001,-0.0017000000000000693,-0.233,0.00802254433132157,1.000631741849263,0.05119204740057504,0.08753964071914182
0.20500000000000002,-0.004199999999999831,-1.233,0.008014086516565096,0.9960410212584836,0.05107952183081838,0.08613395939222529
0.20600000000000002,0.0019000000000002526,0.767,0.008023809618091146,0.971046625689516,0.051208881194971294,0.07848066086662317
0.20700000000000002,0.0110000000000001,-0.233,0.00799464139866891,0.9663153638933556,0.050820817539786366,0.07703194574051107
0.20800000000000002,0.014599999999999788,-2.233,0.00797626289671861,0.9663153638933557,0.050576303860688766,0.0770319457405111
0.209,0.007,0.767,0.007980899666054794,0.9691141827014116,0.05063799297618812,0.07788894569468148
0.21,0.0095,0.767,0.008040201779967775,0.9615608226886642,0.051426967947616135,0.07557610244590635
0.211,0.0012,-0.233,0.008103689294111316,0.964373440294981,0.05227162687041504,0.07643732760016583
0.212,0.0135,-0.233,0.008105834270553842,0.9671778786567911,0.05230016434767832,0.07729604826497885
0.213,0.0055,-0.233,0.008144854671509215,0.9643734402949792,0.05281930469019713,0.07643732760016529
0.214,0.0011,-0.233,0.008131940500290778,0.9567826550283248,0.05264749027759401,0.07411302471677904
0.215,-0.0113,-1.233,0.008141634584577454,0.953947657026513,0.05277646358678032,0.07324494667234374
0.216,-0.0127,-0.233,0.008136760838081836,0.9511042086594381,0.05271162164863677,0.07237428112112798
0.217,-0.0142,-0.233,0.008071334992541018,0.9511042086594381,0.05184117452272206,0.07237428112112798
0.218,-0.0106,2.767,0.008321744435239547,0.9539476570265125,0.0551727047138428,0.0732449466723436
0.219,-0.0167,0.767,0.008565918932496258,0.9567826550283243,0.05842128312504839,0.07411302471677886
0.22,-0.0022,0.767,0.00868429583862082,0.9519805051556479,0.05999620870467296,0.07264260362022291
0.221,-0.0004,-0.233,0.008681700332734134,0.9567826550283243,0.05996167723441552,0.07411302471677886
0.222,0.0123,1.767,0.008669222125950843,0.9567826550283243,0.05979566303710096,0.07411302471677886
0.223,0.0236,-0.233,0.008493618436255625,0.9491311635278477,0.05745937336851949,0.07177013354913005
0.224,0.0069,0.767,0.008482937900541575,0.9539476570265126,0.05731727598271308,0.07324494667234363
0.225,0.0047,-1.233,0.008582909611783686,0.9539476570265125,0.05864733275162683,0.0732449466723436
0.226,-0.0051,-1.233,0.008587569522365994,0.9539476570265125,0.05870932974593176,0.0732449466723436
0.227,-0.0033,0.767,0.008583951528681895,0.9567826550283243,0.058661194759247685,0.07411302471677886
0.228,0.0047,1.767,0.008521006033489533,0.9307345927794898,0.05782374703615657,0.06613709283822165
0.229,-0.0058,-0.233,0.008392601229681385,0.9307345927794898,0.056115406983314395,0.06613709283822165
0.23,-0.0047,-0.233,0.008355940472699223,0.9385360758008858,0.05562766012601056,0.06852591149720501
0.231,-0.0058,0.767,0.008358480832732903,0.9385360758008858,0.055661457917568734,0.06852591149720501
0.232,-0.0055,-1.233,0.008358963928378827,0.9385360758008858,0.055667885182100973,0.06852591149720501
0.233,-0.0001,-0.233,0.008339718833958594,0.9385360758008858,0.05541184206966465,0.06852591149720501
0.234,0.0024,0.767,0.008246949422457635,0.9567826550283243,0.05417760708276747,0.07411302471677886
0.23500000000000001,-0.0076999999999997504,-2.233,0.008197455739155316,0.9793785269817894,0.05351912672190521,0.08103189391003347
0.23600000000000002,0.0012999999999999722,0.767,0.008157198007628744,0.9886933966838827,0.05298352452351576,0.08388411245480666
0.23700000000000002,0.00030000000000014986,-0.233,0.008157799001852062,0.9886933966838827,0.05299152034978372,0.08388411245480666
0.23800000000000002,0.00569999999999987,-0.233,0.008142705545505698,0.9960410212584805,0.052790712005799614,0.08613395939222433
0.23900000000000002,0.000999999999999878,-0.23299999999977797,0.008155583763423988,0.9933180756499702,0.05296204808378557,0.08530019185608194
0.24,-0.0034,0.767,0.008168296664387868,0.99792132264002,0.05313118473023737,0.08670970877377332
0.241,-0.0027,-2.232999999999556,0.008179017808090923,0.9979213226400199,0.053273822378183705,0.08670970877377329
0.242,-0.011,-0.233,0.008208061302004386,0.9952035216793247,0.05366022664387597,0.08587751653179751
0.243,-0.0121,-1.232999999999778,0.00820902355691454,0.9952035216793247,0.0536730288020142,0.08587751653179751
0.244,0.001,-0.233,0.008152966968990488,0.9924782783246459,0.05292723338364801,0.0850430454244359
0.245,0.01,-0.23300000000022206,0.008157383006334019,0.9842572748505461,0.05298598580758437,0.0825257693577398
0.246,-0.0012,-1.233,0.008158290741936294,0.9870052176725816,0.05299806262278728,0.08336719105526764
0.247,-0.0056,-1.233,0.008140745119785313,0.9943653167202805,0.052764629852488906,0.08562085768363677
0.248,0.0147,-1.233,0.008175799899137167,0.9970854024169145,0.05323101025130788,0.0864537495130918
0.249,0.0061,-2.232999999999778,0.008121453989806736,0.9970854024169145,0.052507974267731905,0.0864537495130918
0.25,-0.0019,-1.233,0.008121643447792499,0.9721178595963833,0.052510494879545566,0.07880867331474899
0.251,0.0003,-0.23299999999977797,0.008206116953860539,0.9721178595963832,0.05363435839197033,0.07880867331474896
0.252,0.0116,0.767,0.008248119978206821,0.9795898204501601,0.05419318054428225,0.08109659209349178
0.253,0.0018,-0.23299999999977797,0.008196241111500923,0.9795898204501601,0.053502966913161684,0.08109659209349178
0.254,-0.0,0.767,0.008144525848155384,0.9768210172354505,0.05281492991535228,0.08024878293153992
0.255,0.0047,-0.23299999999977797,0.00814312553954677,0.9768210172354505,0.052796299745674125,0.08024878293153992
0.256,0.0033,0.767,0.008132207057939609,0.9693277135879159,0.05265103664886972,0.07795432897687948
0.257,0.0098,0.767,0.008164390780466489,0.9665295131101275,0.05307921955645296,0.07709751835579823
0.258,0.0037,0.767,0.00821013099903559,0.9693277135879159,0.053687762578909504,0.07795432897687948
0.259,0.0113,-0.23299999999977797,0.008099542839734039,0.9464919261037605,0.052216461067579746,0.07096199750796255
0.26,0.0106,0.767,0.008072903263269655,0.943626011491274,0.05186203931609407,0.07008445277927637
0.261,0.0023,0.766999999999778,0.00801878009205244,0.9569989373973237,0.05114196671417374,0.07417925050452434
0.262,0.0124,-0.233,0.008021447740075361,0.964588020640382,0.05117745798731373,0.07650303222729112
0.263,-0.0024,-0.233,0.00790890591883371,0.9897455310985631,0.04968016431024713,0.08420627662726646
0.264,-0.0042,-0.233,0.007935349207068449,0.9897455310985632,0.050031974578091554,0.08420627662726649
0.265,-0.0097,-0.23299999999977797,0.007945108007024247,0.9897455310985631,0.050161808885981415,0.08420627662726646
0.266,-0.0144,0.767,0.007906907186459092,0.9897455310985631,0.04965357251251679,0.08420627662726646
0.267,-0.022,0.767,0.007809052191674929,0.9897455310985631,0.048351677240668405,0.08420627662726646
0.268,-0.0209,0.767,0.007716232201252937,0.992478278324646,0.047116769335048034,0.08504304542443594
0.269,-0.0148,0.767,0.007649608427214529,0.9532902931931194,0.04623038457150466,0.07304366148250936
0.27,-0.0024,-1.233,0.0074648082399427825,0.9532902931931194,0.04377174165218871,0.07304366148250936
0.271,0.0023,-0.233,0.007462988470589182,0.9580858781251659,0.043747530837783856,0.07451207239040902
0.272,0.0009,-0.233,0.007477549937039358,0.9609086670852475,0.0439412614119306,0.07537641201913367
0.273,0.0045,-1.233,0.007375978499139319,0.9475909190483363,0.04258992134953961,0.07129850978965226
0.274,0.0132,-0.233,0.00698925281132092,0.9475909190483363,0.03744479466915303,0.07129850978965226
0.275,-0.0034,-0.233,0.006971705165664,0.9447283383312866,0.037211334977461215,0.07042198590169658
0.276,0.0035,0.767,0.006956032099912599,0.9447283383312866,0.037002815317916764,0.07042198590169658
0.277,0.0056,-0.233,0.006937290678005302,0.9628575785802993,0.03675347323146892,0.07597316985752398
0.278,0.0074,-0.233,0.006993942037684055,0.9600405199848809,0.03750718169031897,0.07511058486980704
0.279,0.002,-1.233,0.0069841993602265395,0.9515393056320958,0.037377561881487956,0.07250750806835086
0.28,0.0034,-0.233,0.006967363323467008,0.9676057479139756,0.0371535696703367,0.07742706208150124
0.281,-0.0009,0.767,0.006965180550675537,0.9676057479139756,0.0371245293379244,0.07742706208150124
0.28200000000000003,-0.0020000000000002,0.767,0.006971375721881468,0.9648025532612812,0.03720695194822735,0.07656872224114607
0.28300000000000003,-0.005600000000000305,-2.233,0.0069675970384223225,0.9648025532612812,0.03715667909153645,0.07656872224114607
0.28400000000000003,-0.011099999999999395,-2.233,0.0071091627870251365,0.9648025532612812,0.039040116714400726,0.07656872224114607
0.28500000000000003,-0.00019999999999957256,-2.233,0.007145880970780283,0.9619911902729726,0.03952862759651894,0.07570788125165367
0.28600000000000003,0.007499999999999495,0.767,0.007114879866057321,0.9389769965301815,0.03911617862802303,0.06866092168211285
0.28700000000000003,-0.001599999999999656,-1.233,0.007114084577207049,0.9360880745934989,0.03910559784166454,0.06777633209731633
0.28800000000000003,0.0046000000000003,-0.233,0.007114033156935518,0.943845308712973,0.03910491372933557,0.07015160171667982
0.289,0.01,-1.233,0.007091730622555045,0.9467105594616361,0.03880819342267961,0.0710289431698754
0.29,-0.0048,-0.233,0.0071404280634247514,0.9543814576884279,0.03945608031040798,0.07337777668845985
0.291,-0.007,-0.233,0.007214798909662567,0.9591715871240846,0.04044553468924614,0.07484451712017773
0.292,0.0028,-0.233,0.007214306000532253,0.9360880745935101,0.040438976862866176,0.06777633209731976
0.293,0.0046,-0.233,0.007135652837915034,0.9619911902729835,0.03939254912810274,0.07570788125165702
0.294,0.0031,-1.233,0.0070416573974987455,0.9619911902729864,0.03814200264630908,0.0757078812516579
0.295,-0.0012,0.767,0.007045469158572527,0.9648025532612948,0.038192715578544346,0.07656872224115024
0.296,0.0053,-1.233,0.006990319167185266,0.9723307308538778,0.03745898182087647,0.0788738546181588
0.297,-0.0085,0.767,0.006989999547410212,0.9676057479139886,0.03745472949349298,0.07742706208150522
0.298,-0.003,-0.233,0.006968235266621194,0.9628575785803124,0.037165170290951496,0.07597316985752799
0.299,-0.0045,-0.233,0.006812128138370183,0.9552547478271013,0.03508826933540916,0.07364517863912076
0.3,-0.0121,-0.233,0.006827537933741722,0.9291638534077733,0.035293286358593384,0.06565613152493475
0.301,-0.0084,-1.233,0.006855891417029958,0.9212830092302031,0.03567051049431385,0.06324301243356602
0.302,-0.0048,0.767,0.006856688236810399,0.9242182100093767,0.03568111164867454,0.06414177262697056
0.303,-0.0015,-0.233,0.0067596315497068255,0.9212830092302038,0.0343898373267034,0.06324301243356623
0.304,-0.0008,-0.233,0.006769209842452162,0.9291638534077745,0.03451727010685977,0.06565613152493513
0.305,-0.0001,-0.233,0.006820918535329119,0.9262443251447793,0.035205219688978245,0.06476217026514068
0.306,0.0075,-0.233,0.006810928361280931,0.929163853407775,0.03507230710350455,0.06565613152493527
0.307,0.014,0.767,0.006804627882508019,0.9262443251447798,0.03498848344644005,0.06476217026514085
0.308,0.0057,0.767,0.006758722390057182,0.9311792075801282,0.03437774156550248,0.06627323414993282
0.309,0.0024,-0.233,0.006752210100647104,0.9282660179134421,0.0342910999095442,0.0653812137720314
0.31,0.0017,1.767,0.006659002775786765,0.9282660179134427,0.03305103877822472,0.06538121377203157
0.311,0.0024,-1.233,0.006631460445331921,0.9253436569168252,0.03268460648855022,0.06448638512754704
0.312,0.0016,-2.233,0.006630802064933364,0.9302833171474448,0.03267584717759374,0.06599891197604238
0.313,0.0085,-0.233,0.006514893248912103,0.9302833171474448,0.031133757886429157,0.06599891197604238
0.314,0.0041,-0.233,0.006523831488938861,0.9302833171474448,0.0312526751931558,0.06599891197604238
0.315,-0.0082,-1.233,0.006510392626339799,0.9563436709308377,0.0310738801125845,0.07397860752966241
0.316,-0.0028,-0.233,0.006444534211817638,0.9591715871240911,0.030197677945623592,0.07484451712017973
0.317,-0.0076,0.767,0.006302830747881634,0.9639379131006228,0.028312408112338823,0.07630396891880692
0.318,-0.0032,-0.233,0.005952166264048954,0.9639379131006228,0.023647051637547982,0.07630396891880692
0.319,0.0004,0.767,0.005654902245631477,0.9611240209754968,0.01969215264724119,0.07544235350614342
0.32,0.0015,-1.233,0.0054597258090812026,0.9583018663654113,0.017095460669672956,0.07457820811575819
0.321,0.0047,0.767,0.0054870879056920984,0.9583018663654085,0.017459495068572636,0.07457820811575733
0.322,0.0,0.767,0.005482684131561125,0.9583018663654085,0.01740090579847918,0.07457820811575733
0.323,0.0008,-0.233,0.005483555191299004,0.9611240209754922,0.017412494665830752,0.07544235350614203
0.324,0.0048,-0.233,0.005501196420699558,0.9535073677286269,0.017647199426653975,0.07311012983210241
0.325,-0.0003,-1.233,0.005354285780221878,0.9535073677286264,0.015692651591421105,0.07311012983210227
0.326,0.0004,-2.233,0.005436454080090852,0.9563436709308274,0.016785845876814393,0.07397860752965925
0.327,0.0095,-0.233,0.0054384584567184445,0.961124020975486,0.016812512767556374,0.07544235350614012
0.328,0.0029,-1.233,0.0054130024508051875,0.963937913100612,0.016473837630822556,0.07630396891880362
0.329,-0.0032,1.767,0.0053698122159794815,0.9714727910220033,0.015899220436946745,0.0786111529404078
0.33,0.0044,-0.233,0.005387422929969781,0.9639379131006092,0.01613351921064159,0.07630396891880274
0.331,-0.0065,-0.233,0.005379532477603787,0.9639379131006091,0.01602854201810593,0.0763039689188027
0.332,-0.005,-1.233,0.005379228689251944,0.9611240209754831,0.016024500317222103,0.07544235350613925
0.333,-0.0141,-0.233,0.0055308102967848785,0.9583018663653975,0.018041192245739194,0.07457820811575397
0.334,-0.0076,-0.233,0.005623514393037833,0.9322962513668912,0.019274558256936726,0.06661527361004606
0.335,-0.0039,0.767,0.00551685294694737,0.9055441091112628,0.017855499039162823,0.058423752022066476
0.336,-0.0007,-0.233,0.005526182428501879,0.8779772017424279,0.017979621552800494,0.04998274888041581
0.337,0.0001,-1.233,0.005495275210724327,0.9025481798382923,0.017568421687332865,0.0575063967283821
0.338,0.0008,0.767,0.005527583791767849,0.8944328558064552,0.017998265753989533,0.05502147976864751
0.339,0.0084,-1.233,0.00553195368827395,0.9215076235781872,0.018056404304937372,0.06331178947814435
0.34,0.0109,-1.233,0.005442083503306267,0.9135607352165452,0.016860741588408345,0.06087844761902809
0.341,0.0026,0.767,0.005536900555182295,0.9135607352165458,0.018122219061278047,0.060878447619028254
0.342,-0.0029,-2.233,0.005534401446557277,0.9215076235781878,0.0180889700921281,0.06331178947814456
0.343,0.0037,-1.233,0.005527406497355899,0.947809298898959,0.017995906970391905,0.07136537782749622
0.34400000000000003,-0.0025000000000001224,0.767,0.0055124417029864215,0.9506626024494773,0.01779681038797648,0.07223906104164
0.34500000000000003,-0.004699999999999795,-1.233,0.0055039055311942205,0.9506626024494773,0.017683242330255314,0.07223906104164
0.34600000000000003,-0.0009999999999998834,0.767,0.005525986059260752,0.9554713760561641,0.017977008991355632,0.0737115103294197
0.34700000000000003,0.001099999999999978,0.767,0.005500808794354807,0.9506626024494772,0.017642042317335346,0.07223906104163998
0.34800000000000003,0.0006999999999995392,-0.233,0.005448570868276219,0.9506626024494772,0.016947051641357246,0.07223906104163998
0.34900000000000003,-0.007599999999999939,-0.233,0.005463296474643823,0.9506626024494772,0.01714296598734816,0.07223906104163998
0.35000000000000003,-0.006499999999999578,-0.233,0.00544643446502877,0.953507367728582,0.01691862822472174,0.07311012983208867
0.35100000000000003,0.0010999999999998613,0.767,0.005324851479888714,0.953507367728582,0.015301047907639469,0.07311012983208867
0.352,-0.0014,-0.233,0.005259996022802453,0.9486886388831915,0.01443818941870484,0.0716346322444018
0.353,-0.004,-1.233,0.005238477196940065,0.9486886388831915,0.014151895829831179,0.0716346322444018
0.354,0.0084,-0.233,0.005236286494480526,0.9563436709307832,0.014122749998487652,0.07397860752964572
0.355,0.0029,0.767,0.005357959003817806,0.9563436709307832,0.015741521375150887,0.07397860752964572
0.356,0.0015,-0.233,0.005448330512226248,0.9639379131005739,0.016943853864833852,0.07630396891879193
0.357,0.0058,-1.233,0.005425500441482013,0.9639379131005739,0.016640115039611478,0.07630396891879193
0.358,0.0022,-0.233,0.005284642953057596,0.9611240209754476,0.014766100344820806,0.07544235350612837
0.359,-0.0015,-0.233,0.005254220131065354,0.9658807123359796,0.014361345041370575,0.07689885517970765
0.36,0.0087,-0.233,0.00524906856379035,0.9658807123359796,0.014292806883530705,0.07689885517970765
0.361,0.0021,-1.233,0.005250116018516924,0.9526324757460156,0.014306742568254918,0.0728422373958919
0.362,0.001,-0.233,0.005283403304824765,0.9611240209754478,0.014749607654011943,0.07544235350612843
0.363,0.0042,-0.233,0.00528176957406917,0.9351968867192437,0.01472787195875312,0.06750344984956398
0.364,-0.0005,-2.232999999999334,0.00521462429808855,0.9429614521880995,0.01383454896058694,0.06988096433239127
0.365,-0.003,0.767,0.005279692629375066,0.9506626024494773,0.014700239598411075,0.07223906104164
0.366,-0.0052,-1.232999999999556,0.005284444799613435,0.9506626024494773,0.014763464045747635,0.07223906104164
0.367,-0.0074,0.767,0.00531112521235616,0.9583018663653622,0.015118429096610216,0.07457820811574316
0.368,-0.0096,-0.233,0.005348956670607524,0.9630724966719708,0.015621751351475333,0.0760389779027546
0.369,-0.0016,-0.233,0.005396194061508503,0.9658807123359797,0.01625021325067715,0.0768988551797077
0.37,0.006,-1.232999999999778,0.005397430633184786,0.9630724966719707,0.016266665009958367,0.07603897790275457
0.371,-0.0006,-0.233,0.0054062031875382315,0.9630724966719707,0.016383377979592415,0.07603897790275457
0.372,-0.0013,0.766999999999778,0.005385957426869314,0.9602560685719754,0.016114021671843635,0.07517658597310453
0.373,0.0063,-0.233,0.005500827916775395,0.9574313555616557,0.017642296728354472,0.07431165719907289
0.374,0.0038,-0.23299999999977797,0.005506493470209697,0.9602560685719754,0.017717673128351135,0.07517658597310453
0.375,-0.01,0.767,0.0054862906553060625,0.9855241671293268,0.017448888185292444,0.08291369251365427
0.376,0.0038,-1.232999999999556,0.005490677082524943,0.978097541461295,0.01750724666632004,0.08063965539527261
0.377,0.0019,0.767,0.005503111551130023,0.9686807869878169,0.017672678956420388,0.0777562396739776
0.378,-0.0028,-1.232999999999778,0.0055349395173242355,0.9714727910219683,0.018096128763884903,0.07861115294039704
0.379,0.0048,-0.233,0.005533618715118766,0.9639379131005739,0.018078556373736187,0.07630396891879193
0.38,-0.0017,-0.233,0.005561011916982498,0.9478092988989589,0.018443004607225366,0.07136537782749619
0.381,-0.0007,-0.233,0.0055462669207475305,0.9734005515952736,0.018246832292014806,0.07920143435419165
0.382,-0.013,-0.233,0.005639555973054517,0.9734005515952736,0.019487980752362365,0.07920143435419165
0.383,-0.0116,-0.233,0.005635859209537051,0.9686807869878168,0.01943879778571721,0.07775623967397757
0.384,0.0022,-0.233,0.005459554694664824,0.9761790565580987,0.017093184106783964,0.08005221419708447
0.385,-0.0032,-0.233,0.0054515073424758875,1.001045312275776,0.016986119467019955,0.08766627622535887
0.386,0.0047,-2.232999999999556,0.005461441441872734,0.998336015884747,0.017118286016753595,0.08683668808758344
0.387,0.0062,-0.233,0.005461043919562564,0.998336015884747,0.017112997248232314,0.08683668808758344
0.388,0.0051,-2.232999999999556,0.005484641376910879,0.993734689867463,0.017426945639085308,0.08542775937287525
0.389,-0.001,-0.233,0.00549577416064421,0.993734689867463,0.01757505988237868,0.08542775937287525
0.39,0.0113,-0.23300000000022206,0.005439291999152014,0.993734689867463,0.01682360249226121,0.08542775937287525
0.391,-0.0068,-1.233,0.005332404709278247,0.9863698852168286,0.015401538573967833,0.0831726518861381
0.392,0.0001,-2.232999999999334,0.005326628235371599,0.9863698852168286,0.015324686451256996,0.0831726518861381
0.393,-0.0021,0.767,0.005318634858323919,0.9611240209754477,0.015218339914655269,0.07544235350612839
0.394,-0.0003,-1.233,0.005311674601678336,0.9611240209754477,0.015125738354175682,0.07544235350612839
0.395,0.0051,-1.233,0.005363947332453261,0.9658807123359797,0.015821192083365312,0.0768988551797077
0.396,0.0004,0.767,0.0053912301007404346,0.958301866365362,0.01618417107196319,0.07457820811574309
0.397,-0.0039,0.767,0.005429115721001639,0.9808627412789754,0.01668821391615214,0.08148636119494893
0.398,-0.005,-0.233,0.005434341051038088,0.9855241671293268,0.016757733438209306,0.08291369251365427
0.399,-0.0014,0.767,0.0055567048165118494,0.9855241671293267,0.018385701515538717,0.08291369251365423
0.4,0.004,-0.233,0.00564924882343447,0.9855241671293267,0.019616937645244813,0.08291369251365423
0.401,0.0015,0.767,0.005634814421506413,0.9855241671293267,0.01942489757959926,0.08291369251365423
0.402,0.0008,0.767,0.005663726060902931,0.9827720831297948,0.01980954760911215,0.08207100278515761
0.403,0.0001,-1.233,0.005663726060902931,0.9827720831297948,0.01980954760911215,0.08207100278515761
0.404,0.0114,-0.233,0.0056499172134311755,0.9753245018946017,0.019625830127211433,0.07979054905986836
0.405,0.0099,-1.233,0.005686722454021807,0.9753245018946017,0.02011549924231255,0.07979054905986836
0.406,0.0056,-0.233,0.005685280542643424,0.9753245018946018,0.020096315575601598,0.0797905490598684
0.40700000000000003,0.006699999999999656,-0.233,0.005697993140252482,0.9753245018946017,0.020265448186120336,0.07979054905986836
0.40800000000000003,0.0004999999999999445,-1.233,0.005692216702246371,0.9678196116077776,0.020188596541042148,0.07749254726948823
0.40900000000000003,-0.0004999999999998612,-0.233,0.005721535043926398,0.9706140928449917,0.020578657472483122,0.07834821905693272
0.41000000000000003,0.002000000000000244,0.767,0.005752141874493427,0.9706140928449917,0.020985860886977896,0.07834821905693272
0.41100000000000003,0.006399999999999695,1.767,0.005687995222712384,0.9706140928449917,0.0201324325786647,0.07834821905693272
0.41200000000000003,0.0008999999999998834,-0.233,0.005756291873446235,0.9658807123359796,0.02104107384802044,0.07689885517970765
0.41300000000000003,-0.001200000000000444,-1.233,0.005781509961942608,0.9658807123359796,0.021376583652613423,0.07689885517970765
0.41400000000000003,-0.009199999999999962,-1.233,0.005766804392811381,0.9658807123359796,0.02118093588865399,0.07689885517970765
0.41500000000000004,-0.008499999999999862,-1.233,0.005769434757066451,0.9429614521881151,0.02121593112619365,0.06988096433239606
0.41600000000000004,-0.006000000000000217,-1.233,0.0057776917473281834,0.9400847747389819,0.02132578486033526,0.06900012401684073
0.417,-0.0099,-1.233,0.005754095036544992,0.9322962513668763,0.021011846402032026,0.0666152736100415
0.418,-0.0078,0.767,0.005776898543351233,0.9293865631135697,0.02131523181182219,0.0657243253669625
0.419,-0.0012,-0.233,0.005751041253236699,0.9371992675409946,0.02097121785712142,0.06811658002702771
0.42,-0.0034,-1.233,0.005767278499541299,0.9400847747389878,0.021187243561669483,0.06900012401684254
0.421,0.0003,-0.233,0.0057392511019197815,0.9351968867192683,0.020814357777697492,0.06750344984957149
0.422,0.0112,-0.233,0.0058303152707463715,0.9351968867192683,0.022025905651075206,0.06750344984957149
0.423,-0.0026,0.767,0.005900719098072257,0.9400847747389924,0.022962581495959464,0.06900012401684397
0.424,-0.0008,-2.233,0.005884275771176883,0.9400847747389924,0.022743814026953278,0.06900012401684397
0.425,-0.0022,-0.233,0.005914665922681871,0.9429614521881262,0.023148134671416725,0.06988096433239946
0.426,-0.0037,1.767,0.005880951164072923,0.940084774738993,0.022699582352535986,0.06900012401684413
0.427,0.0112,0.767,0.005869435935069941,0.9351968867192765,0.022546379930663694,0.067503449849574
0.428,-0.0026,-0.233,0.005890154126031326,0.9351968867192765,0.022822021607548686,0.067503449849574
0.429,0.0064,-0.233,0.00592955545770037,0.9351968867192795,0.02334622997849186,0.06750344984957492
0.43,0.0017,-2.233,0.0059225474702886,0.9351968867192795,0.02325299339208479,0.06750344984957492
0.431,-0.0121,-0.233,0.005981011091178054,0.9351968867192795,0.024030812774518965,0.06750344984957492
0.432,0.0046,0.767,0.006063890965114898,0.9380885531473612,0.025133474077069354,0.06838887979924123
0.433,-0.0019,-1.233,0.005932960920693155,0.9409713333374115,0.023391537386443183,0.06927158877763075
0.434,-0.007,-2.233,0.005945000457984874,0.94384530871296,0.023551715379502236,0.07015160171667584
0.435,-0.0051,-0.233,0.0059788438378002556,0.9467105594616231,0.024001978917528047,0.07102894316987143
0.436,0.0003,-0.233,0.005970221758189645,0.9495671645612099,0.02388726791372785,0.07190363732026886
0.437,0.0051,0.767,0.005952023517656705,0.9398646000778741,0.023645152492250878,0.06893270640697768
0.438,0.0036,0.767,0.005925899148263187,0.9398646000778741,0.023297585226334013,0.06893270640697768
0.439,-0.0029,-1.233,0.005924217172058187,0.9133341665091234,0.023275207657631653,0.0608090721484481
0.44,-0.0018,-0.233,0.0059837781335356326,0.9212830092301864,0.02406762642281848,0.06324301243356088
0.441,-0.0007,0.767,0.0058840070346467726,0.9242182100093588,0.02274023866711911,0.06414177262696509
0.442,-0.0,-0.233,0.005855975452632046,0.9242182100093558,0.02236729721259349,0.06414177262696417
0.443,0.0025,-1.233,0.005863561792984656,0.8972252409212976,0.02246822839814493,0.055876509722197217
0.444,0.0079,-1.233,0.005881177475797606,0.9023188459258362,0.022702593278702582,0.057436174550405145
0.445,0.0072,-0.233,0.005883598151309132,0.921283009230202,0.022734798747724237,0.06324301243356567
0.446,0.0065,-2.233,0.005862483517156502,0.9133341665091343,0.022453882659273665,0.060809072148451465
0.447,-0.0026,-1.233,0.005862444229249541,0.9369784148329701,0.02245335995994262,0.06804895479880263
0.448,-0.0116,-0.233,0.005877215992114451,0.9504448781910323,0.022649888387266236,0.07217239374650389
0.449,-0.0127,-0.233,0.005877215992114452,0.9504448781910323,0.02264988838726625,0.07217239374650389
0.45,-0.0051,-0.233,0.006087292158781618,0.9504448781910358,0.02544481131087647,0.07217239374650498
0.451,-0.0058,-0.233,0.00609835551468859,0.9897455310985762,0.0255920018633652,0.08420627662727047
0.452,-0.0014,-0.233,0.006162875162249869,1.0025034328850269,0.026450392631119313,0.08811275360778392
0.453,-0.0007,-0.233,0.006162459443294649,0.9997980877805213,0.026444861768403386,0.08728437535625044
0.454,0.0106,-0.233,0.00620652159341056,0.995203521679328,0.027031079212182375,0.08587751653179854
0.455,0.0026,0.767,0.006119964627195309,0.995203521679328,0.025879496655668736,0.08587751653179854
0.456,0.0041,-0.233,0.006041075787655291,1.0033348391304584,0.024829933397040094,0.0883673306858645
0.457,0.0052,-0.233,0.006114666813611445,1.0105760153478147,0.025809012788481585,0.09058458307410489
0.458,0.0062,0.767,0.006080188177505257,1.0132525842123192,0.025350297590290276,0.0914041500241382
0.459,-0.0061,-0.233,0.006080035166510493,1.00871930319901,0.02534826188132045,0.09001605672940075
0.46,-0.0014,-0.233,0.006081168649947119,1.0087193031990096,0.025363342120506165,0.0900160567294006
0.461,0.0091,0.767,0.006082739238879128,1.0087193031990096,0.025384237756023893,0.0900160567294006
0.462,0.0055,-0.233,0.00605051737452506,0.9960410212584714,0.02495554739693464,0.08613395939222154
0.463,-0.0007,-0.233,0.006053234846023181,0.9987565432307791,0.02499170153809616,0.08696545380662164
0.464,-0.0018,0.767,0.006068845069322038,0.9941571635710549,0.025199385120831055,0.08555712106773533
0.465,-0.0043,-0.233,0.0059984833992361205,0.9867955119964428,0.024263270149834835,0.08330297905471834
0.466,0.0001,-0.233,0.006008822051204456,0.9821401202118114,0.024400819001015605,0.08187749537046171
0.467,-0.009,-0.233,0.00597884284951241,0.974687710164824,0.02400196576901911,0.07959556306017992
0.468,-0.0079,-1.233,0.005925638707574988,0.9671778786567772,0.0232941202371292,0.0772960482649746
0.46900000000000003,-0.004599999999999639,0.767,0.005894948461865965,0.9671778786567772,0.022885807039948306,0.0772960482649746
0.47000000000000003,0.0019000000000004662,0.767,0.005928154745601026,0.9671778786567778,0.02332759444063935,0.07729604826497481
0.47100000000000003,0.01029999999999994,-0.233,0.005965416300075199,0.9671778786567778,0.023823334506832664,0.07729604826497481
0.47200000000000003,0.00919999999999974,-1.233,0.00596695194453817,0.9746877101648214,0.023843765229556536,0.07959556306017912
0.47300000000000003,0.004500000000000144,-0.233,0.00587497343559575,0.9746877101648214,0.022620052672339373,0.07959556306017912
0.47400000000000003,0.0071000000000000394,0.767,0.005909362446036442,0.9968778172355491,0.023077575460982217,0.08639018680928101
0.47500000000000003,0.007799999999999616,-0.233,0.006013689494749598,0.979378526981774,0.02446557708261774,0.08103189391002874
0.47600000000000003,0.0009000000000002442,0.767,0.006027819009486541,0.9793785269817741,0.024653560828057735,0.08103189391002878
0.47700000000000004,0.005300000000000116,0.767,0.006044075914546191,0.9793785269817742,0.02486984807919631,0.08103189391002881
0.47800000000000004,0.007399999999999378,-1.233,0.0060087662391863856,0.9766091247250933,0.0244000764594356,0.08018390132107538
0.47900000000000004,-0.003800000000000261,-0.233,0.006019042963452775,0.9793785269817741,0.02453680140395184,0.08103189391002878
0.48,-0.0085,-0.233,0.005988064536071059,0.9867955119964383,0.024124654142317306,0.08330297905471698
0.481,-0.01,0.767,0.0060298426240753015,0.9643734402949631,0.024680483667008996,0.07643732760016037
0.482,-0.0035,0.767,0.005919814036934197,0.967177878656775,0.023216626889098823,0.07729604826497392
0.483,-0.0122,0.767,0.005925949995980269,0.967177878656775,0.0232982617212089,0.07729604826497392
0.484,-0.0067,0.767,0.005927246176942637,0.9596092775602453,0.023315506542181896,0.07497853818744042
0.485,-0.0002,0.767,0.005900651644823884,0.9336400799093026,0.02296168407559455,0.06702675469483248
0.486,0.0005,1.767,0.0058787457115698815,0.9414174856015648,0.022670240281726727,0.0694082008615684
0.487,0.0027,-0.233,0.0059051281869023624,0.9414174856015648,0.023021241474571023,0.0694082008615684
0.488,0.0049,-0.233,0.0058880355059311345,0.9385360758008697,0.022793834783796197,0.06852591149720008
0.489,0.0085,-1.232999999999556,0.005943874988721854,0.9385360758008697,0.023536741763537435,0.06852591149720008
0.49,0.003,0.767,0.005954375315215749,0.9385360758008697,0.02367644158617212,0.06852591149720008
0.491,0.0037,-1.232999999999778,0.005956370478880004,0.9385360758008697,0.023702985904597428,0.06852591149720008
0.492,0.003,-0.233,0.0059560059897602125,0.9615608226886462,0.02369813662058547,0.07557610244590084
0.493,-0.005,-1.2330000000002221,0.0059754538423290645,0.9867955119964383,0.023956877294608686,0.08330297905471698
0.494,-0.0017,-2.233,0.005985635567331222,0.9949955438826562,0.024092338337438512,0.08581383360895152
0.495,-0.001,-0.2330000000004441,0.00593378709136757,0.9903786980643798,0.02340252903482182,0.08440015272211236
0.496,-0.0003,-2.233,0.006036621956905982,0.9931097030018248,0.024770678157111592,0.08523638802948302
0.497,-0.0057,1.7669999999995558,0.00618673226997043,0.9708334728708123,0.026767795496551818,0.0784153933490066
0.498,-0.005,-0.233,0.006327265067537675,0.9884840491529066,0.02863749039660236,0.08382001011851543
0.499,-0.0159,0.7670000000004441,0.006287627740174327,0.991220274230911,0.028110142260752258,0.08465784383597515
0.5,-0.0054,2.767,0.006289657923303229,0.9939489668303293,0.028137152489737846,0.08549337110409114
0.501,-0.009,1.7669999999995558,0.006282976130284022,0.996670188818626,0.02804825570160392,0.08632661086671715
0.502,-0.0003,-0.233,0.006299804452862062,0.9966701888186259,0.028272145280728755,0.08632661086671713
0.503,0.0074,0.766999999999778,0.006307833279295962,0.9993840012209682,0.028378963447709814,0.087157581809795
0.504,0.0048,-0.233,0.006308092347589435,1.02368674342451,0.028382410178120484,0.09459909567082167
0.505,-0.0013,1.7669999999993338,0.006224909327235463,1.02368674342451,0.027275715715198393,0.09459909567082167
0.506,0.011,-1.233,0.006221824802319282,1.0236867434245103,0.02723467817375115,0.09459909567082174
0.507,-0.0016,0.767,0.0062486861079681655,1.0263291213250045,0.027592049883770547,0.09540819332769986
0.508,-0.0002,0.767,0.0062274273148176735,1.0334091874292,0.02730921585624978,0.09757611370516561
0.509,0.0013,-0.23299999999977797,0.006260002216132221,1.0307849591677223,0.027742603136029196,0.09677257347835787
0.51,-0.0024,0.767,0.006255008165150571,1.0334091874292,0.027676160627144272,0.09757611370516561
0.511,0.0013,0.767,0.00625402595960305,1.0696659752058626,0.027663093039116488,0.10867796330455015
0.512,-0.002,0.767,0.006226994360024551,1.0739420213772044,0.027303455682235845,0.10998729114039382
0.513,-0.0045,0.766999999999778,0.006204581088698275,1.0764610452294279,0.027005262094563644,0.11075861771562473
0.514,-0.0002,-0.233,0.006259666537963203,1.0764610452294279,0.027738137162451954,0.11075861771562473
0.515,-0.0092,0.766999999999778,0.006327497439490613,1.0764610452294279,0.02864058195005353,0.11075861771562473
0.516,-0.0005,-0.233,0.006447591243632037,1.078974188066197,0.030238349709735733,0.11152814352048766
0.517,-0.0059,-0.23299999999977797,0.006521895274223274,1.0814814908863608,0.031226915151074498,0.11229588110885419
0.518,0.005,0.767,0.0065005720274597745,1.095644124870452,0.03094322361133156,0.11663248790896674
0.519,0.0064,-0.23300000000022206,0.006452929063055844,1.0889687621689685,0.030309365827872192,0.11458848794984977
0.52,0.0075,-1.233,0.006467961985438719,1.0864787381090983,0.030509368807949973,0.11382604112797988
0.521,0.0014,-1.232999999999778,0.006503902997484601,1.0864787381090983,0.030987539940156218,0.11382604112797988
0.522,-0.004,-0.233,0.0064281271524287515,1.0864787381090983,0.02997939299153984,0.11382604112797988
0.523,0.0069,-2.233,0.006371724075789047,1.0864787381090983,0.029228987772502244,0.11382604112797988
0.524,0.0112,-1.233,0.006380406850132261,1.0889687621689685,0.029344506279134326,0.11458848794984977
0.525,0.0047,-0.233,0.006344070887406949,1.0864787381090983,0.028861080592234196,0.11382604112797988
0.526,0.0058,1.767,0.0063362473283078286,1.0889687621689685,0.02875699336988405,0.11458848794984977
0.527,0.0091,-0.233,0.006338429480074252,1.0864787381090986,0.028786025439973346,0.11382604112797995
0.528,0.0044,0.767,0.006481053812446332,1.0864787381090986,0.030683546812033082,0.11382604112797995
0.529,0.0019,-1.233,0.006439775825988929,1.0797467133452252,0.0301343708040138,0.11176469121225573
0.53,0.0073,0.767,0.006428972460210913,1.0797467133452252,0.02999063924634042,0.11176469121225573
0.531,-0.0039,0.767,0.006388764167662724,1.0822522264225158,0.029455694800499466,0.11253188078030886
0.532,-0.0053,0.767,0.006318991283532595,1.0822522264225158,0.02852741323293517,0.11253188078030886
0.533,0.0023,-0.233,0.006312419341578979,1.1022790625546974,0.02843997793977362,0.11866410970418804
0.534,-0.0042,-0.233,0.006193900896032097,1.099819173832583,0.02686316927277978,0.11791089034034485
0.535,-0.0006,-1.233,0.006178314779681092,1.099819173832583,0.026655806416866205,0.11791089034034485
0.536,0.0056,-0.233,0.0061808486192106715,1.1113141462909857,0.026689517457477448,0.12143065762277341
0.537,0.0024,-0.233,0.006181075955813428,1.097353770902123,0.026692542018961502,0.11715598252268465
0.538,0.0089,0.767,0.006185635960277857,1.1039784336192588,0.026753209829173365,0.11918445811697409
0.539,0.0046,-1.233,0.00629541302588606,1.1039784336192588,0.028213720281275896,0.11918445811697409
0.54,0.0024,-0.233,0.006250071843740583,1.097353770902128,0.027610486171607673,0.11715598252268615
0.541,0.0003,-2.233,0.006262804019661756,1.0948828165134583,0.02777987925847747,0.11639937484527887
0.542,-0.0048,-2.233,0.006254056797491045,1.094882816513461,0.027663503316595554,0.1163993748452797
0.543,0.0043,1.767,0.0063646272990174465,1.0973537709021306,0.029134569903034372,0.11715598252268697
0.544,0.0006,0.767,0.006348927827170369,1.1129997223254116,0.028925698928044197,0.12194678198927254
0.545,-0.0132,0.767,0.00635972494305052,1.0906888718281655,0.02906934733500566,0.11511518653242928
0.546,-0.015,0.767,0.006364568815268504,1.1047334739036143,0.029133791815861648,0.11941565189315816
0.547,-0.0135,-2.233,0.0064608535864633275,1.0822522264225198,0.030414796312832212,0.11253188078031008
0.548,-0.0092,0.767,0.006458823378266576,1.0679120040355212,0.030387785750335645,0.10814089630747546
0.549,-0.0128,0.767,0.006484979329199837,1.0679120040355212,0.03073577318752083,0.10814089630747546
0.55,-0.0042,0.767,0.006449801857633198,1.06537276656881,0.030267760450826065,0.10736338031167907
0.551,-0.0074,-0.233,0.006452390764841567,1.0360267686115903,0.030302204130080914,0.09837761859247339
0.552,0.0035,0.767,0.0063931512382375405,1.0210375272468863,0.029514061840947597,0.09378790412949142
0.553,-0.0009,-2.233,0.0063930987626636395,1.0236867434245267,0.029513363688526254,0.09459909567082678
0.554,0.0028,-0.233,0.006353528621666855,1.028154032929776,0.028986909422357054,0.09596698232724232
0.555,0.0017,0.767,0.006346784057926787,1.0307849591677403,0.028897177511755637,0.09677257347836338
0.556,0.0071,0.767,0.0064129590208302925,1.015718365893376,0.029777591143260514,0.09215917381545237
0.557,0.0006,-1.233,0.006367197451850463,1.015718365893376,0.029168764067865838,0.09215917381545237
0.558,0.0089,-0.233,0.006370521589514057,1.015718365893376,0.029212989496692966,0.09215917381545237
0.559,0.0056,0.767,0.006371242814751946,1.015718365893376,0.029222584916213615,0.09215917381545237
0.56,0.0009,2.767,0.006387141178731044,1.0228718796586571,0.029434102018024978,0.09434958390965263
0.561,0.007,-1.233,0.006382968835369521,1.0352216182118255,0.02937859177956576,0.09813108106967534
0.562,0.0015,0.767,0.006383252648035755,1.0326019960257844,0.02938236771730993,0.09732895122585729
0.5630000000000001,-0.008300000000000122,-0.233,0.00638357647105577,1.0326019960257826,0.029386675966056996,0.09732895122585675
0.5640000000000001,-0.009400000000000411,0.767,0.006382192427018643,1.0299757111601018,0.029368262185626673,0.09652478126564047
0.5650000000000001,-0.013099999999999635,0.767,0.006387379961061953,1.0299757111601018,0.029437278857268576,0.09652478126564047
0.5660000000000001,-0.009799999999999722,0.767,0.00633086944660362,1.0273427125176313,0.02868544424989572,0.09571855554304885
0.5670000000000001,-0.007299999999999079,1.767,0.00635642084779873,1.0273427125176313,0.029025388557065608,0.09571855554304885
0.5680000000000001,0.0010000000000005996,-0.233,0.006453361677152611,1.0273427125176318,0.030315121469148946,0.09571855554304899
0.5690000000000001,0.006400000000000078,-0.233,0.006486354171138245,1.0396393439937497,0.03075406454018096,0.0994837912850523
0.5700000000000001,0.007099999999999523,0.767,0.006460445463001225,1.0422412783019248,0.03040936650307325,0.1002805050903341
0.5710000000000001,0.0028000000000000776,-0.233,0.006431240141806001,1.0378346281704902,0.030020809233607962,0.09893118624560773
0.5720000000000001,0.0035000000000002334,-1.233,0.006433574489767419,1.0307849591677507,0.030051866172300996,0.09677257347836657
0.5730000000000001,0.0055999999999996,0.767,0.006422509967658459,1.0456344797680492,0.029904660104274634,0.10131950536165907
0.5740000000000001,0.0019999999999989896,-0.233,0.0063856367607436895,1.0218538537937567,0.029414086742678636,0.0940378637950626
0.5750000000000001,-0.007099999999999001,0.767,0.006324517937843166,1.0146931630447833,0.028600941672969758,0.09184525610426279
0.5760000000000001,0.0018999999999981792,-0.233,0.006353778509773452,1.0297747561302812,0.02899023401651995,0.0964632487181062
0.577,-0.0145,0.767,0.006351989431475912,1.0386377529709065,0.028966431526093465,0.09917710352870188
0.578,0.0011,-0.233,0.0062898408129330894,1.0386377529709065,0.02813958571396836,0.09917710352870188
0.579,-0.0008,-0.233,0.00631440212820516,1.0360267686115916,0.02846635758998364,0.0983776185924738
0.58,0.0046,0.767,0.006311863334054346,1.031593572349658,0.028432580631449926,0.09702017130707974
0.581,-0.0034,0.767,0.006271018285530804,1.0315935723496548,0.02788916457314338,0.09702017130707871
0.582,-0.002,-2.233,0.006290571593530633,1.0360267686115883,0.028149308261159727,0.09837761859247278
0.583,-0.001,-0.233,0.006269895663661601,1.0334091874292064,0.02787422883984931,0.09757611370516758
0.584,0.0051,0.767,0.006374353196661919,1.0334091874292064,0.029263966467673184,0.09757611370516758
0.585,0.0018,1.767,0.0064483925933616635,1.0334091874292066,0.030249011132041245,0.09757611370516765
0.586,-0.0007,-0.233,0.0064632086751282855,1.0263291213250112,0.03044612919271694,0.0954081933277019
0.587,0.0036,-1.233,0.006449202442868371,1.02896471363038,0.030259785638197177,0.09621521323138824
0.588,0.0127,-0.233,0.006449712211719712,1.0438401291049326,0.030266567771891635,0.10077007414030584
0.589,0.0039,-0.233,0.006422077082744946,1.043840129104931,0.029898900859962167,0.10077007414030535
0.59,0.005,-0.233,0.006532003537773513,1.0368312937727504,0.031361398838408806,0.09862396466684542
0.591,-0.0016,-1.233,0.006596176354754971,1.0394402572361476,0.03221517525721734,0.09942283080356283
0.592,0.0122,0.767,0.006597637742917674,1.0155145895537405,0.03223461804951993,0.0920967773812045
0.593,0.0023,-2.233,0.006580034066922816,0.9910114604936995,0.03200041291164825,0.08459390494764651
0.594,0.0041,-0.233,0.006575493547137849,0.9753306524438273,0.03194000433206761,0.07979243236163455
0.595,0.0027,1.767,0.006575240402772992,0.9753306524438256,0.031936636415565954,0.07979243236163401
0.596,-0.0111,-0.233,0.006449059391734702,0.97254972365418,0.030257882438519262,0.0789409103415527
0.597,0.0055,-0.233,0.006428698103011935,0.9697608201835881,0.02998698910726541,0.07808694646950659
0.598,0.0077,-0.233,0.006412354150729536,0.944070909199356,0.029769543751034962,0.07022068071741203
0.599,-0.0144,-0.233,0.006375180449710887,0.9489130878869436,0.029274972516321485,0.0717033586604797
0.6,-0.0057,-1.233,0.006286573864144071,0.9489130878869436,0.028096121144876352,0.0717033586604797
0.601,0.0023,-0.233,0.006285263921508514,0.9537306827033354,0.02807869323404374,0.07317850900782465
0.602,0.0002,0.767,0.00626200993434581,0.9565663237572432,0.027769314484338396,0.0740467839551874
0.603,-0.002,-1.233,0.006262770643437513,0.9537306827033354,0.02777943521013196,0.07317850900782465
0.604,0.0038,0.767,0.006274752637944839,0.9305122057124238,0.027938847634922413,0.06606899778836166
0.605,0.0093,-0.233,0.006302012021602713,0.9469354773231139,0.028301515506664307,0.07109781315046285
0.606,0.0079,-1.233,0.006340581589771548,0.9440709091993444,0.02881465782042147,0.0702206807174085
0.607,-0.0026,0.767,0.006320569037115141,0.948913087886938,0.028548404189337427,0.07170335866047796
0.608,0.001,0.767,0.006320311092427981,0.941197622701949,0.02854497240775743,0.06934087871325634
0.609,0.0047,-1.233,0.006267262459462029,0.9411976227019488,0.027839195818747067,0.06934087871325631
0.61,-0.0007,1.767,0.006262202798915909,0.9383155377393703,0.027771880418478733,0.0684583826139248
0.611,-0.0014,-0.233,0.006283826811398454,0.9237702448551482,0.02805957344499731,0.06400460543503278
0.612,-0.0021,0.766999999999778,0.006342489848319348,0.9237702448551482,0.028840045924384116,0.06400460543503278
0.613,-0.0043,-0.233,0.006353887664559267,0.9208336161669295,0.02899168624795551,0.06310540801504437
0.614,0.0026,-0.233,0.0063288495166411015,0.9208336161669295,0.02865857043243277,0.06310540801504437
0.615,-0.0036,-0.233,0.006278473676395248,0.9208336161669295,0.02798835356331818,0.06310540801504437
0.616,-0.0057,-0.233,0.006170319131446315,0.9442901031002252,0.02654942966363885,0.07028779801791704
0.617,-0.0126,-0.233,0.006098703047022219,0.9414174856015569,0.025596625548675936,0.069408200861566
0.618,-0.0082,1.7669999999997779,0.006102375065107218,0.9248962368628193,0.02564547929388891,0.06434938484561585
0.619,0.0027,0.767,0.006140666307086744,0.9248962368628192,0.026154918663808688,0.06434938484561581
0.62,0.0043,0.766999999999778,0.0061263702409390455,0.9327465531141499,0.025964719063218313,0.06675315626813481
0.621,-0.0022,-0.233,0.006095247598159804,0.937647214635107,0.02555065311215376,0.06825374168894743
0.622,0.0014,1.7669999999995558,0.0061061139692907985,0.937647214635107,0.025695222913918053,0.06825374168894743
0.623,0.0004,-0.233,0.006099508867920715,0.9327465531141499,0.025607346456893477,0.06675315626813481
0.624,0.0069,-0.23299999999955592,0.006075332728170356,0.9298382739646992,0.025285699083635094,0.06586263949347973
0.625,0.0077,1.767,0.006072409470726876,0.9327465531141499,0.02524680709807568,0.06675315626813481
0.626,0.0056,-2.232999999999556,0.006032634745708926,0.937647214635107,0.024717630978306284,0.06825374168894743
0.627,0.002,-0.233,0.006034015678011551,0.9405313475528878,0.024736003359189802,0.06913686487335832
0.628,0.0071,-0.23299999999977797,0.0058683491756302535,0.937647214635107,0.02253192132301381,0.06825374168894743
0.629,0.0006,0.767,0.005881538595663489,0.937647214635107,0.02270739773704425,0.06825374168894743
0.63,0.0013,0.7669999999995559,0.005886640271393585,0.9376472146351069,0.022775272121240628,0.06825374168894739
0.631,-0.0063,-1.233,0.00587128502578089,0.9347541829252746,0.02257098084612144,0.06736789368921141
0.632,-0.0015,-0.233,0.0058705193051507175,0.9318521695417257,0.02256079344515967,0.06647929549573607
0.633,-0.0117,-0.233,0.005872735651016854,0.9131075415832999,0.022590280444880713,0.060739679463760694
0.634,-0.0106,-0.233,0.00590791034551131,0.916068937969722,0.023058256234487064,0.06164646076740892
0.635,-0.0044,-0.233,0.0059108793704949845,0.9131075415832999,0.02309775712656489,0.060739679463760694
0.636,-0.0036,0.7670000000002221,0.005917303611876161,0.8960644782954765,0.023183227362374666,0.055521083528022694
0.637,-0.0025,1.767,0.005920894394721376,0.8990820128773688,0.023231000327042745,0.05644505437992128
0.638,0.0066,0.766999999999778,0.005917071047872637,0.8939699654423376,0.02318013325381885,0.05487974246872199
0.639,0.0128,-0.233,0.005783668391904586,0.8969945460980524,0.021405300119956894,0.055805870832541536
0.64,0.0095,0.766999999999778,0.00577061986278853,0.8969945460980524,0.02123169816536849,0.055805870832541536
0.641,-0.0014,-0.233,0.005760850467761449,0.8969945460980524,0.02110172289713993,0.055805870832541536
0.642,0.0001,-0.233,0.005775235624823048,0.8918705337452316,0.02129310779276637,0.05423689525652482
0.643,-0.0035,-0.233,0.005675843610547369,0.8888285168390624,0.01997076350435876,0.053305427902629404
0.644,0.0001,0.766999999999778,0.005675843610547369,0.8638673985030095,0.01997076350435876,0.045662318885187195
0.645,-0.0032,-0.233,0.005667028638432302,0.8638673985030095,0.019853486194770287,0.045662318885187195
0.646,-0.0141,-0.233,0.0056763608867782716,0.8490288367185655,0.019977645518718248,0.0411187425977118
0.647,-0.0127,-0.233,0.005569080602736656,0.8490288367185655,0.018550353075809302,0.0411187425977118
0.648,-0.0061,-1.232999999999556,0.005666610466292378,0.8575739320682527,0.019847922694072272,0.0437352557860558
0.649,-0.0072,0.767,0.005760965020544378,0.8607264173822486,0.021103246945317553,0.04470054863096631
0.65,-0.004,-1.232999999999556,0.005617952037398538,0.8638673985030095,0.019200554834596255,0.045662318885187195
0.651,0.0051,0.767,0.005617605101296678,0.8638673985030096,0.01919593908175051,0.04566231888518723
0.652,-0.0036,-0.233,0.005629280878663562,0.8638673985030095,0.0193512774922489,0.045662318885187195
0.653,0.004,0.767,0.005822669217477975,0.8607264173822486,0.021924180025108105,0.04470054863096631
0.654,0.0065,1.767,0.005825989217416773,0.8553851757033402,0.021968350404273643,0.04306505730839045
0.655,0.0072,-0.233,0.005814022261787159,0.8522129324273114,0.021809138061694936,0.042093714563962374
0.656,0.005,-1.233,0.005745864429302244,0.8553851757033402,0.020902343676316194,0.04306505730839045
0.657,-0.0001,-0.233,0.005699877131278046,0.8648320927573536,0.020290513426926865,0.045957708829467155
0.658,0.0035,-0.233,0.0056985784834625505,0.8616946280709816,0.020273235786122546,0.04499701530951054
0.659,0.005,-0.233,0.0057681072527539685,0.8763187483233849,0.021198269568992702,0.049474929474592665
0.66,0.0053,-2.233,0.005767304003816194,0.8679582163213507,0.021187582878992743,0.046914929691126796
0.661,0.0111,-1.233,0.005826037940823181,0.8585456979274374,0.02196899863661549,0.04403281105986936
0.662,0.0041,-0.233,0.005824463593868325,0.8669970004636891,0.0219480530031167,0.04662060483394318
0.663,-0.0061,-0.233,0.005866000511347486,0.8638673985030115,0.022500673915238266,0.04566231888518781
0.664,-0.005,0.767,0.005878943348642635,0.8722671411784835,0.0226728697108236,0.04823432499976824
0.665,-0.0061,-2.233,0.005886314420079713,0.8897661483856517,0.02277093688740008,0.0535925312299841
0.666,-0.0029,-0.233,0.005875712123048422,0.8897661483856517,0.02262988041495107,0.0535925312299841
0.667,-0.0076,-0.233,0.00585839915876241,0.8979236505384859,0.022399543001972257,0.05609036315500955
0.668,-0.0069,-0.233,0.0057209263386181096,0.8979236505384859,0.02057055905538589,0.05609036315500955
0.669,-0.0048,-1.233,0.005696362011274924,0.8805867640176155,0.020243747105778538,0.05078179837365327
0.67,0.0035,-1.233,0.005737737627751187,0.8857760528088702,0.020794222015915433,0.05237076163325466
0.671,0.0046,-0.233,0.005728017124231884,0.8827130332746815,0.020664897216505048,0.051432863262389404
0.672,-0.002,0.767,0.005751220978451463,0.8827130332746815,0.02097360898092505,0.051432863262389404
0.673,-0.0013,-0.233,0.0057677940810864975,0.8650713646166145,0.021194103029368878,0.04603097401256175
0.674,-0.0006,0.767,0.005768504433806758,0.8681966266326586,0.021203553797312723,0.046987931067734856
0.675,0.0016,-1.233,0.005751006935778614,0.8960644782954946,0.020970761286289018,0.05552108352802824
0.676,0.0023,0.767,0.005762744143853281,0.8786909104057147,0.021126916991276935,0.050201286890081624
0.677,0.0037,-0.233,0.005748324471068404,0.8502538146124349,0.02093507288703229,0.04149383154447894
0.678,0.0041,-0.233,0.0057451991200430114,0.8534333400328776,0.020893492181501626,0.042467404085781014
0.679,0.0026,-0.233,0.0057116025081308495,0.861934770886404,0.0204465117254192,0.04507054717989063
0.68,-0.0017,-0.233,0.005712823547157096,0.861934770886404,0.020462756833178077,0.04507054717989063
0.681,0.0033,-0.233,0.005747319875766261,0.8869502801245259,0.02092170741829085,0.05273031072332297
0.682,0.0026,-1.233,0.005723314454567353,0.8869502801245259,0.020602331341203317,0.05273031072332297
0.683,-0.0065,0.767,0.005743259101460378,0.8951334441279124,0.02086768153151284,0.055236000321979874
0.684,-0.0054,-0.233,0.005705816439676282,0.898154106717202,0.020369531953663988,0.05616092897157099
0.685,0.0033,-0.233,0.00560650710577837,0.9251199739383114,0.019048287672395796,0.0644178932688446
0.686,0.0022,0.767,0.005597034181886166,0.9251199739383112,0.018922256754372223,0.06441789326884458
0.687,0.0029,0.767,0.005588507046548919,0.922187643358412,0.01880880892064172,0.06352001193213465
0.6880000000000001,0.002199999999999756,0.767,0.005587101567963717,0.9221876433584077,0.018790109967882142,0.06352001193213336
0.6890000000000001,4.107825191113076e-16,-0.233,0.005683261954040226,0.9221876433584095,0.020069459604027468,0.0635200119321339
0.6900000000000001,0.003700000000000078,-0.233,0.005575855604154854,0.9251199739383069,0.018640489939365144,0.06441789326884324
0.6910000000000001,0.004400000000000167,0.767,0.005529303219458147,0.9251199739383088,0.018021141589660686,0.06441789326884383
0.6920000000000001,0.0058999999999996,-0.233,0.005547288374500356,0.9416372971654056,0.018260422051169654,0.06947550729083615
0.6930000000000001,0.0023000000000000334,0.767,0.005554946813850502,0.9578698411821533,0.018362312465672086,0.07444592175224411
0.6940000000000001,0.002599999999999245,-0.233,0.005547115197481115,0.9578698411821528,0.01825811804672879,0.07444592175224395
0.6950000000000001,-0.004199999999999722,0.767,0.005549661244034996,0.9578698411821547,0.01829199149363577,0.07444592175224453
0.6960000000000001,-0.0017000000000011212,-0.233,0.005571836603751135,0.965452078577512,0.018587019826422017,0.07676760727244575
0.6970000000000001,-0.011800000000000121,-1.233,0.005431724665790763,0.9682533927884349,0.016722924182020194,0.07762537132043189
0.6980000000000001,-0.012899999999999311,0.767,0.0054364419643074015,0.9682533927884344,0.016785684684417178,0.07762537132043172
0.6990000000000001,-0.006699999999998624,0.767,0.005416100902100369,0.9635084150539,0.016515060453430097,0.0761724563659763
0.7000000000000001,0.005699999999999845,-1.233,0.005421575947487769,0.9606932649201828,0.016587902271251797,0.07531045575034725
0.7010000000000001,0.004300000000001177,-0.233,0.005411217079130469,0.9559107607388697,0.01645008445453416,0.07384605017596427
0.7020000000000001,0.014899999999998035,-0.233,0.005387427712374206,0.9530731692161358,0.01613358283733456,0.07297717799390745
0.7030000000000001,-0.002799999999999756,0.767,0.005382996823384598,0.960693264920189,0.016074632822178157,0.07531045575034916
0.704,-0.0006,-0.233,0.005380185087263647,0.9578698411821603,0.01603722455324283,0.07444592175224626
0.705,-0.0027,0.767,0.00540950769634589,0.9493491890744457,0.01642734225961676,0.07183689309887462
0.706,0.0031,1.767,0.005399467294290832,0.949349189074445,0.01629376142409816,0.07183689309887442
0.707,-0.0023,-0.233,0.005475764844421508,0.9445092461324344,0.017308849309880945,0.0703548997424086
0.708,0.009,1.767,0.00553078650570192,0.9521978782863213,0.018040875721289068,0.07270916339983022
0.709,0.0046,-0.233,0.005534888816650814,0.955038070460884,0.01809545422532759,0.07357883190299638
0.71,0.0083,-1.233,0.005513682394989597,0.9626426125063033,0.01781331696545183,0.07590734712007757
0.711,-0.0004,-1.233,0.005541829383601177,0.9396443738260719,0.0181877938275784,0.06886527300001388
0.712,0.0073,-0.233,0.005430350606543447,0.9347541829252975,0.016704643242541665,0.06736789368921844
0.713,-0.0058,-1.233,0.00541802778753556,0.9347541829252974,0.01654069637567404,0.0673678936892184
0.714,-0.0039,1.767,0.00553155329497581,0.9347541829252974,0.018051077339840925,0.0673678936892184
0.715,0.0008,-0.233,0.005513624818556375,0.9318521695417485,0.017812550949508066,0.06647929549574308
0.716,-0.0035,-1.233,0.0054810882446699955,0.9050869014150061,0.017379673590531608,0.0582837547583599
0.717,0.0001,-0.233,0.005478222630278127,0.9050869014150061,0.017341548507229087,0.0582837547583599
0.718,0.0063,-0.233,0.005454011305788066,0.9219631946809821,0.017019433024536332,0.0634512856159768
0.719,0.0074,-1.233,0.005489034526355476,0.9248962368628381,0.017485393554831037,0.0643493848456216
0.72,0.0027,-0.233,0.005587130439341787,0.9248962368628352,0.018790494082261622,0.06434938484562071
0.721,-0.0056,-0.233,0.005605147125336628,0.9169787159905677,0.01903019404201121,0.06192503532890816
0.722,0.0046,-0.233,0.0056362738307315936,0.9199276505227916,0.019444314043461374,0.06282800080552034
0.723,0.001,0.767,0.005762909618072765,0.9169787159905658,0.02112911851511774,0.06192503532890758
0.724,-0.0052,-2.233,0.005779602916252542,0.9199276505227897,0.021351211684911907,0.06282800080551977
0.725,-0.0085,-0.233,0.005789758885302463,0.9169787159905639,0.021486330062019734,0.061925035328907
0.726,-0.0038,-0.233,0.0057939691279707065,0.9119669943660552,0.021542344525412333,0.060390443239502656
0.727,0.0006,0.767,0.005955936337470172,0.9119669943660552,0.023697209943441627,0.060390443239502656
0.728,-0.0034,-1.233,0.006060190426870002,0.9119669943660552,0.025084240890199835,0.060390443239502656
0.729,-0.0013,0.767,0.0061218892007330215,0.9119669943660552,0.025905101819662654,0.060390443239502656
0.73,-0.0064,-2.233,0.006128125085873752,0.9119669943660552,0.025988066101643486,0.060390443239502656
0.731,-0.0035,-1.233,0.006147895073011823,0.9119669943660552,0.02625109256070497,0.060390443239502656
0.732,-0.005,-1.233,0.006175761746124912,0.9149320824136254,0.026621840012565717,0.0612983549319512
0.733,-0.0097,0.767,0.006499376706424578,0.9099090881308344,0.030927320664246482,0.05976031114799501
0.734,-0.0006,-2.233,0.006564902043729216,0.9069275781706111,0.03179909146155058,0.05884737105629798
0.735,0.003,-0.233,0.006575891510791252,0.9099090881308344,0.031945298972365484,0.05976031114799501
0.736,0.0019,-0.233,0.00671980899765282,0.9099090881308344,0.03386002490020029,0.05976031114799501
0.737,0.0022,1.7669999999997779,0.006718720167665156,0.9149320824136254,0.03384553874529412,0.0612983549319512
0.738,-0.0123,0.767,0.006712661846519281,0.9119669943660552,0.033764936833531205,0.060390443239502656
0.739,-0.0065,0.767,0.00670998548362742,0.9089922343982814,0.03372932961488744,0.059479569999437175
0.74,0.0062,0.767,0.006727010028143637,0.916978715990564,0.03395582979568988,0.06192503532890704
0.741,0.0047,1.767,0.00672833282463115,0.916978715990564,0.033973428718427644,0.06192503532890704
0.742,-0.0029,1.767,0.006743375484795652,0.9140202672605389,0.034173561253178504,0.061019156599369656
0.743,-0.0019,-0.23299999999977797,0.006723569567869587,0.916978715990564,0.033910056772313325,0.06192503532890704
0.744,0.0017,0.767,0.006721886302254503,0.9140202672605388,0.033887662048872016,0.06101915659936962
0.745,-0.0059,-1.232999999999556,0.006801344412273649,0.9219631946809754,0.034944799070565226,0.06345128561597475
0.746,-0.0067,0.767,0.0068145724819614695,0.9269208699306523,0.035120789692405625,0.06496932867383026
0.747,-0.0129,-0.23299999999977797,0.006814097865864836,0.9269208699306521,0.03511447524260659,0.06496932867383023
0.748,-0.0039,0.767,0.006730329767832485,0.9190207917831205,0.03399999671240386,0.06255032012962229
0.749,-0.0076,-0.23299999999977797,0.006662484722008359,0.9327465531141621,0.03309736374439249,0.06675315626813855
0.75,-0.0022,0.767,0.006700840444227678,0.9298382739647113,0.033607660980786006,0.06586263949348344
0.751,0.0004,-0.23300000000022206,0.006684445066747062,0.9219631946809754,0.033389531446680325,0.06345128561597475
0.752,0.0029,-1.233,0.0066816222204214605,0.9219631946809754,0.033351975363901304,0.06345128561597475
0.753,0.0036,-0.23300000000022206,0.006513785526953696,0.9248962368628314,0.03111902038648495,0.06434938484561956
0.754,0.0086,-1.233,0.006585339093268853,0.9219631946809753,0.03207099273981308,0.06345128561597473
0.755,0.0064,-0.23299999999977797,0.006594789978502545,0.9219631946809753,0.03219673044822198,0.06345128561597473
0.756,0.0104,0.767,0.006594250724912202,0.9219631946809753,0.032189556039790984,0.06345128561597473
0.757,0.0078,-1.232999999999556,0.006708029522856455,0.9080744549483117,0.033703306864743134,0.05919854539566555
0.758,0.0041,0.767,0.006714134977034028,0.9110522116467037,0.033784535849975844,0.06011033623639706
0.759,0.0012,-1.232999999999556,0.00669460645448361,0.896994546098065,0.033524721915790354,0.05580587083254537
0.76,0.0077,0.767,0.006708388353149388,0.896994546098065,0.03370808086184769,0.05580587083254537
0.761,-0.0007,0.766999999999778,0.006667796711728089,0.8918705337452442,0.033168036215588025,0.05423689525652867
0.762,-0.0018,-0.233,0.006697524198198361,0.8918705337452443,0.03356354054487595,0.0542368952565287
0.763,-0.0127,-0.233,0.006678218664481088,0.8918705337452442,0.03330669332800711,0.05423689525652867
0.764,-0.0023,-0.233,0.006711008145239037,0.8918705337452443,0.03374293544379583,0.0542368952565287
0.765,0.0013,-0.233,0.006850838373093246,0.8775056309485144,0.035603283123609296,0.04983835362781543
0.766,-0.0023,-0.233,0.006982476354154176,0.9199276505227898,0.037354638437836214,0.0628280008055198
0.767,-0.0056,1.7669999999997779,0.00698149752202201,0.9149320824136256,0.03734161573084399,0.06129835493195123
0.768,0.0093,0.767,0.00699545183260245,0.9228671620623722,0.03752726850213736,0.06372808095627999
0.769,0.0115,-1.232999999999778,0.006967659151875763,0.9228671620623722,0.037157505469500404,0.06372808095627999
0.77,0.0057,-0.233,0.006962538690917618,0.9149320824136254,0.03708938116040615,0.0612983549319512
0.771,0.0075,0.766999999999778,0.006957473066080549,0.9149320824136254,0.037021986409234944,0.0612983549319512
0.772,0.0122,-0.233,0.006959116312547088,0.9228671620623722,0.03704384870466491,0.06372808095627999
0.773,0.0046,0.766999999999778,0.006953423882576917,0.9307345927794777,0.03696811473033034,0.06613709283821795
0.774,0.0035,-0.233,0.0069801665915936355,0.927820007102511,0.03732390859146207,0.06524464500115304
0.775,-0.0027,0.767,0.006979176437859913,0.9089922343982815,0.03731073525813167,0.05947956999943721
0.776,0.014,0.767,0.00692839221088151,0.9089922343982814,0.036635085076620874,0.059479569999437175
0.777,0.0118,-0.233,0.00691792719737549,0.9119669943660552,0.03649585506967674,0.060390443239502656
0.778,0.0096,-0.233,0.0069232770028821965,0.916978715990564,0.036567030654631315,0.06192503532890704
0.779,0.0038,-0.233,0.007033824775563732,0.9089922343982814,0.038037794848987526,0.059479569999437175
0.78,-0.0052,-0.233,0.00703283309223731,0.9140202672605389,0.03802460116544907,0.061019156599369656
0.781,-0.0067,0.767,0.00700409599301673,0.8897661483856625,0.03764227327626536,0.053592531229987396
0.782,-0.0204,0.767,0.00708781785454032,0.8846002668134404,0.038756136660636493,0.05201073527452891
0.783,-0.0113,-0.233,0.007124383712495525,0.8763187483233977,0.03924262094984383,0.049474929474596606
0.784,-0.0066,0.767,0.007084265122725312,0.9009349581479545,0.03870886993948131,0.057012427304314085
0.785,-0.0142,-0.233,0.007121334921860804,0.8763187483233977,0.03920205882911658,0.049474929474596606
0.786,-0.0018,-1.233,0.007115187987081563,0.8937384303566899,0.03912027797221596,0.054808846290227746
0.787,-0.0004,-0.233,0.007117384402951705,0.9108250189415051,0.03914949981666711,0.060040769697333296
0.788,0.0011,-0.233,0.0071144669121192316,0.8937384303566943,0.03911068455201112,0.054808846290229106
0.789,0.0048,-1.233,0.007025445881476945,0.8907027928999499,0.03792631926596832,0.053879332327474605
0.79,-0.0039,-0.233,0.006995224789637326,0.8907027928999498,0.03752424784730566,0.05387933232747457
0.791,0.0063,-0.233,0.0069686880909383755,0.8907027928999498,0.03717119481569668,0.05387933232747457
0.792,-0.0028,0.767,0.006953061020875345,0.8815331618434675,0.03696328709802957,0.05107158594083971
0.793,-0.0017,-0.233,0.006954226900035163,0.8638673985030272,0.036978798340649946,0.0456623188851926
0.794,0.0107,-1.233,0.006997660863461167,0.8638673985030277,0.0375566581805761,0.045662318885192774
0.795,0.006,-1.233,0.007005505263057758,0.8638673985030277,0.03766102267180945,0.045662318885192774
0.796,-0.0015,-0.233,0.007018716598851181,0.858545697927462,0.03783679066037452,0.04403281105987691
0.797,-0.0051,-0.233,0.006997282202390019,0.8638673985030341,0.03755162034822786,0.04566231888519471
0.798,-0.0087,1.767,0.006995443090092489,0.8918705337452559,0.037527152188888274,0.05423689525653227
0.799,-0.0098,-0.233,0.007141987487700689,0.8888285168390869,0.03947682740764227,0.05330542790263691
0.8,-0.0032,-0.233,0.007102295186215908,0.9060077072407968,0.03894874787786665,0.058565706040176024
0.801,-0.0038,-0.233,0.007173413870551207,0.9060077072407968,0.03989493441725,0.058565706040176024
0.802,0.0002,0.767,0.007187936452518136,0.9089922343982929,0.040088147659348455,0.05947956999944071
0.803,0.0101,-0.233,0.007201076314795572,0.9039362341613231,0.0402629647405763,0.057931419773032025
0.804,0.0036,-0.233,0.007202099117978525,0.9069275781706221,0.04027657245299666,0.05884737105630135
0.805,0.0026,0.767,0.007200914240452279,0.898851794604153,0.040260808449814785,0.05637456141016303
0.806,0.0127,0.767,0.007173112749861363,0.8988517946041534,0.03989092820782525,0.05637456141016317
0.807,0.0037,0.767,0.007102768884481798,0.912880860397338,0.03895505011654139,0.06067026955218604
0.808,0.0074,0.767,0.007110779596797613,0.9048582109349903,0.0390616272872939,0.05821372959977205
0.809,0.0063,-0.233,0.007133308830588619,0.9018600031489338,0.03936136367801746,0.05729567662404958
0.81,0.0038,0.767,0.007156548595095914,0.8967637919280411,0.03967055320480299,0.055735213770871414
0.811,-0.0063,-1.233,0.007149372500163834,0.8937384303567136,0.03957508006024848,0.05480884629023502
0.812,-0.0052,-0.233,0.007173177148059888,0.8937384303567155,0.03989178498279479,0.0548088462902356
0.8130000000000001,-0.008800000000000611,-1.233,0.007178543257156644,0.8967637919280391,0.039963177476113075,0.0557352137708708
0.8140000000000001,-0.014299999999999912,0.767,0.007068478833025215,0.9048582109349944,0.03849884391101015,0.058213729599773306
0.8150000000000001,-0.013499999999998867,2.767,0.007105624902179821,0.9048582109349944,0.03899304752224943,0.058213729599773306
0.8160000000000001,-0.0033000000000001223,0.767,0.007138060597228784,0.9048582109349944,0.03942458275574979,0.058213729599773306
0.8170000000000001,-0.0043999999999996,-1.233,0.00713563900030961,0.907846517046328,0.03939236502801551,0.0591287506769108
0.8180000000000001,-0.0007999999999991451,-0.233,0.007146717414139765,0.8988517946041643,0.03953975591610325,0.0563745614101665
0.8190000000000001,0.006899999999999278,-0.233,0.007113095654183978,0.8988517946041643,0.0390924408821164,0.0563745614101665
0.8200000000000001,0.00039999999999931166,-0.233,0.007073293942293737,0.8937384303567155,0.03856290572005678,0.0548088462902356
0.8210000000000001,-0.005799999999999755,-1.233,0.007058066862106231,0.896763791928041,0.03836031960021797,0.05573521377087138
0.8220000000000001,-0.003599999999998912,-1.233,0.007027602953416899,0.8937384303567154,0.03795501766573684,0.054808846290235566
0.8230000000000001,0.0061999999999998775,-0.233,0.006970583677438157,0.9018600031489384,0.037196414326534,0.05729567662405101
0.8240000000000001,0.005099999999999589,-1.233,0.006989474255010587,0.8988517946041661,0.037447740829368914,0.05637456141016704
0.8250000000000001,0.001399999999999878,-0.233,0.007001514171333927,0.9018600031489403,0.03760792386519023,0.057295676624051585
0.8260000000000001,0.00030000000000027753,0.767,0.007026211989439543,0.9018600031489403,0.03793651182012901,0.057295676624051585
0.8270000000000001,0.0028000000000011215,-1.233,0.00690667760449419,0.8988517946041662,0.03634618675877766,0.05637456141016708
0.8280000000000001,0.012899999999998635,-0.233,0.006821754715910509,0.8988517946041662,0.035216344512475746,0.05637456141016708
0.8290000000000001,0.0005999999999998334,-1.233,0.006764331829124675,0.8988517946041662,0.03445237140137135,0.05637456141016708
0.8300000000000001,-0.0009000000000011657,0.767,0.006865143129861851,0.8988517946041661,0.035793598347099574,0.05637456141016704
0.8310000000000001,-0.011399999999997757,0.767,0.006861524555642319,0.8988517946041668,0.03574545563677976,0.056374561410167244
0.8320000000000001,0.008799999999998346,-0.233,0.006921711646197452,0.9039362341613362,0.03654620463066473,0.057931419773036036
0.833,-0.0061,-2.233,0.006618395717932877,0.9039362341613343,0.032510789026638134,0.05793141977303546
0.834,0.0073,0.767,0.006618395717932877,0.9039362341613343,0.032510789026638134,0.05793141977303546
0.835,0.0004,1.767,0.0065889648185471494,0.9009349581479769,0.03211923059018799,0.05701242730432091
0.836,0.0026,1.767,0.006470831575560612,0.9039362341613336,0.03054754678568198,0.05793141977303526
0.837,0.0008,-0.233,0.006468640231937314,0.9039362341613276,0.030518392424083385,0.05793141977303342
0.838,0.0051,-0.233,0.006468640231937314,0.9069275781706272,0.030518392424083385,0.05884737105630291
0.839,-0.0003,0.767,0.006520555539416834,0.9069275781706266,0.031209090875329738,0.05884737105630274
0.84,0.0011,0.767,0.006522824692043736,0.9018600031489319,0.0312392804336919,0.057295676624049004
0.841,-0.0004,-1.233,0.006512594500972808,0.9048582109349884,0.03110317458222543,0.058213729599771474
0.842,0.0032,-0.233,0.006482613720976827,0.9078465170463258,0.030704300351950452,0.05912875067691012
0.843,-0.008,-0.233,0.006506261847088812,0.9048582109349895,0.031018922856822832,0.058213729599771814
0.844,-0.0037,0.767,0.006513856844092525,0.9316300492486902,0.03111996921332867,0.06641128213224008
0.845,-0.0073,0.767,0.006425658694141587,0.9237702448551769,0.029946551804639746,0.06400460543504155
0.846,0.0039,-1.233,0.006426922049171194,0.9158429897621482,0.029963359898527428,0.06157727529424493
0.847,-0.0128,-2.233,0.006431749818702683,0.9158429897621487,0.030027590143907167,0.061577275294245094
0.848,-0.0149,-0.233,0.006421930919293794,0.9237702448551774,0.029896956252981277,0.06400460543504172
0.849,-0.0012,1.767,0.006367470200650871,0.9069275781706279,0.02917239280827338,0.05884737105630312
0.85,-0.0103,0.767,0.006312649822536626,0.909909088130851,0.02844304433479692,0.0597603111480001
0.851,0.0046,0.767,0.006304631839766782,0.9128808603973375,0.028336370435515176,0.0606702695521859
0.852,-0.0052,0.767,0.0062931035015476935,0.939424095947315,0.028182993604288477,0.06879782378484639
0.853,0.0038,0.767,0.006293745133540672,0.9394240959473131,0.028191530088908075,0.06879782378484581
0.854,0.0085,-0.233,0.00625735701619801,0.9394240959473131,0.027707410519698886,0.06879782378484581
0.855,0.0009,-0.233,0.006261755143410902,0.9394240959473137,0.02776592466132325,0.06879782378484597
0.856,-0.0027,1.767,0.006348667075599471,0.9442901031002466,0.02892222980275296,0.07028779801792359
0.857,0.0085,-0.233,0.006221067176631743,0.9491311635278452,0.027224598470588186,0.0717701335491293
0.858,0.007,-0.233,0.006217003584108274,0.9462732422313571,0.027170535089309677,0.07089503637847175
0.859,0.0059,0.767,0.006175684523650877,0.946273242231357,0.026620812619185863,0.0708950363784717
0.86,0.007,-0.233,0.006234124560010181,0.946273242231357,0.027398318225216912,0.0708950363784717
0.861,0.0059,0.767,0.006290028823384539,0.9511042086594357,0.02814208706730592,0.07237428112112723
0.862,-0.0033,0.7669999999995559,0.006303211317808146,0.9596092775602585,0.028317471340731263,0.07497853818744446
0.863,-0.0022,-1.233,0.006356297004483527,0.9624275984178747,0.02902374090456847,0.07584150968058384
0.864,-0.0076,-0.233,0.00648327868836577,0.9548213439241262,0.030713147298409425,0.0735124701108238
0.865,-0.0069,-0.233,0.00646818082608149,0.9596092775602585,0.030512280336367513,0.07497853818744446
0.866,0.0014,0.7669999999995559,0.006329607694384807,0.9219631946809851,0.028668657480333877,0.06345128561597771
0.867,0.0069,-1.233,0.006398233374414035,0.9190207917831301,0.02958167626444904,0.06255032012962525
0.868,0.0062,0.767,0.0063834911576390865,0.9190207917831301,0.029385540928095463,0.06255032012962525
0.869,0.0087,0.767,0.006431460530440766,0.9269208699306618,0.030023741357023858,0.06496932867383319
0.87,0.0033,0.766999999999778,0.006457311088853378,0.9530731692161214,0.030367665750931923,0.07297717799390302
0.871,-0.0036,-0.233,0.006824364188861261,0.9530731692161214,0.03525106180518108,0.07297717799390302
0.872,0.0083,-1.232999999999778,0.0068018635609624,0.9453916556096411,0.0349517059967243,0.07062509403985617
0.873,0.0069,-0.233,0.006806365582970017,0.9376472146351285,0.035011602389120024,0.068253741688954
0.874,0.0054,0.767,0.006820889319238917,0.9405313475529092,0.03520483098843434,0.06913686487336489
0.875,0.0065,0.767,0.007142207001155816,0.9405313475529092,0.03947974788737831,0.06913686487336489
0.876,0.0054,-0.233,0.007143350046130479,0.9405313475529092,0.039494955336434,0.06913686487336489
0.877,-0.0047,-0.233,0.007145357495939561,0.9635084150538913,0.039521663113800704,0.07617245636597365
0.878,-0.0037,-0.233,0.007157541534030124,0.9587399538524588,0.039683763593363466,0.07471235076023439
0.879,-0.0123,-0.233,0.007043829199062951,0.9615608226886594,0.03817089701387885,0.07557610244590489
0.88,-0.0047,-0.23300000000022206,0.007043753543298712,0.9567826550283217,0.038169890464525215,0.07411302471677808
0.881,-0.0113,-1.233,0.007072329503254806,0.9615608226886594,0.03855007450354566,0.07557610244590489
0.882,0.0025,0.766999999999778,0.007032559078606492,0.9615608226886594,0.03802095559731868,0.07557610244590489
0.883,-0.0113,-0.233,0.006978678362067811,0.9643734402949762,0.03730410869277146,0.07643732760016438
0.884,-0.0022,-0.23299999999977797,0.0069520095558159925,0.9385360758008832,0.03694929805850937,0.06852591149720419
0.885,-0.0069,0.767,0.0069144552231772405,0.9385360758008832,0.036449662774611466,0.06852591149720419
0.886,0.0007,-1.232999999999556,0.006922787760249118,0.924896236862841,0.03656052160854535,0.06434938484562247
0.887,-0.0004,0.767,0.006925285930161064,0.9110522116467134,0.03659375808874558,0.06011033623640002
0.888,0.0083,-0.23299999999977797,0.006931412883000029,0.9190207917831301,0.03667527309929235,0.06255032012962525
0.889,0.0051,0.767,0.006928594469823175,0.91902079178313,0.036637775996593056,0.0625503201296252
0.89,-0.0014,0.767,0.006981481084691305,0.916068937969744,0.03734139704315027,0.06164646076741566
0.891,-0.0007,0.767,0.006991431951137344,0.913107541583322,0.037473786667261616,0.06073967946376746
0.892,-0.0062,-0.2330000000004441,0.006994822099545402,0.9080744549483215,0.03751889032490373,0.05919854539566854
0.893,0.0036,-2.233,0.006994087229960283,0.9110522116467134,0.037509113376466896,0.06011033623640002
0.894,0.0,-0.233,0.006951108017503062,0.9110522116467134,0.036937303694097166,0.06011033623640002
0.895,-0.0061,-0.233,0.006947716410365769,0.9080744549483216,0.03689218062903802,0.05919854539566857
0.896,-0.0029,-0.23300000000022206,0.0069446209932135005,0.9050869014150048,0.036850998173673065,0.05828375475835949
0.897,0.0037,-1.233,0.006956472460213697,0.9000089623700243,0.0370086740172624,0.0567288868561207
0.898,-0.0025,-0.23299999999977797,0.006863802441412391,0.8722671411785045,0.03577576138377211,0.04823432499977467
0.899,0.0052,0.767,0.006821243720785081,0.8722671411785045,0.03520954606402455,0.04823432499977467
0.9,0.0005,0.7669999999993339,0.006897751624698758,0.854409815221225,0.03622743256623063,0.04276640135893552
0.901,-0.0002,-2.233,0.006887629354422653,0.8597571163491552,0.036092762528774705,0.044403748088341896
0.902,-0.0009,0.766999999999778,0.006875325073955036,0.8597571163491552,0.03592906230478902,0.044403748088341896
0.903,0.0075,-0.233,0.006912812281322402,0.8566010637959411,0.03642780453183649,0.043437362952698726
0.904,0.0043,-0.23300000000022206,0.00690364602697995,0.8534333400328706,0.03630585364710834,0.04246740408577887
0.905,0.0108,-1.233,0.006928067045643492,0.8534333400328706,0.03663075897056079,0.04246740408577887
0.906,0.0007,-1.233,0.006959664488003138,0.8534333400328705,0.03705114181255326,0.042467404085778836
0.907,-0.0029,-0.233,0.006962581705282067,0.8384101318942805,0.037089953437762266,0.037867288976788656
0.908,-0.0018,0.767,0.006911155972495039,0.8384101318942805,0.03640576845043032,0.037867288976788656
0.909,0.0106,-0.233,0.006883621287020696,0.8384101318942805,0.03603943787210933,0.037867288976788656
0.91,0.0092,-1.233,0.006869992117403808,0.8438588247032981,0.035858110883920505,0.03953568189817971
0.911,-0.0075,1.767,0.006861428381295163,0.8725043740843242,0.035744176101400786,0.048306965854134395
0.912,-0.0097,0.767,0.006840669703993117,0.8725043740843244,0.03546799578082573,0.04830696585413443
0.913,-0.0155,-0.233,0.006864589599783399,0.8869502801245186,0.0357862339995407,0.05273031072332073
0.914,-0.0136,-1.233,0.0069871561898389575,0.8786909104057231,0.03741690052230602,0.050201286890084205
0.915,-0.0023,0.767,0.006981882314633928,0.8786909104057231,0.03734673513924213,0.050201286890084205
0.916,-0.0099,-0.233,0.0069959577733499645,0.8817679018008736,0.03753399970547018,0.051143463452938714
0.917,-0.0008,-1.233,0.007017916562695291,0.8817679018008774,0.037826146714289216,0.051143463452939866
0.918,0.0079,-1.233,0.006997821640338305,0.8734595292645209,0.037558797209418016,0.04859943492833742
0.919,0.009,-2.233,0.006991984486690217,0.8703531654715354,0.037481137783322696,0.047648264520105725
0.92,0.0221,-0.233,0.006940151755563493,0.8672356750212974,0.036791537955233065,0.0466936871229228
0.921,0.0018,-0.233,0.006950992081231745,0.8641069374868899,0.036935761239531656,0.045735665861996365
0.922,0.0044,-0.233,0.00695477459401801,0.8672356750212993,0.03698608504285928,0.046693687122923384
0.923,-0.0076,0.767,0.0069385086690886884,0.8672356750213025,0.03676967778838615,0.04669368712292437
0.924,0.0218,-1.233,0.006909891784292643,0.8672356750213025,0.0363889492717358,0.04669368712292437
0.925,0.0019,-0.233,0.006889139695374207,0.8921025536224098,0.03611285660519916,0.054307939878468894
0.926,-0.0017,-2.233,0.00688491248219987,0.8972252409212924,0.036056616360570844,0.05587650972219562
0.927,-0.005,0.767,0.0068844011036413265,0.9002388847205768,0.036049812810798436,0.05679928921418658
0.928,-0.0021,0.767,0.006870367731131783,0.9032424736357477,0.03586310817340553,0.05771898989478768
0.929,0.0005,0.767,0.006861214450720901,0.9112793477101014,0.035741329898161485,0.06017988543170832
0.93,-0.0064,-1.233,0.006826642343230865,0.9192459588958068,0.0352813711257106,0.06261926643107542
0.931,-0.0086,0.767,0.006951071245012414,0.9271441184247429,0.03693681446069816,0.06503768749314846
0.932,0.0013,0.767,0.006878139695469626,0.9192459588958063,0.03596650896195729,0.06261926643107525
0.933,-0.0005,-0.233,0.006876615763779197,0.9192459588958081,0.03594623406983998,0.06261926643107579
0.934,0.001,0.767,0.0067976497293667955,0.9192459588958081,0.034895643785053006,0.06261926643107579
0.935,-0.0034,0.767,0.006804007969325122,0.9456105433596441,0.034980235916065645,0.07069211759678709
0.936,0.0032,0.767,0.006775325772511929,0.9456105433596441,0.03459863846670005,0.07069211759678709
0.937,-0.003,-1.233,0.006821850425132797,0.9407513661676423,0.03521761785967937,0.06920423470173682
0.9380000000000001,0.004700000000000433,-0.233,0.006944167433124092,0.9378679098517065,0.03684496385997041,0.06832131869320617
0.9390000000000001,0.008599999999999478,-0.233,0.007043016083782417,0.9378679098517061,0.03816007905878591,0.06832131869320603
0.9400000000000001,0.0038999999999993224,-0.233,0.007050938492484822,0.9378679098517061,0.03826548140900892,0.06832131869320603
0.9410000000000001,-0.002200000000000089,0.767,0.007154011696583821,0.9349755610244213,0.03963680146647489,0.06743567979250503
0.9420000000000001,-0.0029999999999994337,0.767,0.007238994996670237,0.9320742369018975,0.040767447447424686,0.06654729265115829
0.9430000000000001,0.0020999999999994335,-0.233,0.007226167026408287,0.9320742369018975,0.040596779880906694,0.06654729265115829
0.9440000000000001,-0.003000000000000444,-0.233,0.007219321445337012,0.9133341665091322,0.04050570400226191,0.06080907214845082
0.9450000000000001,-0.006999999999999845,-0.233,0.007219422785684282,0.9162948304610301,0.040507052267818,0.06171562918021981
0.9460000000000001,-0.005600000000000044,0.767,0.007237997998654282,0.9162948304610301,0.04075418305549582,0.06171562918021981
0.9470000000000001,-0.006000000000000755,-0.233,0.007320128909662608,0.9329684075910143,0.0418468799070994,0.06682108823856392
0.9480000000000001,-0.012799999999999723,-0.233,0.007363834693911131,0.9329684075910143,0.0424283561413078,0.06682108823856392
0.9490000000000001,-0.010299999999999922,-0.233,0.0075559680783344315,0.9358669596580438,0.04498456234515714,0.06770862657489882
0.9500000000000001,-0.009599999999999156,-1.233,0.007538348798709628,0.9407513661676169,0.04475014961142289,0.06920423470172904
0.9510000000000001,-0.00199999999999879,0.767,0.007565169212548137,0.9378679098516864,0.04510697728324882,0.0683213186932
0.9520000000000001,0.008899999999999157,-0.233,0.007565147124896172,0.9112793477100883,0.04510668342180901,0.06017988543170431
0.9530000000000001,0.0013000000000009991,-0.233,0.00758590761034397,0.9349755610244034,0.04538288779855422,0.06743567979249956
0.9540000000000001,0.010299999999999601,-0.233,0.007556640875896083,0.9378679098516882,0.0449935134668281,0.06832131869320054
0.9550000000000001,0.006699999999999634,-0.233,0.007558400541634415,0.9378679098516877,0.04501692464282194,0.06832131869320038
0.9560000000000001,0.003399999999999711,0.767,0.0074811435643037235,0.9300608221757596,0.04398907221969348,0.06593078388572494
0.9570000000000001,0.0008000000000002776,-0.233,0.0074812780944931824,0.9251199739383013,0.04399086205390648,0.06441789326884151
0.9580000000000001,0.0033000000000000776,-0.233,0.007475611141514862,0.9280430393016693,0.04391546703391251,0.06531293759083659
0.9590000000000001,0.004000000000000233,-1.233,0.0074745034585006875,0.9251199739383013,0.04390073005209526,0.06441789326884151
0.96,0.0061,-2.233,0.0074003764051122104,0.9251199739383013,0.04291451917409796,0.06441789326884151
0.961,0.0025,0.767,0.007364633835108433,0.9201525957214686,0.04243898818056753,0.06289687915677415
0.962,-0.0066,1.767,0.0073262019781360176,0.903242473635736,0.04192767802219391,0.05771898989478408
0.963,-0.0132,-0.233,0.007269822688837986,0.9002388847205648,0.041177589277831134,0.05679928921418291
0.964,-0.0071,-0.233,0.007140913966788322,0.9002388847205648,0.03946254492974604,0.05679928921418291
0.965,-0.0082,0.767,0.0070099025403213555,0.9002388847205649,0.03771952550542679,0.056799289214182945
0.966,-0.0057,0.767,0.007006672171619326,0.8972252409212805,0.03767654760993177,0.05587650972219198
0.967,0.0044,-0.233,0.0070011226348278745,0.8972252409212805,0.037602714733790135,0.05587650972219198
0.968,0.0055,-0.233,0.007000888475303692,0.8890613305970104,0.03759959939789886,0.05337671561132902
0.969,0.0018,-0.233,0.006956491750590492,0.9083023356494521,0.03700893066282655,0.05926832259948862
0.97,0.0051,-0.233,0.006905589089961322,0.8838913297438095,0.03633170480078662,0.051793658329628206
0.971,0.0043,0.767,0.006542982299231377,0.8869502801245155,0.03150746391831883,0.05273031072331978
0.972,0.0068,-1.233,0.0065452637850529375,0.8899987168696554,0.031537817561588966,0.05366374383565865
0.973,0.0028,-0.233,0.006530572908637166,0.8899987168696554,0.031342365274383915,0.05366374383565865
0.974,0.0006,-2.233,0.006498216379000255,0.9041651578369461,0.03091188328375452,0.05800151633625103
0.975,-0.006,-1.233,0.006246217276518305,0.8960644782954986,0.027559203732190306,0.05552108352802946
0.976,-0.0053,0.767,0.006260916295316322,0.8990820128773908,0.027754764348346467,0.056445054379928014
0.977,-0.0017,0.767,0.006328505148614927,0.8744136410930988,0.028653988846116796,0.048891584527665254
0.978,-0.0011,-1.233,0.006390241001364327,0.8713106788700652,0.02947534308536897,0.04794145568214009
0.979,-0.0102,-1.233,0.006390580118320959,0.868196626632664,0.029479854809715968,0.04698793106773649
0.98,-0.0139,-1.233,0.0064030112401073196,0.8650713646166197,0.0296452425726312,0.04603097401256335
0.981,-0.0052,-0.233,0.006393763446463044,0.8650713646166198,0.029522206862016044,0.04603097401256338
0.982,-0.002,0.767,0.006409515358753891,0.861934770886396,0.029731775522044663,0.04507054717988818
0.983,0.0045,-0.233,0.006465908463400749,0.8672356750212827,0.03048204807038551,0.04669368712291832
0.984,0.0037,-2.233,0.006470218074156652,0.8672356750212827,0.030539384559738893,0.04669368712291832
0.985,0.003,0.767,0.006546562699225745,0.8672356750212828,0.031555098746099214,0.046693687122918354
0.986,0.008,0.767,0.006555848163472088,0.8641069374868734,0.03167863563888527,0.0457356658619913
0.987,0.013,-0.233,0.006586312443940616,0.8641069374868734,0.032083942519639995,0.0457356658619913
0.988,0.0144,-0.23299999999955592,0.0066005737308823,0.8587867212796765,0.032273679406150536,0.04410661255113715
0.989,0.0061,0.767,0.006593146736934487,0.8619347708863898,0.03217486821796303,0.04507054717988628
0.99,0.0122,-0.233,0.006540359810456826,0.9050869014149985,0.03147257345878129,0.05828375475835756
0.991,0.0111,-0.233,0.006528834059515804,0.9050869014149985,0.03131923104955919,0.05828375475835756
0.992,0.0045,-0.2330000000004441,0.0065391093905213665,0.9050869014149985,0.031455937457671786,0.05828375475835756
0.993,-0.0017,-1.233,0.006554287100490019,0.9020894537108426,0.03165786673976166,0.05736593452015712
0.994,0.0004,0.767,0.006582976142790561,0.9020894537108426,0.032039555263759005,0.05736593452015712
0.995,-0.008,-0.233,0.006583756900170667,0.910136509475172,0.032049942718623846,0.05982994769649672
0.996,-0.0113,1.7669999999986676,0.0065466114935224,0.9131075415833155,0.0315557479215884,0.06073967946376549
0.997,-0.0088,-1.233,0.0066530584346015,0.9101365094751719,0.0329719532936215,0.05982994769649669
0.998,-0.0171,0.767,0.006721748193124654,0.9101365094751719,0.03388582459925029,0.05982994769649669
0.999,-0.0005,-1.233,0.0065998669185719505,0.9131075415833156,0.032264275740993144,0.060739679463765524
1.0,0.0064,-0.233,0.0065922357646745,0.9210583401064506,0.03216274834119356,0.06317421861661537
1.0010000000000001,-9.999999999871215e-05,-0.233,0.006545003472683393,0.9160689379697377,0.031534354279578056,0.061646460767413716
1.002,0.0057,-2.233,0.006603746207928759,0.9131075415833155,0.03231588709187922,0.06073967946376549
1.0030000000000001,-0.0033999999999982235,0.767,0.006547370076644915,0.9160689379697377,0.031565840362783495,0.061646460767413716
1.004,0.0046,-0.233,0.006579129325601734,0.9239942545797167,0.0319883759333544,0.06407319734356803
1.0050000000000001,0.0002999999999997557,-0.233,0.006543533579434615,0.9239942545797167,0.03151479833279243,0.06407319734356803
1.006,-0.0008,0.767,0.006542519843175854,0.9318521695417412,0.03150131124973558,0.06647929549574083
1.0070000000000001,0.00020000000000024425,0.767,0.00655673301591281,0.9289410903081924,0.031690408008925246,0.065587921333699
1.008,0.0013,-0.233,0.006557054469719289,0.9289410903081924,0.03169468473687047,0.065587921333699
1.0090000000000001,-0.0013000000000009547,-0.233,0.006550743820560301,0.9318521695417411,0.03161072576961997,0.0664792954957408
1.01,-0.0056,0.767,0.006627496147904679,0.9239942545797167,0.032631864162130285,0.06407319734356803
1.0110000000000001,-0.00019999999999917846,-0.233,0.006601755240621848,0.9000089623700179,0.032289398603182355,0.056728886856118765
1.012,0.0035,-0.233,0.006668263928697251,0.8969945460980683,0.03317425222494372,0.05580587083254639
1.0130000000000001,-0.0073999999999983124,-0.233,0.006638727674073048,0.8827130332746894,0.032781292107494676,0.05143286326239182
1.014,0.0002,-1.233,0.006663656312298809,0.8909351168835621,0.033112950969787,0.053950470066986445
1.0150000000000001,-0.0009000000000019096,-0.233,0.006632868739993658,0.8909351168835621,0.03270334290732504,0.053950470066986445
1.016,-0.0095,-0.233,0.006597947920996029,0.8909351168835622,0.03223874476144232,0.05395047006698648
1.0170000000000001,0.0005999999999997779,-0.233,0.006573771786153682,0.8909351168835622,0.03191709745348176,0.05395047006698648
1.018,-0.0004,-2.233,0.006574680120567988,0.8939699654423537,0.03192918223547833,0.05487974246872692
1.0190000000000001,0.00319999999999929,0.767,0.006597842999426436,0.9020894537108427,0.03223734885011792,0.057365934520157154
1.02,-0.0,0.767,0.006626247758698547,0.9020894537108427,0.03261525517851657,0.057365934520157154
1.0210000000000001,0.002499999999999445,0.767,0.006652408296572046,0.910136509475172,0.03296330364187443,0.05982994769649672
1.022,0.0,-0.233,0.0066517719697432465,0.9071557469712537,0.032954837738916776,0.058917236476356966
1.0230000000000001,0.004000000000001865,1.767,0.006795821917356499,0.8990820128773848,0.03487132596847879,0.05644505437992618
1.024,0.0124,-0.23299999999955592,0.006835726126842211,0.8990820128773848,0.035402224792507986,0.05644505437992618
1.025,0.0047,0.767,0.006869048820993226,0.871310678870059,0.035845560955941894,0.04794145568213819
1.026,0.0094,0.767,0.006866202087421285,0.866034717748865,0.03580768706932326,0.04632595330447313
1.027,0.0102,-0.233,0.0068482675574061715,0.866034717748865,0.03556908013994783,0.04632595330447313
1.028,-0.0022,-0.233,0.0069368478158314435,0.871310678870059,0.03674758124637917,0.04794145568213819
1.029,-0.004,-0.233,0.006957856143892718,0.8660347177488651,0.037027083003369085,0.046325953304473165
1.03,-0.0054,-1.233,0.0069865569199721155,0.8607264173822653,0.037408927637447936,0.04470054863097141
1.031,-0.0097,-0.233,0.006922355989765309,0.8553851757033569,0.0365547771909749,0.043065057308395584
1.032,-0.0086,-1.232999999999556,0.006953798000388235,0.8553851757033569,0.03697309211764453,0.043065057308395584
1.033,-0.0024,-0.233,0.006960803683048866,0.8522129324273283,0.03706629804087883,0.042093714563967544
1.034,-0.01,0.767,0.006949890564300873,0.8805867640176253,0.03692110629332961,0.05078179837365626
1.035,0.0049,-0.233,0.006973192874699215,0.8522129324273283,0.03723112795137231,0.042093714563967544
1.036,0.0071,0.767,0.007031514275952718,0.8490288367185825,0.03800705519664968,0.041118742597717
1.037,0.0053,0.767,0.006988326909134379,0.8490288367185825,0.03743247615969411,0.041118742597717
1.038,0.0035,0.767,0.0069084122213172484,0.8522129324273283,0.03636926467570351,0.042093714563967544
1.039,0.0021,2.767,0.006821866978893235,0.8522129324273295,0.03521783809639282,0.04209371456396792
1.04,-0.0001,-0.233,0.006796310908363214,0.8522129324273297,0.034877831666844245,0.04209371456396795
1.041,0.0043,0.767,0.006711186953547364,0.8522129324273294,0.03374531436877245,0.042093714563967884
1.042,0.0054,-0.233,0.006622640977497276,0.8522129324273294,0.032567269366418954,0.042093714563967884
1.043,0.0065,-0.233,0.006608338375439969,0.8522129324273283,0.032376982809921684,0.042093714563967544
1.044,0.0032,-1.233,0.006609498684239074,0.843613536409334,0.03239241994261758,0.03946057447926402
1.045,0.0007,0.767,0.0066158220374556015,0.843613536409334,0.03247654792885867,0.03946057447926402
1.046,-0.0131,-0.233,0.006567143089491646,0.8522129324273283,0.03182890707687547,0.042093714563967544
1.047,-0.0113,-0.233,0.00649499713117586,0.8339262850894437,0.03086905334410011,0.03649433246556621
1.048,0.0014,0.767,0.006467789521256176,0.8284122658413704,0.03050707428732473,0.03480593655037089
1.049,-0.0098,-1.233,0.006371561768644726,0.8544098152212459,0.029226828384478723,0.04276640135894191
1.05,-0.0055,0.767,0.006394339280688986,0.8490288367186104,0.029529867951342915,0.041118742597725536
1.051,-0.009,-0.233,0.006411471317773925,0.8490288367186104,0.029757798248894,0.041118742597725536
1.052,0.0022,0.767,0.006424447707457838,0.8522129324273561,0.02993044043657599,0.042093714563976044
1.053,0.0066,-1.233,0.006404474087219236,0.8261462534239704,0.029664704775277485,0.03411208222429887
1.054,0.0077,-0.233,0.006433360882546583,0.8679582163213944,0.030049024271062808,0.04691492969114015
1.055,0.0066,-1.233,0.006505332156180583,0.8679582163213944,0.031006553940955302,0.04691492969114015
1.056,0.0055,-0.233,0.006543716171050218,0.8679582163213944,0.03151722759214253,0.04691492969114015
1.057,-0.001,-0.233,0.006543338945417596,0.8679582163213944,0.03151220885734402,0.04691492969114015
1.058,0.0016,0.767,0.006544266885275725,0.8648320927573975,0.03152455447666088,0.04595770882948058
1.059,-0.0108,-0.233,0.006604384618743151,0.8648320927573975,0.03232438072087166,0.04595770882948058
1.06,-0.0017,0.767,0.006607737650070493,0.8648320927573975,0.032368990560574316,0.04595770882948058
1.061,-0.0097,-0.233,0.006585489286127647,0.8616946280710256,0.03207299095536826,0.044997015309524
1.062,-0.0021,0.767,0.006590516802890629,0.8616946280710256,0.032139878704095876,0.044997015309524
1.063,-0.0144,-1.233,0.0065929539679209755,0.8648320927573975,0.032172303555139205,0.04595770882948058
1.064,-0.0031,-0.233,0.006628760460182741,0.8648320927573975,0.03264868499156857,0.04595770882948058
1.065,-0.0046,0.767,0.006633140603113857,0.85635942528813,0.03270695986434964,0.04336337310043538
1.066,-0.0009,0.767,0.0066921812373535615,0.8846002668134705,0.033492456023571156,0.052010735274538124
1.067,-0.0045,0.767,0.0066297333716080955,0.8928049705449599,0.032661628927515736,0.05452302035052421
1.068,0.0078,-1.233,0.006632248442847134,0.8928049705449588,0.032695090268571335,0.05452302035052387
1.069,0.0064,-0.233,0.006698161574479538,0.8679582163213932,0.033572020410095736,0.04691492969113981
1.07,0.0078,-1.233,0.006706963215972915,0.8679582163213932,0.033689120364676556,0.04691492969113981
1.071,0.0042,-0.233,0.006714992718245389,0.8679582163213931,0.03379594752323793,0.046914929691139785
1.072,0.0155,-0.233,0.00671395038599279,0.8679582163213931,0.03378207998960465,0.046914929691139785
1.073,0.0079,-0.233,0.00672197154198436,0.8710731208667221,0.033888796106479595,0.047868715282728784
1.074,0.0068,-0.233,0.006710166536274699,0.8563594252881289,0.03373173839929306,0.04336337310043504
1.075,0.0057,0.767,0.006627693275031678,0.85635942528813,0.03263448680673988,0.04336337310043538
1.076,-0.0019,0.767,0.006620477474256088,0.856359425288126,0.032538485402488,0.04336337310043416
1.077,0.0112,-1.233,0.0065604352256126795,0.8531908043709407,0.031739663433385516,0.04239313952440022
1.078,-0.0055,0.767,0.0065060930720454,0.8531908043709407,0.031016677417726873,0.04239313952440022
1.079,-0.012,0.767,0.006505039980084748,0.856359425288126,0.031002666733372763,0.04336337310043416
1.08,-0.0102,0.767,0.006532613514028268,0.856359425288126,0.03136951416459892,0.04336337310043416
1.081,-0.0084,-0.233,0.006538790306761206,0.8478020888724479,0.03145169226160803,0.04074311169053217
1.082,-0.0037,-0.233,0.006485620371036994,0.8478020888724479,0.030744301820511844,0.04074311169053217
1.083,-0.0022,-2.233,0.006433046386772495,0.8478020888724543,0.03004484011508585,0.04074311169053414
1.084,0.0068,-0.233,0.0064645487323916765,0.8478020888724543,0.030463957758535807,0.04074311169053414
1.085,-0.0095,-0.233,0.0064099602474161094,0.844601364715817,0.029737694468206975,0.03976304808382444
1.086,0.0018,0.767,0.006401937260813418,0.844601364715817,0.029630953996275154,0.03976304808382444
1.087,0.0076,0.767,0.006417620756970083,0.8413884647789889,0.029839612425387033,0.03877925624610688
1.088,0.0094,-0.233,0.006408858439552996,0.8413884647789808,0.029723035651346003,0.038779256246104406
1.089,0.0015,0.767,0.006404335881878125,0.8468179942760882,0.029662866045629264,0.040441781350192836
1.09,0.0058,-0.233,0.006411534215562589,0.8005310522270495,0.029758635061913622,0.026268692652726418
1.091,0.0022,-0.233,0.006429338654358066,0.8306720967664641,0.0299955112146013,0.03549789809988735
1.092,0.0011,-0.233,0.006438445869500369,0.8274051098039673,0.030116676622249865,0.03449754478331098
1.093,-0.0021,-0.233,0.006416710495013303,0.8306720967664629,0.02982750199872676,0.035497898099886974
1.094,-0.0029,0.767,0.006425285988306118,0.8306720967664629,0.02994159320272006,0.035497898099886974
1.095,-0.0003,-1.233,0.006470630276896739,0.8251363315111904,0.030544868641563697,0.03380284354458264
1.096,-0.0058,-0.233,0.006475164118495881,0.8512339371345905,0.030605188372347516,0.041793945633376385
1.097,-0.0065,0.767,0.006475164118495864,0.8544098152212043,0.030605188372347297,0.04276640135892917
1.098,-0.013,-2.233,0.006446141084753863,0.8544098152212043,0.030219056315555,0.04276640135892917
1.099,-0.0054,0.767,0.006470857500530375,0.8597571163491345,0.03054789170006915,0.044403748088335575
1.1,-0.0079,-0.233,0.006433249971086973,0.8512339371345904,0.030047548668257068,0.04179394563337636
1.101,0.0041,0.767,0.006424751284346779,0.8480461656731779,0.02993447932408732,0.0408178481495118
1.102,0.0026,0.767,0.0064219748270600415,0.8512339371345904,0.029897540416450923,0.04179394563337636
1.103,0.007,2.767,0.006468141029836338,0.8512339371345904,0.030511750873936754,0.04179394563337636
1.104,0.0107,-0.233,0.006461704305136784,0.845832754723424,0.030426114555923322,0.040140100423564175
1.105,0.0071,-0.233,0.00641613203117582,0.8638673985030164,0.02981980592417671,0.045662318885189304
1.106,-0.0004,0.767,0.0063914137370081996,0.8553851757033469,0.029490945548924907,0.043065057308392524
1.107,-0.0011,-0.233,0.006367878908645297,0.8585456979274443,0.02917783039484403,0.04403281105987147
1.108,0.009,-0.233,0.006402042558570218,0.8669970004636895,0.029632354912518796,0.04662060483394332
1.109,0.0025,-0.233,0.006401371064172768,0.86386739850301,0.02962342112857613,0.045662318885187334
1.11,0.0015,-0.233,0.0063183776455918005,0.8722671411784819,0.028519249190460793,0.04823432499976777
1.111,0.0026,-0.233,0.006329226877664827,0.8722671411784819,0.02866359096851938,0.04823432499976777
1.112,-0.0039,0.767,0.006266444738892663,0.8753667129816881,0.027828316593365682,0.049183415696761
1.113,-0.0101,-0.233,0.006304313881527892,0.8897661483856542,0.028332140213759315,0.05359253122998485
1.114,-0.0024,-0.233,0.006154593616723305,0.884600266813432,0.026340212205598762,0.05201073527452633
1.115,-0.0089,-2.233,0.0061705193484602825,0.8846002668134318,0.026552093417128417,0.05201073527452629
1.116,-0.0027,-1.233,0.006183552532900745,0.8988517946041336,0.026725491221068747,0.056374561410157085
1.117,-0.0019,-0.23299999999955592,0.006193831531590144,0.8958334845530138,0.026862246425262262,0.05545035310912798
1.118,0.0094,0.767,0.006260704644606648,0.9199276505227817,0.027751948477181022,0.06282800080551731
1.119,0.0047,0.767,0.006224895339452001,0.9149320824136175,0.027275529617092783,0.061298354931948754
1.12,0.0033,0.767,0.0063013339658820455,0.9149320824136175,0.028292494428703664,0.061298354931948754
1.121,0.0022,0.767,0.006318707560765966,0.9069275781706029,0.02852363849124512,0.05884737105629547
1.122,0.0033,0.767,0.006380293913405901,0.9099090881308262,0.029343003731508718,0.05976031114799249
1.123,0.0001,0.767,0.0062174780228751655,0.9128808603973183,0.027176847179855076,0.06067026955218002
1.124,0.0066,-0.233,0.006188213827386217,0.9208336161669336,0.026787506627279887,0.06310540801504562
1.125,-0.0035,0.7669999999995559,0.006152715060118294,0.9208336161669336,0.02631521926612379,0.06310540801504562
1.1260000000000001,0.0029999999999980684,-0.233,0.0061290077618077615,0.9178875922717307,0.02599980951471705,0.06220333377718973
1.127,-0.0057,-0.233,0.006126128443118732,0.9149320824136173,0.025961502104904593,0.06129835493194872
1.1280000000000001,0.0018999999999979795,0.767,0.006079880040203753,0.9099090881308262,0.025346198029539253,0.05976031114799249
1.129,-0.0072,-0.233,0.0061130215855129824,0.9099090881308262,0.02578712412876396,0.05976031114799249
1.1300000000000001,-0.006099999999999756,-0.233,0.006025898248525969,0.9099090881308262,0.02462800638785327,0.05976031114799249
1.131,-0.005,-0.233,0.005938716984302647,0.9069275781706029,0.02346811796379834,0.05884737105629547
1.1320000000000001,-0.002500000000000955,-1.233,0.0058807227524778245,0.9069275781706028,0.02269654348899764,0.058847371056295436
1.133,-0.0068,-0.233,0.005878902747284246,0.909909088130826,0.022672329536899582,0.059760311147992455
1.1340000000000001,0.0054999999999996,-0.233,0.00593053243044391,0.8824785447230004,0.023359227947561755,0.05136106273087024
1.135,0.0037,-0.233,0.00591896030002922,0.8855423753345185,0.023205268490455577,0.05229920945408764
1.1360000000000001,0.008399999999999045,-0.233,0.005948017573016987,0.8855423753345185,0.02359185607751765,0.05229920945408764
1.137,0.0041,0.7669999999991118,0.0059538587776886125,0.8855423753345185,0.02366956939977229,0.05229920945408764
