time_sec,bts_raw,diy_raw,bts_rms,diy_rms,bts_norm_rms,diy_norm_rms
0.0,0.005599999999999689,-0.638,0.017165366070677188,0.7195702731058093,0.03960823805578715,0.0
0.0009999999999999731,-0.0056,-1.638,0.017149287398232328,0.732211913342177,0.03956127110572664,0.0008444629398337548
0.001999999999999974,0.0003,0.362,0.017346847524406753,0.7350496799368651,0.04013835833800925,0.0010340260563523236
0.002999999999999975,0.017,0.362,0.017666149247444307,0.7378765329717188,0.04107106146580604,0.0012228601458894649
0.003999999999999976,0.0105,1.362,0.01806751396254245,0.7559966552582472,0.042243476451851295,0.002433286281274064
0.004999999999999977,-0.0117,1.362,0.018545168773614742,0.7736925149004287,0.04363874025455213,0.003615371625969481
0.005999999999999978,-0.0088,0.362,0.018667724301925533,0.7763786792204086,0.04399673370193111,0.0037948076940835795
0.0069999999999999785,-0.0063,1.362,0.01870139587884445,0.7936201978272222,0.044095090781909756,0.004946543008305092
0.00799999999999998,-0.0183,0.362,0.01865764099197288,0.794412578839345,0.043967279633716515,0.004999474145914969
0.00899999999999998,-0.0204,0.36199999999999827,0.018636972948059202,0.795204170283983,0.04390690680196246,0.005052352540331163
0.009999999999999981,-0.0023,-0.638,0.01864063726558967,0.7978179105360534,0.043917610535062906,0.005226950672848451
0.010999999999999982,0.0246,0.362,0.01881940910621272,0.8004231158001313,0.044439815843962845,0.0054009786672415
0.011999999999999983,0.021,-1.638,0.01884515937031271,0.8118066718189947,0.0445150342036985,0.0061614014448014
0.012999999999999984,0.0244,-1.6379999999999981,0.018304759459087477,0.8283110751771497,0.042936487484106896,0.007263897380410656
0.013999999999999985,0.0096,-0.638,0.018252374677355025,0.8444929852357675,0.042783467796940776,0.008344850728609422
0.014999999999999986,0.007,-0.638,0.018251621509369494,0.8469546316347143,0.04278126773948672,0.008509288975230737
0.015999999999999986,0.0045,0.362,0.018243948668153563,0.84940914404224,0.04275885482253436,0.008673250670450846
0.016999999999999987,-0.0176,0.362,0.018237144548710612,0.8601446402118735,0.042738979503898517,0.009390382979745836
0.017999999999999988,-0.0027,-0.6379999999999966,0.01814202587304593,0.8707477879316466,0.0424611310618032,0.010098674398225876
0.01899999999999999,-0.0002,0.362,0.018223845457810754,0.8731354168300196,0.04270013190996401,0.010258168267775467
0.01999999999999999,-0.0071,1.362,0.018197626614917133,0.8755165344286813,0.042623544798120534,0.010417227181797646
0.02099999999999999,-0.0136,0.362,0.0180695013429554,0.8778911937097241,0.042249281731915694,0.010575854679501943
0.021999999999999992,-0.0038,0.362,0.018063630108931066,0.8786075773699791,0.04223213143818591,0.010623709185758766
0.022999999999999993,-0.0056,1.362,0.01807085640108431,0.8809739048048016,0.04225323995344723,0.010781780115231263
0.023999999999999994,-0.0104,0.362,0.01807075152799867,0.8816877837227184,0.04225293361167723,0.010829467304428046
0.024999999999999994,0.0001,0.362,0.018090749558128005,0.8824010850994793,0.042311349285335254,0.010877115913812938
0.025999999999999995,0.0038,0.362,0.017942801258315953,0.8831138103345445,0.04187918173962274,0.01092472603687002
0.026999999999999996,-0.0126,0.362,0.017650467761404637,0.8983090597644504,0.04102525472559004,0.01193977034798487
0.027999999999999997,-0.0148,1.362,0.017184754400981682,0.9084668815964253,0.03966487275273062,0.01261831394882711
0.028999999999999998,-0.0010000000000006633,-1.638,0.016857729897805405,0.9232449511418009,0.038709610832822886,0.013605490598377248
0.03,-0.02489999999999991,0.362,0.016571205715549195,0.9239261695761656,0.03787265324162207,0.013650996063727987
0.031,-0.021699999999999758,0.362,0.0165769054542739,0.9261767178906851,0.03788930258533867,0.0138013329353983
0.032,-0.012899999999999625,0.362,0.016213589237538704,0.9268557815440442,0.03682802997927649,0.013846694461144003
0.033,0.000600000000000333,-0.638,0.015624142565678319,0.9275343480435,0.03510621417044379,0.013892022776955
0.033999999999999975,0.0126,-1.638,0.015547433141305574,0.9282124184793802,0.03488214046560025,0.013937317955665314
0.034999999999999976,0.0282,-2.638,0.014992191551515079,0.930452599413004,0.03326024014337887,0.01408696228516658
0.035999999999999976,0.0224,1.3619999999999863,0.014698865836772783,0.9311285447097385,0.0324034147902279,0.014132115504351313
0.03699999999999998,0.0315,-0.638,0.014714682925571435,0.9333617266142595,0.0324496176357835,0.014281292297948885
0.03799999999999998,0.0101,-1.638,0.014707838569135453,0.9355895780968424,0.032429624782018523,0.014430113018782458
0.03899999999999998,-0.0048,-0.638,0.014720220621980895,0.9362618146983711,0.03246579364232915,0.014475018496724923
0.03999999999999998,-0.0023,1.362,0.01471652621613027,0.9369335689797578,0.03245500201909753,0.014519891755629552
0.04099999999999998,0.0045,0.362,0.014731236400032715,0.9391529474032558,0.03249797151642988,0.014668146475196646
0.04199999999999998,0.0067,0.362,0.01472338551226025,0.9398226352004309,0.032475038512775216,0.014712881692731654
0.04299999999999998,0.0048,1.3619999999999932,0.01469895715996565,0.9541151662594904,0.03240368155179379,0.015667624318698576
0.043999999999999984,-0.0006,0.362,0.014593217909598694,0.9547743594720349,0.032094809652795146,0.01571165849684125
0.044999999999999984,-0.0253,1.362,0.014596045561370983,0.955433097879749,0.03210306942548677,0.01575566229397188
0.045999999999999985,-0.0217,1.362,0.014595403795593742,0.9560913824227016,0.03210119478183608,0.0157996357728872
0.046999999999999986,-0.038,-0.638,0.014575261581487645,0.956749214037729,0.03204235793648871,0.015843578996167944
0.04799999999999999,-0.0293,0.362,0.01455893751090835,0.9574065936584474,0.03199467416095865,0.0158874920261798
0.04899999999999999,-0.0214,1.362,0.014483931794329157,0.9580635222152709,0.031775577108207005,0.01593137492507452
0.04999999999999999,-0.0047,1.362,0.014441952287057708,0.9602340644523121,0.03165295197056926,0.01607636738208592
0.05099999999999999,0.029,-0.638,0.01445733796639647,0.9602340644523121,0.0316978946382944,0.01607636738208592
0.05199999999999999,0.0337,-0.6380000000000069,0.014448279504587916,0.9466988014686475,0.03167143422467217,0.015172210345744515
0.05299999999999999,0.038,-1.638,0.014448679012760335,0.9556846769651357,0.03167260121656451,0.015772467804180533
0.05399999999999999,0.042,-1.638,0.014354149019708823,0.9572035419398386,0.03139647235840804,0.015873928149338773
0.05499999999999999,0.0239,-0.638,0.01434269018930725,0.9482320600034515,0.03136300029676438,0.015274632182279695
0.055999999999999994,0.0141,-1.638,0.014335215724112853,0.9391748817630324,0.03134116685033289,0.014669611692810341
0.056999999999999995,-0.0066,0.362,0.014308392110292036,0.9482320600034515,0.03126281315943675,0.015274632182279695
0.057999999999999996,0.0013,0.362,0.01429490769195938,0.9391748817630324,0.0312234242108406,0.014669611692810341
0.059,-0.0056,-0.638,0.014177576726734907,0.9391748817630324,0.030880692085215933,0.014669611692810341
0.06,-0.025899999999999777,-0.638,0.01403093754804462,0.9391748817630324,0.03045234857575765,0.014669611692810341
0.061,-0.017899999999999534,1.362,0.014117538519163171,0.9512911633410788,0.03070531619479869,0.015478980617249099
0.062,-0.0012000000000000582,-1.638,0.014067657760261709,0.9602340644523116,0.030559610937082936,0.016076367382085892
0.063,-0.00329999999999995,-1.638,0.013918259207636173,0.9466988014686469,0.03012320709936935,0.015172210345744477
0.064,-0.0015000000000001499,-0.638,0.013843526104855659,0.9329671928153417,0.029904906370985414,0.014254937397360947
0.06499999999999997,-0.0069,-0.638,0.013908525692589957,0.9675942438347659,0.030094774807048162,0.016568028163661576
0.06599999999999998,-0.0023,1.362,0.01389707389871098,0.967594243834766,0.03006132329958934,0.016568028163661583
0.06699999999999998,0.0083,1.362,0.013943881344641187,0.9808411994480076,0.030198051190713646,0.01745292623636766
0.06799999999999998,0.0173,-0.638,0.014487903359357185,1.0360179543743224,0.031787178333182085,0.021138739453984645
0.06899999999999998,0.0036,-0.638,0.014932811917534832,1.0604795825650322,0.03308678799343763,0.022772778872035864
0.06999999999999998,-0.0017,-0.638,0.015226822473329632,1.068509020140255,0.03394561381619346,0.023309146173525575
0.07099999999999998,0.0063,0.3619999999999861,0.015294057319134349,1.068509020140255,0.03414201160065395,0.023309146173525575
0.07199999999999998,0.0078,-0.6379999999999861,0.015249637110188055,1.068509020140255,0.03401225699918341,0.023309146173525575
0.07299999999999998,-0.0044,0.362,0.01534646048015533,1.0805194880026558,0.03429508497503395,0.02411144673027486
0.07399999999999998,-0.0091,0.362,0.01613767898745674,1.0739335183268817,0.03660629071958901,0.023671503241133273
0.07499999999999998,-0.0048,0.362,0.017002162698655045,1.085883989944777,0.03913150935509633,0.02446979604223797
0.07599999999999998,-0.0012,-1.638,0.01720776880590182,1.0977043670546374,0.03973209947249019,0.02525939851608629
0.07699999999999999,-0.0002,1.362,0.017354235530286408,1.0990269770879324,0.04015993923061009,0.025347749009858204
0.07799999999999999,0.0009,-1.638,0.017308590867983916,1.1298568728452685,0.04002660791347293,0.027407189392531908
0.07899999999999999,-0.0038,0.362,0.017266922034326657,1.1337075504133944,0.039904890275641085,0.02766441507201113
0.07999999999999999,-0.0045,-0.638,0.01727749271763417,1.1222664443134285,0.03993576799621858,0.02690014794278746
0.08099999999999999,-0.0169,0.362,0.01709761488664021,1.1235601412243683,0.039410332010489074,0.026986567036847993
0.08199999999999999,-0.0042,0.362,0.016975667704688953,1.1235601412243683,0.039054115586255864,0.026986567036847993
0.08299999999999999,-0.0121,0.362,0.016928338396625036,1.124852350250618,0.03891586329858349,0.027072886740049745
0.08399999999999999,-0.0045,-0.638,0.01706520081988545,1.1235601412243683,0.03931564820747301,0.026986567036847993
0.08499999999999999,-0.0008,0.362,0.017059865958837923,1.136118706510572,0.03930006469749989,0.027825480560994365
0.086,0.008,-0.638,0.016827819291827445,1.1054634587061687,0.03862223981745677,0.02577770668053176
0.087,0.0113,-0.6379999999999861,0.01667791511635366,1.1221158761992402,0.03818435901930727,0.026890089976417966
0.088,0.0066,0.362,0.01638876177434782,1.1221158761992402,0.03733972146478327,0.026890089976417966
0.089,0.0041,0.362,0.0163575209002105,1.1221158761992402,0.03724846464115643,0.026890089976417966
0.09,-0.0068,-0.638,0.01636220911128516,1.120820512259734,0.03726215924039476,0.026803559524668258
0.091,0.0008,0.362,0.016366480455562916,1.1131684686597931,0.0372746361419594,0.026292402181687363
0.092,-0.0028,-1.638,0.016364023093006982,1.1144727266894443,0.037267458010503525,0.02637952675962405
0.093,-0.0039,0.362,0.016410225348837338,1.12211587619924,0.037402418098141925,0.02689008997641795
0.094,-0.0029,0.362,0.01641515199673181,1.1221158761992398,0.03741680918835282,0.026890089976417935
0.095,0.0018,0.362,0.01644125201635357,1.1221158761992398,0.03749304920893646,0.026890089976417935
0.096,-0.0043,0.362,0.016259482745247307,1.114472726689444,0.036962088191609864,0.026379526759624038
0.097,0.008,0.362,0.01612310169964638,1.1067767965813258,0.03656370942122904,0.025865437793133716
0.098,0.0061,0.362,0.015703096484164687,1.1067767965813256,0.03533684420282663,0.0258654377931337
0.099,-0.0019,-0.638,0.01543394518475527,1.1067767965813256,0.03455063404266346,0.0258654377931337
0.1,0.0087,-0.638,0.015287339905508292,1.099026977087932,0.03412238955589915,0.025347749009858173
0.101,0.0022,0.362,0.015297983476887786,1.099026977087932,0.034153480187738346,0.025347749009858173
0.10200000000000001,0.0011,1.3619999999999723,0.015031678766708474,1.097704367054637,0.033375585117933024,0.02525939851608626
0.10300000000000001,-0.0042,-0.6379999999999861,0.014662181453856938,1.097704367054637,0.03229625708884938,0.02525939851608626
0.10400000000000001,0.0088,0.362,0.014210354406711699,1.0858839899447765,0.030976438028411733,0.02446979604223794
0.10500000000000001,0.0107,0.362,0.013647641163108007,1.0739335183268812,0.02933271247200405,0.023671503241133245
0.10600000000000001,-0.0005,1.362,0.013489645906749574,1.0725799657227135,0.028871197048971925,0.023581085780268726
0.10700000000000001,0.0008999999999999389,0.362,0.013430210725331083,1.0604795825650315,0.028697582640998073,0.02277277887203582
0.10800000000000001,-0.00020000000000006108,0.362,0.013414315422978915,1.0685090201402545,0.02865115132806902,0.023309146173525544
0.10900000000000001,-0.0013000000000008049,0.362,0.013413808436363996,1.1193727124476622,0.0286496703839733,0.026706846340086753
0.11000000000000001,-0.015800000000000324,-1.638,0.013466840139474254,1.1256928673221673,0.02880457977466741,0.02712903337165369
0.11100000000000002,-0.021599999999999075,1.362,0.013300465334836932,1.1244016242534456,0.028318587092900523,0.02704277819451965
0.11200000000000002,-0.004899999999998635,0.362,0.013183452624946199,1.1244016242534456,0.02797678461382581,0.02704277819451965
0.11300000000000002,0.019699999999999822,0.362,0.01319326266254436,1.1141694636398762,0.02800544043398414,0.026359268754998635
0.11399999999999996,0.0165,-2.638,0.013291025722113194,1.114169463639876,0.028291013310244847,0.02635926875499862
0.11499999999999996,-0.0042,-0.638,0.01383721768637625,1.1433216658228789,0.029886479030251947,0.028306639024820522
0.11599999999999996,-0.0123,-1.638,0.014020528879924936,1.153295213922359,0.030421944113109993,0.02897287312033219
0.11699999999999997,-0.0431,3.362,0.014259967122905805,1.145860056626653,0.031121360314243854,0.028476203806013664
0.11799999999999997,-0.0363,2.3619999999999863,0.014241345100683728,1.139651748212966,0.031066964057915508,0.028061488130168486
0.11899999999999997,-0.0298,1.362,0.014135982089720387,1.1383763386018935,0.03075919118107439,0.027976290629723875
0.11999999999999997,-0.016,1.362,0.014204740101478574,1.1483928366220637,0.03096003824202309,0.028645393784599165
0.12099999999999997,-0.007,0.362,0.01422418176871435,1.1471271456506698,0.03101682873995053,0.02856084549033988
0.12199999999999997,0.0176,-1.638,0.014214887964766143,1.1483928366220637,0.030989680875137402,0.028645393784599165
0.12299999999999997,0.0502,-0.638,0.014203922393358541,1.148392836622064,0.030957649658228666,0.02864539378459918
0.12399999999999997,0.0545,-1.638,0.014201681447196244,1.1496571341583048,0.030951103694508476,0.028729848997239002
0.12499999999999997,0.0265,-1.638,0.014174158561432795,1.1496571341583048,0.030870707380347202,0.028729848997239002
0.12599999999999997,0.0228,-0.638,0.014180454216366522,1.1509200428515018,0.030889097437852547,0.028814211435012758
0.12699999999999997,-0.0,-2.638,0.014215030478353659,1.139651748212966,0.030990097167500515,0.028061488130168486
0.12799999999999997,0.0086,-1.638,0.014279724084688633,1.1321269920468666,0.03117907181005197,0.027558833601583177
0.12899999999999998,0.0061,0.362,0.01429235827069263,1.1206697498766764,0.031215977169318405,0.026793488581117214
0.12999999999999998,-0.0008,-0.638,0.014288027808311872,1.1206697498766764,0.031203327579554484,0.026793488581117214
0.13099999999999998,-0.0074,0.362,0.014334926498426161,1.130843095749746,0.031340322001454375,0.027473069189589458
0.13199999999999998,0.0023,-0.638,0.014274784143599312,1.1321269920468666,0.03116464188946992,0.027558833601583177
0.13299999999999998,-0.0216,0.362,0.014322632865377244,1.1334094339810759,0.031304411421681645,0.027644500861976562
0.13399999999999998,-0.0119,2.362,0.014273594155670795,1.140925732079475,0.03116116584977803,0.028146590390721513
0.13499999999999998,-0.0032,0.362,0.01427298063697877,1.1396517482129658,0.031159373717879805,0.028061488130168472
0.13599999999999998,-0.0007,2.362,0.014305545879491687,1.140925732079475,0.03125449911607782,0.028146590390721513
0.13699999999999998,0.0061,-0.638,0.014284024817460465,1.1396517482129658,0.031191634557505836,0.028061488130168472
0.13799999999999998,-0.0004,-1.638,0.014242633872809362,1.1458600566266528,0.03107072865329934,0.02847620380601365
0.13899999999999998,-0.0062,0.362,0.014279261963224175,1.1471271456506695,0.031177721920263645,0.028560845490339867
0.13999999999999999,-0.0044,0.362,0.014273647942054227,1.1483928366220635,0.03116132296364382,0.028645393784599148
0.141,0.0035,-0.6379999999999445,0.014315078328996686,1.1471271456506698,0.031282344081599134,0.02856084549033988
0.142,0.014,1.362,0.014389902414558741,1.1483928366220635,0.03150091057718317,0.028645393784599148
0.143,-0.0063,1.3619999999999723,0.01442679412971057,1.1370994984487663,0.03160867391082434,0.027890997568914756
0.144,-0.0093,0.362,0.014492091272033039,1.1370994984487663,0.03179941152508143,0.027890997568914756
0.145,-0.0067,0.362,0.014687939893094706,1.1445915649069842,0.03237149932874611,0.028391468421465647
0.146,0.0053,0.362,0.015048145254605393,1.1520349089936477,0.03342368490461497,0.02888868461430868
0.147,-0.0103,-0.638,0.01516637306096809,1.1594304690768593,0.03376903676722947,0.029382708830534957
0.148,-0.0044,0.362,0.015163318020675564,1.1705083726553258,0.03376011277643707,0.030122713991902743
0.149,-0.0026,0.362,0.015190991537554247,1.1717488081378347,0.03384094909483943,0.03020557521676343
0.15,-0.0074,1.362,0.01525719507178603,1.1717488081378347,0.03403433434457052,0.03020557521676343
0.151,-0.0059,0.362,0.015780161585322625,1.1717488081378347,0.03556195686495131,0.03020557521676343
0.152,0.0063,-0.638,0.016614046743914673,1.1729879318597667,0.03799779494387907,0.030288348815875207
0.153,-0.0119,0.362,0.016868697408761884,1.1766974738807354,0.03874164771529236,0.03053614662548636
0.154,-0.0141,0.362,0.0168850384167273,1.186390477015692,0.038789380966136426,0.03118364028691926
0.155,-0.012,0.362,0.01686903439899607,1.186390477015692,0.03874263208782399,0.03118364028691926
0.156,-0.0063,0.362,0.016875386619692918,1.193573183779404,0.038761187377961616,0.0316634458783012
0.157,-0.0008,1.362,0.016902480707517757,1.187614324126202,0.03884033114273252,0.031265393406730034
0.158,0.0006,3.362,0.0169404857158101,1.1947896735214605,0.03895134648511463,0.03174470752510075
0.159,-0.0132,1.362,0.016950672588973568,1.1947896735214605,0.038981103068861336,0.03174470752510075
0.16,-0.015,0.362,0.017006099414485512,1.1960049259387415,0.03914300878307747,0.03182588651847101
0.161,0.0031,1.362,0.01693509458412054,1.1960049259387415,0.038935598604579,0.03182588651847101
0.162,0.0052,-0.638,0.01689886387301774,1.1900582425672148,0.03882976611095381,0.03142864742383728
0.163,0.0164,-1.638,0.016891873282209632,1.1912783216437646,0.038809346096148244,0.03151014883857054
0.164,0.0385,-2.638,0.016778400334217472,1.1924971524220096,0.03847788351428124,0.03159156686684156
0.165,0.0236,-1.638,0.016703819276534915,1.1633285012351204,0.03826002692048287,0.02964309780177478
0.166,0.0261,0.362,0.016698823305217297,1.1694111184495886,0.038245433331604003,0.0300494172918704
0.167,0.004,-0.638,0.01666545181091745,1.1583227210588094,0.03814795281437842,0.029308711142701196
0.168,0.001,0.362,0.016236463893559788,1.1169254066201189,0.03689484848252532,0.02654336604519162
0.169,0.014399999999999621,-1.638,0.016023444815709,1.1001944295758523,0.036272604548788556,0.02542573496275923
0.17,0.007599999999999373,0.362,0.015747124400773794,1.0923979136678867,0.03546545289037467,0.024904926853922156
0.171,-0.0037000000000001,-0.638,0.0156762933560248,1.0845453520725488,0.03525855035206695,0.02438037488708576
0.17200000000000001,-0.005499999999999894,-0.638,0.015682318713595166,1.0963801615017494,0.03527615085167751,0.025170941441432407
0.17300000000000001,-0.0035999999999999166,-0.6379999999999723,0.015583561839287718,1.0845453520725488,0.03498767497161733,0.02438037488708576
0.17400000000000002,-0.0021000000000002384,0.36199999999997223,0.014761571561992586,1.0845453520725488,0.032586582690128006,0.02438037488708576
0.17500000000000002,-0.0064000000000002,-0.6379999999999723,0.01371789839704092,1.0845453520725488,0.029537938867953913,0.02438037488708576
0.17600000000000002,-0.0100000000000002,0.362,0.013459686570879235,1.0739335183268803,0.028783683690111368,0.023671503241133186
0.17699999999999996,-0.0136,0.362,0.01328181945718302,1.0805194880026543,0.02826412115315276,0.024111446730274756
0.17799999999999996,-0.0061,0.362,0.013282109789138694,1.0482395275913172,0.028264969233521953,0.021955141871332854
0.17899999999999996,-0.0014,0.362,0.013319453850989774,1.0440736805686741,0.028374053904164465,0.021676862838085367
0.17999999999999997,0.0124,-1.638,0.013357411467443903,1.0440736805686741,0.02848493081160387,0.021676862838085367
0.18099999999999997,0.0106,-0.638,0.013377548295526509,1.0426813662572094,0.028543751923992115,0.02158385609096646
0.18199999999999997,0.0124,-0.638,0.013357411467443904,1.0426813662572094,0.028484930811603873,0.02158385609096646
0.18299999999999997,-0.0024,1.362,0.013355412259136808,1.0412871902716292,0.028479090981416277,0.021490724983814574
0.18399999999999997,-0.0043,0.362,0.013184640591586794,1.0426813662572094,0.027980254749191386,0.02158385609096646
0.18499999999999997,-0.0097,-0.638,0.013157364779819481,1.0163637485528665,0.027900580155811327,0.01982583637196707
0.18599999999999997,-0.0017,0.362,0.013155235867618546,1.0163637485528665,0.027894361451290324,0.01982583637196707
0.18699999999999997,-0.0032,1.362,0.013158304651533323,0.9908135677921879,0.02790332558818447,0.018119081524097257
0.18799999999999997,-0.0122,-0.638,0.01314431430387756,0.9893463029722546,0.02786245878391746,0.018021068074877983
0.18899999999999997,-0.001,-0.638,0.013171575825878867,0.9849313937814231,0.027942091635870876,0.017726151661763872
0.18999999999999997,0.0128,0.362,0.013157095663768765,0.984931393781423,0.02789979404861511,0.017726151661763865
0.19099999999999998,-0.0147,-0.638,0.013210241801009383,0.9864052257426628,0.02805503770957341,0.017824603796735162
0.19199999999999998,-0.0107,0.362,0.013229285074489379,0.9864052257426631,0.028110664470899067,0.017824603796735186
0.19299999999999998,-0.0143,0.362,0.013187051078827016,0.9777017378979395,0.027987295954503656,0.017243209864085625
0.19399999999999998,-0.0241,1.362,0.013212473879089517,0.9704182222738221,0.028061557768992513,0.01675667022988745
0.19499999999999998,-0.0328,1.362,0.013253175414485032,0.9704182222738221,0.028180449859546822,0.01675667022988745
0.19599999999999998,-0.0194,1.362,0.013239253693133677,0.9704182222738222,0.02813978351761419,0.016756670229887458
0.19699999999999998,0.0074,-1.638,0.013237919096233525,0.9836271468160682,0.028135885064792584,0.017639027822923373
0.19799999999999998,0.011,-0.638,0.013216924009873378,0.9908135677921884,0.028074556918704974,0.018119081524097295
0.19899999999999998,0.0143,-0.638,0.013212472832560666,0.9908135677921883,0.028061554712007025,0.01811908152409729
0.19999999999999998,0.0412,-0.638,0.013218038413127938,0.9994028753234946,0.028077812170168283,0.01869284819941815
0.20099999999999998,0.052,-0.638,0.013257645106430868,0.992278662996087,0.028193506148809874,0.01821695004272997
0.20199999999999999,0.0292,-1.638,0.013270722282711027,0.9937415981800897,0.028231705514297857,0.018314674271799163
0.20299999999999999,0.0085,-1.638,0.013256908828700809,0.992278662996087,0.028191355428997842,0.01821695004272997
0.204,-0.0049,0.36200000000002774,0.013220973047894671,0.992278662996087,0.028086384447824145,0.01821695004272997
0.205,-0.0117,1.3619999999999446,0.01315739223116644,0.9922786629960871,0.027900660343155533,0.01821695004272998
0.206,-0.0096,-0.6379999999999445,0.013136273831676462,0.9937415981800898,0.02783897199061242,0.01831467427179917
0.207,-0.0114,1.3619999999999723,0.01312614006889315,0.9937415981800898,0.02780937054607767,0.01831467427179917
0.208,-0.0059,0.36199999999997223,0.013127114016201164,0.9865765057946356,0.027812215515694034,0.017836045322796614
0.209,-0.0138,-0.638,0.013131060224151813,0.9300295035378284,0.02782374267083586,0.01405869943478468
0.21,0.0028,-1.638,0.01308730726836184,0.9207932973078358,0.027695937163469832,0.013441719856181235
0.211,0.0185,-0.638,0.013017942599847235,0.9300295035378284,0.027493318014826684,0.01405869943478468
0.212,0.0004,-0.638,0.013014287493483129,0.9300295035378284,0.027482641188200756,0.01405869943478468
0.213,0.0026,-0.638,0.013013500406126706,0.9284661859941927,0.02748034204984284,0.013954269653197127
0.214,0.0048,0.362,0.01294721456707252,0.9144608360679911,0.027286716381849804,0.013018710758073957
0.215,-0.0009,1.362,0.012540994834084666,0.8760835370862295,0.02610011954195119,0.010455103020860786
0.216,-0.0063,0.362,0.012338606051696606,0.8629118987691051,0.025508927460152986,0.009575236151709805
0.217,-0.0211,1.362,0.012127505986744848,0.8937595354483602,0.02489228910009174,0.011635861629893189
0.218,-0.0251,1.362,0.012148396879813976,0.9016625030311701,0.02495331289013797,0.012163780722163462
0.219,-0.003,0.362,0.012236843854904662,0.9110926684241389,0.025211672818566993,0.012793716793904827
0.22,0.0057,0.362,0.012283010829101243,0.9343421586187979,0.0253465298460344,0.014346785262261992
0.221,0.0082,-1.638,0.012691099598420174,0.9480538524814234,0.026538586274485736,0.015262727900466688
0.222,0.0013,0.362,0.012926321377791584,0.9480538524814234,0.027225685884404955,0.015262727900466688
0.223,-0.0053,-0.638,0.012968306399243163,0.9600580847641904,0.027348327129356514,0.01606461191981966
0.224,0.0005,-1.638,0.01298055991287332,0.9719140625782212,0.027384120517442937,0.016856592524570443
0.225,-0.0013,-0.638,0.013336544426326372,0.9719140625782213,0.02842397669481103,0.01685659252457045
0.226,0.0067,1.362,0.013351505434944339,0.9719140625782215,0.02846767886904368,0.016856592524570464
0.227,-0.0009,0.362,0.013323469928987506,0.9734076042201025,0.028385785154701814,0.016956361268347764
0.228,-0.0132,1.362,0.013254814433167011,0.9734076042201026,0.02818523755012568,0.01695636126834777
0.229,-0.0118,0.362,0.013248783028205962,0.9734076042201026,0.02816761938565521,0.01695636126834777
0.23,-0.0074,0.362,0.013287439482805639,0.9734076042201026,0.028280537649207495,0.01695636126834777
0.231,-0.0008,0.362,0.01325176681254591,0.960058084764191,0.028176335232723202,0.0160646119198197
0.232,0.00020000000000018319,0.362,0.013239610328951965,0.9600580847641909,0.028140825276299478,0.01606461191981969
0.233,0.0035000000000002664,-0.638,0.013183541406845842,0.958543742979354,0.027977043952092766,0.01596345372423542
0.234,0.008299999999999657,0.362,0.013408586882232905,0.9585437429793549,0.028634417851592018,0.01596345372423548
0.23500000000000001,0.002100000000000044,0.36199999999997223,0.013682575289232465,0.9864052257426623,0.029434757548344893,0.017824603796735134
0.23600000000000002,0.002899999999999883,-0.6379999999999723,0.013788012999643143,0.9849313937814228,0.029742748627604444,0.01772615166176385
0.23700000000000002,0.0007999999999994837,0.36200000000002774,0.01403895369230446,0.9935715533065544,0.03047576430540952,0.018303315255791406
0.23800000000000002,-0.008499999999999518,1.3619999999999723,0.014048947598773986,0.9935715533065513,0.03050495721966742,0.018303315255791198
0.23900000000000002,0.00020000000000068834,0.36199999999997223,0.01441312595861301,1.026155577567273,0.031568748207283885,0.02047993161287318
0.24000000000000002,0.01259999999999974,-0.638,0.01469423523117206,1.0372563271866027,0.03238988846069137,0.021221462892250187
0.24100000000000002,0.007900000000000074,-0.638,0.01563810490928467,1.0386559137678162,0.03514699917288326,0.021314955427777605
0.24199999999999997,0.0092,0.362,0.015877066852805474,1.0386559137678162,0.03584502406929148,0.021314955427777605
0.24299999999999997,0.0103,-0.638,0.015869108645320464,1.0510075856230965,0.03582177757709497,0.022140048448283378
0.24399999999999997,0.0139,0.362,0.01581403788600407,1.063215774370247,0.035660911957655445,0.022955556781593327
0.24499999999999997,-0.0028,0.362,0.01563071494682423,1.055146057086857,0.03512541256497028,0.02241649879122633
0.24599999999999997,-0.005,-1.638,0.0153034530261611,1.0484007056552254,0.03416945713163432,0.021965908583495175
0.24699999999999997,-0.0071,1.362,0.015188425751323386,1.0416116730580587,0.033833454250088775,0.02151240046916539
0.24799999999999997,0.0027,0.362,0.01517230742953348,1.0291472390374345,0.03378637148146083,0.020679774923776154
0.24899999999999997,0.0046,1.362,0.015139147717097685,1.0291472390374345,0.033689509594179164,0.020679774923776154
0.24999999999999997,0.0126,-0.638,0.015112653982565227,1.027734703462989,0.033612119504234254,0.020585417394095425
0.251,0.0083,-0.638,0.014549184932578995,1.0346147992705905,0.0319661861834265,0.021045008540765693
0.252,0.0018,0.362,0.013897129496308799,1.0414494443021662,0.030061485704141657,0.021501563570664486
0.253,-0.0068,0.362,0.013647335827324924,1.0289830451493636,0.029331820564383885,0.020668806754232435
0.254,0.0055,0.362,0.013642574193043655,1.0247389181914617,0.029317911490717403,0.02038529861281365
0.255,-0.0094,-0.638,0.013724194086290067,1.026155577567273,0.02955632902569705,0.02047993161287318
0.256,-0.0036,0.362,0.013689753212904054,1.0261555775672737,0.029455724775818298,0.020479931612873224
0.257,-0.0018,-0.638,0.013730054407030547,1.0247389181914626,0.029573447440945613,0.02038529861281371
0.258,-0.0033,-0.638,0.013862094574977543,1.017792065349619,0.029959146197806034,0.019921248089010697
0.259,-0.0077,0.362,0.013934116302779844,1.0303938694116328,0.03016952680631479,0.020763049968074043
0.26,-0.0066,1.362,0.013937114763294369,1.0303938694116328,0.030178285523536443,0.020763049968074043
0.261,-0.0005,1.362,0.013970658957847323,1.0261555775672746,0.030276270510530338,0.020479931612873283
0.262,0.005,0.362,0.013930749813299741,1.0261555775672746,0.030159693050211264,0.020479931612873283
0.263,-0.0099,0.362,0.014053273151887664,1.037256327186604,0.03051759246911173,0.021221462892250274
0.264,-0.0212,0.362,0.014052364994065506,1.0358548495674607,0.03051493967528024,0.021127844035183904
0.265,-0.0074,-0.638,0.014080207537176608,1.0358548495674607,0.030596269731374196,0.021127844035183904
0.266,-0.0129,2.362,0.014181932512773552,1.0289830451493651,0.030893415647192387,0.02066880675423254
0.267,-0.0082,1.362,0.014244895532403075,1.037256327186604,0.03107733512243142,0.021221462892250274
0.268,0.0147,1.362,0.014147736126720793,1.0289830451493651,0.030793525562267905,0.02066880675423254
0.269,0.0179,-2.638,0.01392370145781522,1.0289830451493651,0.0301391043006621,0.02066880675423254
0.27,0.0328,-1.638,0.013946573611311268,1.0303938694116328,0.03020591549385664,0.020763049968074043
0.271,0.0248,-0.638,0.013971542886764355,1.0386559137678177,0.03027885253000027,0.02131495542777771
0.272,-0.0118,-1.638,0.013974574268779148,1.0275702838680396,0.03028770741327446,0.02057443414730774
0.273,-0.0067,-1.638,0.014172192170325679,1.0358548495674607,0.030864963411543555,0.021127844035183904
0.274,-0.0307,0.362,0.01416317618921934,1.0426813662572056,0.030838627087085166,0.021583856090966205
0.275,-0.009,-0.638,0.01418126028497358,1.0316389933614258,0.030891452021798636,0.02084622438305817
0.276,-0.005,-0.638,0.014329219465578871,1.030229874206509,0.031323651351084975,0.020752095070572765
0.277,-0.0014,0.362,0.01437865584573318,1.030229874206509,0.0314680585467563,0.020752095070572765
0.278,-0.0046,0.362,0.014379808517508948,1.0384932232765618,0.03147142558330203,0.021304087685304406
0.279,0.0102,0.362,0.014409279785264668,1.0302298742065092,0.03155751326035682,0.02075209507057278
0.28,0.0077,0.362,0.014361193710199253,1.0384932232765618,0.03141705040224782,0.021304087685304406
0.281,-0.009,-0.638,0.014653067715673977,1.0398911451241228,0.03226963520899135,0.021397469016443158
0.28200000000000003,-0.0025,0.3620000000000555,0.01476449233709133,1.0522283172106677,0.03259511448270424,0.02222159345082369
0.28300000000000003,-0.0246,1.3620000000000556,0.01483571680709048,1.064422505104259,0.03280316624425412,0.02303616652559632
0.28400000000000003,-0.0276,2.361999999999889,0.014855183192585875,1.0751282194643779,0.032860028945982535,0.023751309406783393
0.28500000000000003,-0.0196,0.3620000000000555,0.01483189205645821,1.0751282194643779,0.03279199387461006,0.023751309406783393
0.28600000000000003,-0.0265,1.362,0.01484972538635018,1.075128219464378,0.03284408630433778,0.023751309406783407
0.28700000000000003,-0.0062,1.361999999999778,0.014879017910602373,1.0817069152299112,0.03292965185885835,0.02419076699793143
0.28800000000000003,0.0344,-2.6379999999999444,0.01489807893614561,1.083049061387538,0.032985330475228045,0.024280422506929036
0.28900000000000003,0.0286,-1.638,0.014885154312772176,1.0764785679263946,0.03294757672767129,0.023841512830604473
0.29000000000000004,0.055,-0.638,0.014927052916670045,1.0778272246149094,0.03306996554077915,0.023931603243772005
0.29100000000000004,0.0311,-0.638,0.014926689344521965,1.0778272246149094,0.03306890352057936,0.023931603243772005
0.29200000000000004,0.0094,-1.638,0.015000912408390573,1.0764785679263946,0.03328571438889017,0.023841512830604473
0.29300000000000004,0.0054,-1.638,0.014979238041514737,1.0764785679263948,0.03322240201592271,0.023841512830604487
0.29400000000000004,0.0017999999999994615,0.362,0.0149724123077332,1.0751282194643785,0.033202463560260825,0.02375130940678344
0.29500000000000004,-0.00789999999999984,-0.638,0.01491552992327945,1.0764785679263944,0.03303630605446399,0.023841512830604455
0.29600000000000004,-0.004999999999999861,-0.638,0.014913578909559059,1.0764785679263946,0.03303060700410475,0.023841512830604473
0.29700000000000004,-0.0025000000000001167,0.362,0.01491357890955906,1.0724224216493297,0.033030607004104755,0.023570561819067838
0.29800000000000004,-0.004600000000000366,-0.638,0.014899077616284166,1.0895799335248393,0.03298824769120809,0.024716685474520685
0.29900000000000004,-0.011199999999999672,0.362,0.014905393236319437,1.097396470116327,0.03300669606820034,0.025238830967189957
0.30000000000000004,-0.005300000000001327,1.362,0.014901833608312941,1.0895799335248386,0.032996298140673154,0.02471668547452064
0.30100000000000005,-0.029199999999999095,1.362,0.01486394788572246,1.0960718925816666,0.03288563124034193,0.025150349044113295
0.30200000000000005,-0.012899999999998857,0.362,0.015086425824892691,1.0947457123877395,0.033535505183256584,0.025061760063223682
0.30300000000000005,0.007700000000000444,1.362,0.015278543522220665,1.1064714242237677,0.034096694692346205,0.02584503888650563
0.30400000000000005,0.015699999999998767,-0.638,0.015272773284445216,1.1077835671014395,0.034079839415869485,0.025932690173145877
0.30499999999999994,-0.0065,1.362,0.015263505128281084,1.1077835671014395,0.034052766470064624,0.025932690173145877
0.30599999999999994,0.0142,0.362,0.015255542986090763,1.11416946363987,0.034029508484313,0.02635926875499822
0.30699999999999994,0.0222,-0.638,0.015262451982257667,1.1141694636398702,0.03404969015534661,0.026359268754998232
0.30799999999999994,0.0153,-1.638,0.015374603314343056,1.1128648501913156,0.03437729220280037,0.02627212043504022
0.30899999999999994,-0.0141,-0.638,0.01537585721648698,1.1115587055460106,0.03438095494047828,0.026184869830973085
0.30999999999999994,-0.0101,1.362,0.015386784475371222,1.1115587055460103,0.034412874243771166,0.02618486983097307
0.31099999999999994,0.0152,-0.638,0.015378239337771969,1.1154725512641595,0.034387913286810276,0.026446315149729716
0.31199999999999994,0.0185,-1.638,0.01544247348779783,1.1090941576152162,0.03457554582468243,0.02602023776170944
0.31299999999999994,-0.0021,0.362,0.015481496123255667,1.1167741184053244,0.03468953372866289,0.026533259976023474
0.31399999999999995,-0.0101,0.362,0.015481496123255669,1.1244016242534394,0.03468953372866289,0.027042778194519234
0.31499999999999995,-0.017,-0.638,0.015335963197836061,1.1256928673221616,0.034264421663983184,0.027129033371653306
0.31599999999999995,-0.0148,1.362,0.015368483833474115,1.1244016242534394,0.03435941676231525,0.027042778194519234
0.31699999999999995,-0.013,0.362,0.015340726029878717,1.1000408403583053,0.03427833423639618,0.025415475186357478
0.31799999999999995,-0.0002,1.362,0.0154217294837761,1.0922432281192789,0.03451495110802999,0.024894593842486552
0.31899999999999995,0.0085,-0.638,0.015426158365790164,1.0922432281192789,0.03452788818856894,0.024894593842486552
0.31999999999999995,0.0101,1.362,0.015322361278464675,1.0616894232966576,0.03422468948646455,0.022853596364216973
0.32099999999999995,0.0087,-0.638,0.014966906265564392,1.0508468074004758,0.033186380018011906,0.022129308445562452
0.32199999999999995,0.0236,1.362,0.014774300617865933,1.0508468074004758,0.03262376517105554,0.022129308445562452
0.32299999999999995,0.0015,1.362,0.01481049556777323,1.046691337441522,0.032729493203675686,0.021851722601295684
0.32399999999999995,-0.0072,-0.638,0.014802206812955843,1.042519303958671,0.03270528115912368,0.02157303031183487
0.32499999999999996,-0.0206,0.362,0.014480813627215905,1.042519303958671,0.03176646871946467,0.02157303031183487
0.32599999999999996,-0.0137,1.362,0.014531394838474135,1.041124910954615,0.031914220048519515,0.021479884707825248
0.32699999999999996,0.002,1.362,0.014523426923178444,1.0397286479144634,0.03189094519911497,0.02138661418520148
0.32799999999999996,-0.0161,0.362,0.014526035156894919,1.0397286479144636,0.03189856403600141,0.021386614185201495
0.32899999999999996,0.0006,1.362,0.014566865177058713,1.0520677255416935,0.03201783143973633,0.022210865909906598
0.32999999999999996,0.03,-0.638,0.01483582643972331,1.064263753474159,0.03280348648900124,0.02302556189947573
0.33099999999999996,0.0181,-1.638,0.014993513133072208,1.0656278693217076,0.033264100577454346,0.02311668498614456
0.33199999999999996,0.0145,-1.638,0.015056426408799083,1.0763215945020053,0.033447874747202545,0.023831026988818352
0.33299999999999996,-0.0084,-1.638,0.015085465689325285,1.076321594502005,0.033532700558720555,0.023831026988818334
0.33399999999999996,0.0003,0.362,0.014884394091844213,1.0697097796242545,0.032945356068068886,0.023389357037379654
0.33499999999999996,-0.0076,0.362,0.014633351301897943,1.045464140643966,0.03221204215680579,0.021769745722026685
0.33599999999999997,-0.0098,1.362,0.01450839471393676,1.0536080155618641,0.031847035042777465,0.022313757450427425
0.33699999999999997,-0.0076,-0.638,0.014338450977826527,1.0577363127003154,0.03135061725739382,0.022589528147335468
0.33799999999999997,-0.0058,-0.638,0.014421241164320059,1.0618485598019691,0.031592453302495,0.022864226700043462
0.33899999999999997,-0.0112,-0.638,0.014009516174733987,1.0618485598019705,0.030389775215055242,0.02286422670004355
0.33999999999999997,-0.0126,-0.638,0.013764517521885787,1.051007585623102,0.029674116659743788,0.02214004844828375
0.34099999999999997,-0.0169,0.362,0.012617002000908326,1.0496244690941066,0.026322141902360006,0.02204765611403205
0.34199999999999997,-0.0045,0.362,0.012245612686705728,1.0496244690941066,0.025237287202260806,0.02204765611403205
0.34299999999999997,-0.0093,0.362,0.012219230411955197,1.0496244690941066,0.025160222694295964,0.02204765611403205
0.344,-0.0049,-0.6379999999999445,0.012211447264348516,1.0386559137678215,0.025137487564501498,0.021314955427777962
0.345,-0.0014,0.3620000000000555,0.012218831789036341,1.0386559137678215,0.025159058288292478,0.021314955427777962
0.346,-0.005,1.3620000000000556,0.012207090348967895,1.037256327186608,0.025124760703636506,0.02122146289225054
0.347,0.0026,2.3619999999999446,0.012197147611505378,1.037256327186608,0.025095717257701013,0.02122146289225054
0.348,0.0051,1.3619999999999446,0.012198025970267014,1.0386559137678215,0.025098283006349382,0.021314955427777962
0.349,-0.0033,0.3620000000000555,0.012259391359424086,1.0454641406439702,0.025277535688924276,0.021769745722026966
0.35,0.0068,1.3619999999999446,0.012244290579223655,1.0468527538716472,0.02523342523192102,0.02186250523634717
0.351,0.0271,0.36199999999988897,0.012330444375898258,1.0468527538716472,0.025485086622487708,0.02186250523634717
0.352,0.0242,-1.638,0.012006112306333002,1.0386559137678215,0.02453768949336937,0.021314955427777962
0.353,0.0053,-0.638,0.01215036261666623,1.0386559137678215,0.02495905494781646,0.021314955427777962
0.354,-0.0015,0.362,0.01247192520724641,1.0386559137678217,0.025898362231107547,0.021314955427777976
0.355,-0.008,1.362,0.012593237645337492,1.0372563271866082,0.026252724523211115,0.021221462892250558
0.356,0.0058,0.362,0.01282809171199791,1.0372563271866082,0.026938750018050687,0.021221462892250558
0.357,0.0186,0.362,0.012791189991964847,1.0372563271866082,0.02683095745943718,0.021221462892250558
0.358,0.0038,0.362,0.012748592924496132,1.0358548495674644,0.026706528384375885,0.021127844035184157
0.359,0.0096,0.362,0.013072341640870186,1.0358548495674662,0.0276522214971774,0.021127844035184275
0.36,0.0041,-1.638,0.01434063423634965,1.0962260378777182,0.03135699471140169,0.02516064596661951
0.361,-0.0141,-0.638,0.015396059500053839,1.1001944295758495,0.03443996725300886,0.025425734962759038
0.362,-0.0121,1.362,0.015460126683032477,1.1001944295758488,0.03462711206821638,0.025425734962758993
0.363,-0.0099,1.362,0.01536262830667741,1.0962260378777167,0.0343423123505187,0.025160645966619405
0.364,-0.0002,-0.638,0.015375301957254969,1.1039955195583269,0.03437933298862187,0.025679648186135013
0.365,0.0124,0.362,0.015344400953790856,1.1117107035054767,0.03428906895149468,0.026195023311162333
0.366,-0.009,0.362,0.015309625995732164,1.1104032012617873,0.03418748881643688,0.02610768201937578
0.367,-0.0178,0.362,0.015330224613536605,1.1026788690678,0.03424765884956956,0.025591695790466825
0.368,-0.0152,1.362,0.015296535463933785,1.1269826309469944,0.03414925043852673,0.027215189721774998
0.369,0.0014,-0.638,0.01533475578715923,1.1269826309469944,0.03426089473119966,0.027215189721774998
0.37,-0.0008,-0.638,0.015335314738315587,1.137099498448762,0.034262527467430644,0.027890997568914458
0.371,-0.0066,-0.638,0.01530690065615128,1.1409257320794706,0.034179527904960365,0.028146590390721215
0.372,-0.0157,1.362,0.01529983572474499,1.1396517482129616,0.034158890735960366,0.02806148813016819
0.373,-0.0045,1.362,0.015173724754793628,1.1396517482129616,0.03379051158972793,0.02806148813016819
0.374,-0.0002,0.362,0.0153920668324481,1.1396517482129616,0.03442830438589778,0.02806148813016819
0.375,-0.0151,0.362,0.015520492626864254,1.138376338601889,0.03480344529964614,0.02797629062972358
0.376,-0.0013,0.362,0.015508816170908055,1.138376338601889,0.03476933753822123,0.02797629062972358
0.377,-0.0031,0.362,0.015624272818233944,1.1308430957497417,0.03510659464745744,0.027473069189589177
0.378,0.0118,-1.638,0.015629382632034193,1.1308430957497417,0.03512152077835524,0.027473069189589177
0.379,0.0299,-1.638,0.015572614179268314,1.1321269920468622,0.034955696075152205,0.02755883360158288
0.38,0.023,-0.638,0.015981427238376075,1.1258429570564048,0.036149868205783434,0.027139059382190554
0.381,0.0164,-1.638,0.01589508927330144,1.1258429570564048,0.03589766884617256,0.027139059382190554
0.382,-0.0097,0.362,0.015793014742470565,1.1258429570564048,0.03559950185456146,0.027139059382190554
0.383,0.0012,-0.638,0.01573444838390068,1.1156240159826665,0.03542842534015326,0.026456433009365017
0.384,0.0044,-0.638,0.015714761686766027,1.1053106016505387,0.035370919092398624,0.025767495812625534
0.385,-0.0044,1.362,0.015719873679935256,1.106624120935963,0.0353858515893888,0.025855239043453028
0.386,0.0145,-1.638,0.015736807949324954,1.106624120935963,0.035435317799205855,0.025855239043453028
0.387,0.0166,-1.638,0.015706563816743558,1.1001944295758483,0.0353469725288208,0.025425734962758965
0.388,-0.003800000000000888,-2.638,0.015688575130995665,1.0988732246958743,0.03529442629354715,0.025337478333381402
0.389,-0.011799999999998667,-0.638,0.01567973386470607,1.1053106016505387,0.035268600323541274,0.025767495812625534
0.39,0.00020000000000072165,0.362,0.015842805338784648,1.1282709202015384,0.03574494374092282,0.02730124758380138
0.391,0.006699999999999801,-0.638,0.01594499395711285,1.1345415071913378,0.03604344399025825,0.027720123475290192
0.392,0.004899999999999811,-1.638,0.015911751625476863,1.1345415071913378,0.03594634076639467,0.027720123475290192
0.393,0.0032000000000001554,-0.638,0.0160484784551894,1.1420503546795893,0.03634572959685089,0.02822171530246863
0.394,0.0045999999999988455,0.362,0.01602875849649735,1.1420503546795893,0.03628812618971257,0.02822171530246863
0.395,-0.005799999999999278,0.362,0.016057167187122662,1.1420503546795895,0.03637111000311254,0.02822171530246865
0.396,0.0006999999999996004,-0.638,0.016141351487817035,1.1420503546795893,0.03661701835531956,0.02822171530246863
0.397,-0.002900000000001132,-0.638,0.016171274509913215,1.1358212229291227,0.03670442563905337,0.027805608625466546
0.398,-0.01309999999999959,1.362,0.016185076406343223,1.1117107035054776,0.0367447419638365,0.026195023311162392
0.399,-0.009400000000000677,-0.638,0.01629025880495572,1.1117107035054783,0.037051987259106973,0.026195023311162437
0.4,-0.015499999999999157,1.362,0.016290890175747925,1.111710703505478,0.03705383153826428,0.026195023311162424
0.401,-0.007900000000001644,0.362,0.016308041699542253,1.1156240159826682,0.03710393236370696,0.026456433009365135
0.4019999999999999,-0.0227,0.362,0.016366158542240078,1.173131970710101,0.03727369581016214,0.030297970626710607
0.4029999999999999,-0.0292,1.362,0.016423297354661272,1.1633285012351189,0.037440602360358156,0.029643097801774678
0.4039999999999999,-0.0235,0.362,0.016419739562166205,1.1912783216437632,0.03743020979449089,0.03151014883857045
0.4049999999999999,-0.0253,1.362,0.016419105413338117,1.1924971524220083,0.03742835740049245,0.03159156686684147
0.4059999999999999,-0.0104,0.362,0.016405141794064663,1.1865328888686701,0.037387568671738286,0.031193153414154698
0.4069999999999999,0.0196,0.36199999999988897,0.01646439743574721,1.1877565892400888,0.03756065863132619,0.03127489673177823
0.4079999999999999,0.0327,-1.638000000000111,0.01635917647034429,1.1985727149888246,0.03725330067970763,0.031997415105708284
0.4089999999999999,0.0606,-3.637999999999889,0.016355618309582983,1.1997841355976913,0.037242907038108376,0.03207833813386058
0.4099999999999999,0.0569,-1.6379999999999444,0.016339360511918335,1.1997841355976913,0.03719541685049319,0.03207833813386058
0.4109999999999999,0.0207,-0.637999999999889,0.016339252433474637,1.1889790301765062,0.037195101145643485,0.031356555919007
0.4119999999999999,0.0065,1.362,0.016290207878485743,1.1877565892400888,0.03705183849925256,0.03127489673177823
0.4129999999999999,-0.0066,1.362,0.016249184344466393,1.18053849331543,0.036932005827730686,0.03079272714060413
0.4139999999999999,-0.0026,1.3619999999999446,0.016244199960365958,1.1805384933154301,0.036917446085940414,0.030792727140604145
0.4149999999999999,-0.0135,0.362,0.016245788003456562,1.18053849331543,0.03692208487317774,0.03079272714060413
0.4159999999999999,-0.0168,0.362000000000111,0.01621199251229102,1.1817684007942006,0.03682336583083852,0.030874885093672463
0.4169999999999999,-0.0081,2.362,0.016187135275555646,1.1829970295955519,0.03675075606778772,0.030956957630950393
0.4179999999999999,0.0108,1.362,0.016089798387064907,1.1829970295955519,0.03646642806767029,0.030956957630950393
0.41899999999999993,0.0086,-1.638,0.01604318804235341,1.1829970295955519,0.0363302759232768,0.030956957630950393
0.41999999999999993,0.0039,-1.638,0.01605523350793208,1.1829970295955516,0.03636546158815238,0.03095695763095038
0.42099999999999993,-0.0074,0.362,0.016072188862997296,1.1817684007942004,0.03641498939073293,0.03087488509367245
0.42199999999999993,-0.0132,1.362,0.016113056289302395,1.1805384933154295,0.036534366060477004,0.0307927271406041
0.42299999999999993,-0.0259,1.362,0.016036717357928967,1.1745135044059296,0.036311374592133794,0.030390257227534974
0.42399999999999993,-0.0212,0.362,0.016038964478497838,1.1672135155780687,0.03631793859173638,0.029902617181538835
0.42499999999999993,-0.0197,0.362,0.01607997557448172,1.1745135044059296,0.036437734930868694,0.030390257227534974
0.42599999999999993,-0.0234,0.362,0.016412825058884323,1.1817684007941993,0.03741001203678128,0.030874885093672373
0.42699999999999994,-0.0045,1.362,0.0165322719290422,1.1817684007941995,0.037758924871769906,0.03087488509367239
0.42799999999999994,0.009,-0.638,0.01652960964208895,1.1889790301765053,0.037751148141520016,0.031356555919006934
0.42899999999999994,0.0359,-0.638,0.01648824239303212,1.1853079251615632,0.03763031145383602,0.031111325705570077
0.42999999999999994,0.025,-0.638,0.016246659722798228,1.1756059962991825,0.03692463122760639,0.03046323580457649
0.43099999999999994,0.0022,-1.638,0.016103218141474748,1.1756059962991823,0.036505628128331566,0.030463235804576477
0.43199999999999994,0.0051,-0.638,0.016020950703579815,1.1756059962991823,0.03626531906920568,0.030463235804576477
0.43299999999999994,-0.0029,-0.638,0.016010805693001087,1.1865328888686677,0.036235684769057544,0.031193153414154535
0.43399999999999994,0.004,-0.638,0.016025541085573577,1.185307925161563,0.036278727902714726,0.03111132570557006
0.43499999999999994,0.0105,0.362,0.01644069753786978,1.185307925161563,0.03749142953770134,0.03111132570557006
0.43599999999999994,0.0007,-0.638,0.01660742715207571,1.179307303158614,0.03797845864354782,0.03071048350450317
0.43699999999999994,-0.001,0.362,0.016586406053321817,1.1683128337268276,0.03791705451340106,0.02997605175318903
0.43799999999999994,-0.0024,1.362,0.01651501527135053,1.1572139126446659,0.03770851694270764,0.029234642620293294
0.43899999999999995,-0.0253,2.362,0.01666630262926237,1.1385247562974463,0.03815043811550346,0.02798620494789513
0.43999999999999995,-0.022,1.362,0.016822434279847972,1.1372480827796294,0.03860650981303119,0.02790092301834282
0.44099999999999995,-0.0134,0.362,0.017271327391629464,1.148539959957152,0.03991775863881903,0.028655221639350904
0.44199999999999995,-0.0214,1.362,0.017648766456252366,1.148539959957152,0.041020285091784854,0.028655221639350904
0.44299999999999995,-0.0048,0.362,0.01782842439127948,1.138524756297446,0.041545078745696934,0.027986204947895117
0.44399999999999995,0.0107,-0.638,0.01783113848801776,1.1447391767864528,0.04155300681602758,0.028401328911035015
0.44499999999999995,0.0165,0.362,0.017825150081380508,1.1447391767864528,0.04153551425273055,0.028401328911035015
0.44599999999999995,0.011,-0.638,0.01782009689502711,1.1559578801592034,0.041520753534647604,0.02915073951394251
0.44699999999999995,-0.0072,0.362,0.017833609753817484,1.1559578801592034,0.0415602255598511,0.02915073951394251
0.44799999999999995,-0.0192,1.362,0.01790911759412574,1.165823331220634,0.04178078935186173,0.029809752715580302
0.44899999999999995,-0.0036,0.362,0.01788995487869413,1.1597218965988396,0.041724813692068506,0.02940217622063296
0.44999999999999996,0.0101,-1.638,0.01786548439791851,1.1877565892400863,0.04165333367078648,0.031274896731778065
0.45099999999999996,0.0304,-3.638,0.01782853974426795,1.1805384933154275,0.04154541570001125,0.03079272714060397
0.45199999999999996,0.0278,-0.638,0.017913012181588576,1.1877565892400863,0.04179216571987349,0.031274896731778065
0.45299999999999996,-0.0041,-2.638,0.017777628374580773,1.1877565892400863,0.04139669995461559,0.031274896731778065
0.45399999999999996,0.0003,-0.638,0.01753711636697238,1.1877565892400863,0.040694147210349176,0.031274896731778065
0.45499999999999996,0.0042,-0.638,0.017379374866337265,1.194931084358854,0.040233373025900354,0.03175415378438649
0.45599999999999996,0.0151,-0.638,0.01720217906097757,1.188979030176504,0.03971577142851713,0.031356555919006844
0.45699999999999996,-0.0012,-1.638,0.017416040814240637,1.1902002155585745,0.04034047687729137,0.031438131235068965
0.45799999999999996,0.0017,-0.638,0.01730522234167378,1.191420149247063,0.04001676820764347,0.03151962293786396
0.45899999999999996,-0.0063,0.362,0.01699894990107555,1.1805384933154264,0.03912212454400647,0.030792727140603892
0.45999999999999996,-0.0041,0.362,0.015881456227576946,1.1348393262339085,0.0358578457463544,0.027740017819657323
0.46099999999999997,-0.0062,0.362,0.014864019601812951,1.1348393262339094,0.03288584072816204,0.027740017819657386
0.46199999999999997,0.0035,0.362,0.014780458325409345,1.13483932623391,0.032641752274385774,0.027740017819657427
0.46299999999999997,0.009,1.362,0.014776013485508176,1.13483932623391,0.032628768579719365,0.027740017819657427
0.46399999999999997,-0.0023,-0.638,0.014863812150874756,1.1272824469862253,0.032885234749161746,0.027235217465735775
0.46499999999999997,-0.0067,-0.638,0.014879388001573294,1.127282446986226,0.03293073292100503,0.02723521746573582
0.46599999999999997,-0.0003,-0.638,0.015004630521655819,1.1756059962991865,0.03329657526317236,0.030463235804576758
0.46699999999999997,-0.0014,0.362,0.01514206069986433,1.175605996299186,0.033698018624797044,0.030463235804576726
0.46799999999999997,-0.009,1.362,0.01530788022423193,1.1523282068781602,0.03418238929325486,0.02890827694482683
0.469,-0.0064,-0.6379999999999445,0.01531571479738611,1.144886769634121,0.03420527464074482,0.02841118812927805
0.47,0.0074,0.362,0.015322027858324901,1.1572139126446699,0.034223715542433565,0.02923464262029356
0.471,0.0132,0.3619999999999445,0.015317013448405236,1.1460075051176375,0.03420906809308179,0.02848605338121456
0.472,0.0006,-0.6379999999999445,0.015553731007355538,1.1534417119515556,0.034900536981933974,0.028982659204582508
0.473,0.0052,0.3620000000000555,0.01585619004005388,1.1534417119515554,0.03578404140885795,0.028982659204582494
0.474,-0.0115,1.362,0.015669006076600246,1.1534417119515554,0.03523726368863228,0.028982659204582494
0.475,-0.0362,1.3619999999999446,0.015534338265460555,1.1534417119515554,0.034843889398419745,0.028982659204582494
0.476,-0.0199,0.3620000000000555,0.01543329370380515,1.1608283094211298,0.034548731020299234,0.029476084717245055
0.477,0.0008,1.362,0.015299399646159796,1.1608283094211298,0.03415761691928157,0.029476084717245055
0.478,-0.0018,1.361999999999889,0.015297371061281862,1.1534417119515554,0.03415169127803337,0.028982659204582494
0.479,0.0102,-0.638,0.01528222255346342,1.152181567268596,0.034107441405250655,0.028898481402992598
0.48,0.0081,-0.638,0.01492347684913162,1.1583227210588094,0.033059519592205586,0.029308711142701196
0.481,0.0023,-1.638,0.014808720888582833,1.1802522058324798,0.032724309239067,0.03077360310567121
0.482,0.0078,-1.638,0.015178606027650634,1.1692666212374323,0.033804770136215086,0.030039764862415542
0.483,-0.007,0.362,0.015487050914541955,1.190994615769253,0.03470575967056414,0.03149119725536151
0.484,-0.037,-0.638,0.015538670979837908,1.2005721942921914,0.03485654556642649,0.03213098054018414
0.485,-0.0239,-0.638,0.01557081633231122,1.2217435643206462,0.03495044443584306,0.033545230355892734
0.486,-0.0119,0.362,0.015540845850881752,1.2217435643206462,0.03486289852000861,0.033545230355892734
0.487,0.0063,0.362,0.0156034181597228,1.2275367608045322,0.035045676701141844,0.03393221650977355
0.488,0.0227,-1.638,0.01564979160702634,1.2275367608045322,0.03518113685129469,0.03393221650977355
0.489,0.0257,0.362,0.015699610858954313,1.2217435643206462,0.035326662442749936,0.033545230355892734
0.49,0.0391,-1.638,0.016146793260344367,1.210073969897619,0.03663291416135755,0.03276570018188988
0.491,0.0369,-0.638,0.016754410101440496,1.2312191877519825,0.038407806331687944,0.03417820302953077
0.492,0.0257,-0.638,0.017320747650692938,1.2416567666312155,0.04006211874363315,0.03487543443149293
0.493,-0.0045,1.362,0.017311568073429647,1.2869493465953383,0.04003530454312125,0.03790098368886909
0.494,-0.0001,0.362,0.017392445227989627,1.2869493465953386,0.04027155248537405,0.03790098368886911
0.495,0.0039,-1.638,0.017381262600309123,1.2858200503126214,0.04023888723159662,0.037825546574616856
0.496,-0.007,-0.638,0.01730888668999631,1.2858200503126214,0.04002747203068973,0.037825546574616856
0.497,-0.0167,-1.638,0.01727568524657338,1.2858200503126214,0.039930488244215474,0.037825546574616856
0.498,0.0101,-0.638,0.017356225479240685,1.2869493465953386,0.04016575201356708,0.03790098368886911
0.499,-0.0007,-2.638,0.01736524743028897,1.2814247767756803,0.04019210577665209,0.037531941825313754
0.5,-0.0104,0.362,0.017496380265481826,1.2880776527905393,0.04057515414976359,0.0379763546651678
0.501,-0.0191,1.362,0.017480617845452975,1.279155432581267,0.040529110995587356,0.03738034938682655
0.502,-0.0056,0.362,0.017236238460742112,1.226628283155619,0.03981526136671434,0.03387153010422568
0.503,0.0014,1.362,0.017145284543640685,1.2254433998031427,0.03954957848170249,0.033792379767680444
0.504,-0.0007,1.362,0.01717122335934424,1.2041967656725447,0.03962534761413278,0.032373102301780005
0.505,0.0051,-0.638,0.01729645407573766,1.2029897886266536,0.03999115547688156,0.03229247610411675
0.506,0.0291,-0.638,0.01730129109009336,1.201781599386421,0.04000528474112681,0.032211768931739916
0.507,-0.0005,-0.638,0.01731125203933519,1.201781599386421,0.04003438138496981,0.032211768931739916
0.508,-0.0045,0.362,0.01736203307566014,1.1922137365873482,0.040182716417309965,0.031572634658326
0.509,-0.0008,-1.638,0.017491616120642435,1.2195017144473397,0.04056123774257761,0.03339547454103952
0.51,-0.0106,-1.638,0.01750518076593587,1.2473574821552365,0.04060086103985356,0.03525624284721746
0.511,-0.0135,-0.638,0.017501547307229477,1.2576611332632828,0.04059024744758123,0.03594452785952867
0.512,0.0054,1.362,0.01749471897060506,1.2576611332632828,0.04057030138882948,0.03594452785952867
0.513,0.017399999999997258,0.362,0.017569029316971175,1.2644390484340746,0.040787367215546565,0.036397293328569995
0.514,-0.007300000000001809,1.362,0.01760178811115163,1.2644390484340746,0.04088305799198302,0.036397293328569995
0.515,-0.02360000000000031,3.362,0.017602351332260582,1.2700375070730898,0.040884703201050365,0.03677127097327782
0.516,-0.026399999999999722,0.362,0.017596441336511167,1.2700375070730896,0.04086743968155443,0.03677127097327781
0.517,-0.02389999999999867,0.362,0.01760302372747224,1.2700375070730896,0.04088666731546561,0.03677127097327781
0.518,-0.011899999999999756,0.362,0.01763213658722886,1.2711808243867768,0.040971708057168446,0.03684764469392061
0.519,-0.009699999999998913,2.362,0.017609533961509386,1.265587423341855,0.040905684173850744,0.036474004897047135
0.52,0.00010000000000309753,0.362,0.017667177534807635,1.271180824386776,0.04107406516660328,0.03684764469392055
0.521,0.02800000000000061,1.362,0.017651582783531565,1.2778870331028562,0.04102851178482372,0.037295620164004575
0.522,0.03349999999999727,1.362,0.01769561669874071,1.2790233337545625,0.041157137994710706,0.037371525170865505
0.523,0.008899999999999601,1.362,0.017872332836051934,1.284558231633036,0.04167333844748108,0.03774125694987066
0.524,0.005300000000000366,0.362,0.01791853103264738,1.2945658300328409,0.041808286677804514,0.03840976560913963
0.525,0.008600000000000333,1.362,0.01795032995155651,1.287946469075806,0.04190117359004838,0.03796759157878576
0.526,0.011599999999999121,0.362,0.01770905999983074,1.2879464690758056,0.04119640683690581,0.03796759157878572
0.527,0.0037000000000002443,0.362,0.017608694463664188,1.2879464690758053,0.040903231940713554,0.03796759157878571
0.528,0.0058999999999977465,0.362,0.017718599301484853,1.2812929119139975,0.041224271818043855,0.03752313323824156
0.5289999999999999,-0.0144,1.362,0.01771836004155882,1.2846897613313901,0.04122357292271926,0.037750043147996126
0.5299999999999999,-0.0169,2.362,0.01781757200082042,1.2902003507352144,0.04151337813841882,0.03811815111825643
0.5309999999999999,-0.0334,0.362,0.01781120547606811,1.295687503684757,0.04149478106511403,0.03848469353082706
0.5319999999999999,-0.0312,2.362,0.017851577089375188,1.2868180478562696,0.041612709429695034,0.03789221291884896
0.5329999999999999,-0.013,-1.638,0.017840310079314078,1.2868180478562696,0.04157979768895983,0.03789221291884896
0.5339999999999999,-0.0108,2.362,0.017839538947765635,1.2868180478562694,0.0415775451586561,0.03789221291884894
0.5349999999999999,-0.0042,0.362,0.017498071785644772,1.2856886362461184,0.040580095200916405,0.0378167681007116
0.5359999999999999,-0.014,1.362,0.017469409371414467,1.2845582316330337,0.04049637024275304,0.03774125694987051
0.5369999999999999,-0.0121,0.362,0.01743142674456542,1.2856886362461184,0.040385420278164594,0.0378167681007116
0.5379999999999999,0.0127,-0.638,0.017564391073762346,1.2868180478562694,0.04077381857601151,0.03789221291884894
0.5389999999999999,0.0454,-1.638,0.017534959369180328,1.2868180478562694,0.0406878464658115,0.03789221291884894
0.5399999999999999,0.0498,-2.638,0.017347742786969725,1.2868180478562694,0.04014097346386808,0.03789221291884894
0.5409999999999999,0.0459,-1.638,0.016919890206555724,1.2778870331028496,0.0388911855322786,0.03729562016400413
0.5419999999999999,0.0206,-3.638,0.01656107065761617,1.3033825636415568,0.03784304801386255,0.038998724371114867
0.5429999999999999,0.0174,0.362,0.016449454616715507,1.3033825636415568,0.03751700959017356,0.038998724371114867
0.5439999999999999,0.0087,0.362,0.016495627837438333,1.2968082071459348,0.03765188486419006,0.03855955664366787
0.5449999999999999,-0.0047,0.362,0.01658117356568761,1.2979279429295258,0.03790177004347664,0.03863435511554085
0.5459999999999999,-0.0026,-0.638,0.016587313005676084,1.2890739025056142,0.03791970378597479,0.038042904254261496
0.5469999999999999,-0.0182,-0.638,0.016596930177612865,1.2979279429295258,0.03794779623176764,0.03863435511554085
0.5479999999999999,-0.02,-0.638,0.016525619038387045,1.2879464690758065,0.03773949130321938,0.037967591578785785
0.5489999999999999,-0.0217,1.362,0.016567462402454075,1.2868180478562694,0.03786171875683781,0.03789221291884894
0.5499999999999999,-0.0069,-0.638,0.017249257555662402,1.2868180478562694,0.039853291072403735,0.03789221291884894
0.5509999999999999,-0.0088,0.362,0.017415025330942396,1.336982559330333,0.04033751057808232,0.04124320772985806
0.5519999999999999,-0.0215,0.362,0.017311119508197477,1.3316655743038193,0.04003399425205521,0.04088803255301471
0.5529999999999999,-0.0103,1.362,0.01734851868485344,1.3316655743038193,0.040143239916977415,0.04088803255301471
0.5539999999999999,-0.0208,0.362,0.01749296162739521,1.325231534752376,0.04056516806385758,0.04045823801266797
0.5549999999999999,-0.0059,0.362,0.01760316798006069,1.3198672124628943,0.04088708868757459,0.040099900701520676
0.5559999999999999,0.0162,-0.638,0.017663166740054383,1.325231534752376,0.04106234934880023,0.04045823801266797
0.5569999999999999,0.0133,-0.638,0.01753726269582138,1.344441283192943,0.04069457464736345,0.04174145129340355
0.5579999999999999,0.0213,-2.638,0.017551248195389908,1.344441283192943,0.04073542729002154,0.04174145129340355
0.5589999999999999,0.0093,-2.638,0.017552314403822492,1.3540063521955579,0.04073854176096925,0.042380398940910856
0.5599999999999999,-0.002,-1.638,0.017811387786240754,1.3507838261680774,0.04149531360614337,0.04216513385252238
0.5609999999999999,-0.0038,0.362,0.017834810636637884,1.341195775121901,0.04156373342429997,0.04152465100201084
0.5619999999999999,0.0165,1.362,0.017818904598392218,1.346475127647148,0.04151727075105958,0.041877312323685176
0.563,0.014,1.362,0.01781204038851979,1.3401121924259254,0.04149721990398941,0.04145226756031439
0.564,-0.0027,1.361999999999778,0.017731904591744552,1.3497079410454151,0.04126313752075103,0.04209326460955872
0.565,-0.0049,-0.638,0.01774997848932632,1.344441283192943,0.04131593266587466,0.04174145129340355
0.566,0.0048,-0.638,0.017599842464859274,1.3122688209869848,0.040877374620264244,0.039592327326248136
0.567,0.0102,-0.638,0.017432220313483016,1.318766104970231,0.04038773834962542,0.04002634660150346
0.568,-0.001,-0.637999999999778,0.01729145382967301,1.3198672124628945,0.03997654940116144,0.04009990070152069
0.569,0.0156,1.362,0.017360711389768288,1.3198672124628945,0.04017885567846531,0.04009990070152069
0.57,-0.0,1.361999999999778,0.017406680505874052,1.3002944725265972,0.04031313474832444,0.03879243954947351
0.571,-0.0182,-0.637999999999778,0.017434362740232027,1.30141120872668,0.04039399653110615,0.03886703764884259
0.572,-0.0251,1.361999999999667,0.017221442223123277,1.294826842908215,0.039772040500333075,0.03842720129754333
0.573,-0.0139,-1.6379999999997779,0.016892043787835674,1.289336027165955,0.03880984415525423,0.03806041421002164
0.574,-0.0157,0.362000000000111,0.016882486133600515,1.2838217278035615,0.03878192556491676,0.037692058414126255
0.575,-0.0212,1.361999999999889,0.016874139473828806,1.2849527803373706,0.038757544375859376,0.03776761284614206
0.576,-0.0064,0.362,0.016882810357334216,1.2782836409079779,0.038782872645589085,0.03732211360843203
0.577,0.0197,0.362,0.016863590106634088,1.2849527803373706,0.0387267289211691,0.03776761284614206
0.578,0.0015,-1.638,0.016862014313642402,1.2860828381612734,0.038722125917345245,0.03784310083142816
0.579,-0.0214,1.362,0.016858106689263623,1.292711741919574,0.03871071146757131,0.0382859123219423
0.58,-0.0066,1.362,0.01680627288714404,1.2872119038950707,0.038559301231188566,0.03791852254498754
0.581,0.0122,-0.638,0.016730750115250076,1.2659878843660417,0.038338693822950125,0.03650075573692634
0.582,-0.0046,-1.638,0.01640166987729821,1.2659878843660417,0.03737742695500493,0.03650075573692634
0.583,-0.0068,0.362,0.016298262454845145,1.2659878843660417,0.037075366491810896,0.03650075573692634
0.584,-0.0127,0.362,0.01627898712986866,1.2557525574448067,0.03701906189149794,0.03581703478770961
0.585,-0.0217,0.362,0.016344669916883787,1.2339875701811611,0.037210926001433275,0.03436313127626278
0.586,0.0029,-0.638,0.016339996867175355,1.2339875701811611,0.03719727568962806,0.03436313127626278
0.587,-0.0225,-0.638,0.01628783844414561,1.2339875701811611,0.0370449172123922,0.03436313127626278
0.588,0.0203,-1.638,0.016266696116246735,1.2408947999106892,0.036983158963258454,0.03482453497186268
0.589,0.0029,0.362,0.01623145589732217,1.2397235520587535,0.03688021976799667,0.03474629548823348
0.59,0.008,-0.638,0.015603603809647754,1.2304507574921297,0.0350462189978261,0.034126871804772
0.591,0.0127,-2.638,0.0148969428534028,1.2092921032356445,0.03298201189643187,0.03271347140401107
0.592,0.0171,-0.638,0.01462352857012478,1.2056828497575298,0.032183349256056044,0.03247237287994726
0.593,0.0131,0.362,0.014843833323009236,1.1572139126446563,0.03282687516668717,0.029234642620292656
0.594,0.0168,-0.638,0.015039011205103077,1.1803953582532936,0.033397003693943085,0.030783165702918436
0.595,-0.006,-0.638,0.015023850363434578,1.20313023565759,0.03335271779310384,0.032301857981026534
0.596,-0.009,-1.638,0.015796465081688596,1.2138093762143713,0.03560958054173547,0.03301522572926652
0.597,-0.0065,0.362,0.016718726986598334,1.240622440397704,0.03830357340583273,0.03480634132683507
0.598,0.0155,0.362,0.017347437203325298,1.2668681373571553,0.04014008083222723,0.03655955673226988
0.599,0.048,-2.638,0.017424399680275173,1.3166894600472194,0.040364893721713875,0.039887626495260266
0.6,0.0261,-3.638,0.017343043271837603,1.319995223835332,0.040127245844670915,0.04010845187509307
0.601,-0.0018,-0.638,0.017430844053973115,1.3188942232157483,0.04038371819734646,0.04003490491420917
0.602,-0.0127,0.362,0.01741474471337809,1.3253590280054892,0.04033669087414382,0.04046675457581325
0.603,-0.0225,0.362,0.01736738040288186,1.3350608191944249,0.04019833634186786,0.041114835280205764
0.604,-0.0197,-0.638,0.017466338183629318,1.3297361500615537,0.04048739908398192,0.04075914680422375
0.605,0.0154,1.362,0.017430592815094927,1.3553281836991264,0.04038298431064744,0.04246869742881255
0.606,0.0201,2.362,0.017438227165210433,1.3553281836991262,0.0404052847923476,0.042468697428812534
0.607,0.007,-0.638,0.01739630537817308,1.3542559088344255,0.04028282825963428,0.04239706935147253
0.608,-0.0049,-1.638,0.017346995000048552,1.353182784289225,0.04013878912488717,0.042325384515382924
0.609,-0.0303,1.362,0.017240448244975483,1.3275493930351854,0.03982755844699458,0.04061307119752545
0.61,-0.014,0.362,0.017227202518618402,1.3112901936763928,0.039788866734699196,0.03952695491568651
0.611,-0.0112,1.362,0.017303216136923205,1.30141120872668,0.040010907940345,0.03886703764884259
0.612,0.0022,0.362,0.017314576795431497,1.30141120872668,0.04004409323487994,0.03886703764884259
0.613,0.0043,-1.638,0.01723993570296036,1.294826842908215,0.03982606127517827,0.03842720129754333
0.614,0.0108,-0.638,0.017221787269835333,1.2893360271659553,0.03977304840641172,0.038060414210021654
0.615,0.005,-1.638,0.017287351728152617,1.2927117419195764,0.03996456686977322,0.038285912321942464
0.616,0.0104,1.362,0.01741343676368428,1.2915874839826098,0.04033287025971427,0.038210811769733184
0.617,0.009,-0.638,0.017551299707842975,1.2915874839826098,0.040735577761574396,0.038210811769733184
0.618,0.0195,0.362,0.017656339897926115,1.2970687687813993,0.04104240765557842,0.03857696218919662
0.619,0.0159,-0.638,0.017725543915417554,1.2959482906473858,0.04124455753111409,0.03850211412823485
0.62,0.0098,-0.638,0.017695153251924493,1.2893360271659586,0.04115578423347528,0.038060414210021876
0.621,-0.0069,0.362,0.017695217807423714,1.2838217278035675,0.04115597280469709,0.03769205841412666
0.622,-0.0,-0.638,0.01772549785376938,1.2838217278035686,0.04124442298175146,0.03769205841412673
0.623,-0.0069,-0.638,0.017557181615896016,1.27714668213826,0.04075275923490406,0.0372461646392165
0.624,-0.0004,-0.638,0.01750359864844046,1.2670015034972688,0.04059623956170282,0.036568465604904184
0.625,-0.0102,0.362,0.017433240799744017,1.2681475579681394,0.04039071926284585,0.0366450221679439
0.626,-0.0084,1.362,0.01730575575357446,1.2613895701553806,0.04001832634188538,0.036193587848581975
0.627,0.0029,-0.638,0.0172992886183645,1.2613895701553806,0.03999943537825127,0.036193587848581975
0.628,-0.0047,1.362,0.01723772528914958,1.2715795238714758,0.03981960449863655,0.036874277862770845
0.629,-0.0057,-0.638,0.017256176165525338,1.2715795238714758,0.03987350082572977,0.036874277862770845
0.63,0.0056,0.362,0.01712330335464687,1.2715795238714758,0.039485369859424524,0.036874277862770845
0.631,-0.0049,0.362,0.017159382759746246,1.2648398730453692,0.03959076037741204,0.03642406845610746
0.632,-0.0252,2.362,0.017119974453069755,1.2704365653636518,0.039475645900269,0.03679792811039865
0.633,-0.0103,0.362,0.01711467424007676,1.2602373700142997,0.03946016359973668,0.03611662075410519
0.634,-0.0182,0.362,0.01714274857463287,1.2704365653636518,0.03954217073518899,0.03679792811039865
0.635,-0.0015,0.362,0.017269351701125913,1.2805545300554075,0.03991198750581451,0.037473809249948406
0.636,0.005,1.362,0.017210313050719187,1.2872119038950849,0.0397395313932342,0.03791852254498848
0.637,-0.0088,1.362,0.017209680503083497,1.2960786644511304,0.03973768367643306,0.03851082311247494
0.638,-0.006899999999998346,0.362,0.017093178689970758,1.2960786644511304,0.03939737356331955,0.03851082311247494
0.639,0.007999999999997103,-0.638,0.017012772608027575,1.2872119038950838,0.03916250165781007,0.03791852254498841
0.64,-0.018100000000002,1.362,0.017121424701877223,1.293835022950373,0.039479882180568214,0.03836094761671356
0.641,-0.03609999999999963,1.362,0.017339752584592343,1.3135040197366477,0.040117633512306856,0.039674838736786344
0.642,-0.03279999999999967,1.362,0.017438505055396875,1.2870806319402377,0.04040609652942065,0.03790975356415725
0.643,-0.02979999999999608,2.362,0.017364203182075075,1.2859514509496321,0.040189055453070895,0.03783432415143058
0.644,0.005500000000004829,2.362,0.017347717960444504,1.2870806319402373,0.040140900943815554,0.037909753564157225
0.645,0.04900000000000065,-1.638,0.0173516423061528,1.2870806319402373,0.04015236423778674,0.037909753564157225
0.646,0.05479999999999943,-2.638,0.017408893271136757,1.287080631940238,0.0403195983936251,0.037909753564157274
0.647,0.04969999999999735,-2.638,0.017556410532015423,1.287080631940235,0.04075050684384152,0.03790975356415708
0.648,0.025799999999995615,-3.638,0.01759345312212085,1.287080631940235,0.04085871089399305,0.03790975356415708
0.649,-0.013700000000000566,-1.638,0.017528504389296616,1.2870806319402353,0.04066899100875311,0.03790975356415709
0.65,-0.018799999999998426,0.362,0.01685851849332135,1.2668681373571622,0.03871191437662243,0.036559556732270335
0.651,-0.00459999999999758,1.362,0.016693741163083,1.2138093762143785,0.03823058803161791,0.033015225729266996
0.652,0.017200000000000444,-1.638,0.01681915861746645,1.2126119671476618,0.03859694136936672,0.03293523867365105
0.653,0.02119999999999959,-0.638,0.016819158617466447,1.2196402600576555,0.038596941369366713,0.03340472940284549
0.654,0.017499999999998926,-2.638,0.016830037196287184,1.2266282831556152,0.038628718474718854,0.033871530104225424
0.655,0.007800000000000333,0.362,0.017025315913733387,1.2473574821552327,0.03919914154923761,0.03525624284721721
0.656,0.010799999999998524,0.362,0.017572923774626065,1.2621391640276538,0.04079874320438005,0.036243660800606044
0.657,-0.002500000000000755,0.362,0.018423507364074214,1.284558231633042,0.043283358591931824,0.03774125694987106
0.6579999999999999,-0.0093,0.362,0.018726524907515363,1.2900693828720122,0.044168494468607364,0.03810940245078009
0.6589999999999999,0.0064,-1.638,0.018866826013774783,1.2800266305008428,0.044578324016022984,0.03743854550240857
0.6599999999999999,0.0163,0.362,0.018665680928643073,1.2834268313932007,0.043990764862697554,0.03766567929105457
0.6609999999999999,0.0073,0.362,0.019173770817482498,1.2934431836661495,0.04547493170030248,0.03833477270999965
0.6619999999999999,-0.0039,0.362,0.020303841279045668,1.2968082071459428,0.04877594819374229,0.038559556643668405
0.6629999999999999,-0.0116,-0.638,0.021808083545722865,1.3466006096040288,0.053169947241874356,0.041885694532023836
0.6639999999999999,-0.0153,-1.638,0.022160875707796127,1.3466006096040288,0.05420047833296158,0.041885694532023836
0.6649999999999999,-0.0215,0.362,0.022135990609926614,1.3708187479088458,0.05412778718554896,0.043503468799270556
0.6659999999999999,-0.0225,-0.638,0.02228864824592756,1.362438483272606,0.054573711038466595,0.04294366621202833
0.6669999999999999,-0.0218,1.362,0.02230468858272317,1.3572212268214021,0.0546205660073589,0.0425951529148396
0.6679999999999999,-0.0157,0.362,0.02233341691270318,1.3561504487402476,0.05470448351013285,0.04252362482280293
0.6689999999999999,-0.0117,0.362,0.02225097567377954,1.3624384832726057,0.054463666765794526,0.04294366621202832
0.6699999999999999,-0.0005,-0.638,0.02234596537733572,1.3708187479088456,0.05474113847115366,0.043503468799270535
0.6709999999999999,0.0209,-0.638,0.022432722156576206,1.3791480915893668,0.05499456121684194,0.04405986986114411
0.6719999999999999,0.0059,0.362,0.022662571914186233,1.4038396330362106,0.05566596876768998,0.04570926750965843
0.6729999999999999,-0.0022,0.362,0.023061731445131486,1.4270867363673716,0.05683194225339755,0.047262176535274876
0.6739999999999999,-0.0001,-0.638,0.023067964287807004,1.4270867363673718,0.05685014883181254,0.04726217653527489
0.6749999999999999,-0.0024,0.362,0.023345281879677694,1.4260684184847021,0.05766021331524297,0.047194152790190715
0.6759999999999999,-0.0043,0.362,0.024285179019204635,1.4320494807384425,0.060405719958628416,0.047593688397887586
0.6769999999999999,-0.0133,-1.638,0.02504710316191186,1.4449430079996326,0.06263135477289256,0.048454977418317724
0.6779999999999999,0.0081,-1.638,0.02592294954236922,1.462581293336673,0.06518976457648135,0.049633216793180966
0.6789999999999999,-0.0005,1.362,0.026023949712276388,1.4752079923529964,0.06548479328313615,0.05047668165789414
0.6799999999999999,0.0129,0.362,0.026184703927195064,1.4752079923529964,0.06595436782108353,0.05047668165789414
0.6809999999999999,-0.0038,1.362,0.026661713350928037,1.498317348711817,0.0673477464012923,0.05202038917080806
0.6819999999999999,-0.0017,0.362,0.027546369286108225,1.521075650386745,0.06993188954313656,0.05354064619273667
0.6829999999999999,0.0119,-1.638,0.027921845480336903,1.5117184955752598,0.07102868231155245,0.05291558723576252
0.6839999999999999,0.0244,-1.638,0.027944407995718384,1.5126791559284947,0.0710945890297094,0.052979759451622664
0.6849999999999999,0.0163,1.362,0.027885443353273306,1.52118672969921,0.07092234909966845,0.05354806630286519
0.6859999999999999,0.0025,-1.638,0.027886862835303956,1.5221414144320475,0.07092649550801616,0.05361183934663423
0.6869999999999999,-0.0103,-0.638,0.027923624735609467,1.5174733353049823,0.07103387964322382,0.05330001115430222
0.688,-0.0118,-0.637999999999778,0.027933829174968845,1.511830262389877,0.07106368753908283,0.05292305327110942
0.689,-0.0195,1.3620000000001111,0.02796496677390272,1.5118302623898772,0.07115464268846763,0.05292305327110943
0.69,-0.0286,2.361999999999778,0.02797911278772683,1.5118302623898772,0.07119596420472532,0.05292305327110943
0.691,-0.0225,0.362,0.027936729524543676,1.5071302465647347,0.07107215966724553,0.05260909170387965
0.692,-0.0059,0.36199999999988897,0.027825261250634878,1.5014483004840675,0.0707465528814888,0.05222953708900827
0.693,0.0107,-0.638,0.027651380952587148,1.4967156833744104,0.07023863611765636,0.05191339775243457
0.694,0.0172,-0.638,0.027503638719090617,1.4842719615269788,0.06980707050636248,0.05108215578246257
0.695,0.0153,-0.638000000000111,0.027505726207900295,1.465903848691168,0.06981316821020042,0.04985516385147056
0.696,0.0244,-1.6379999999997779,0.02706983708378883,1.4580701885339271,0.06853990496074547,0.04933187450275049
0.697,0.0131,0.362,0.02652564278832374,1.4432821123311774,0.0669502745739099,0.048344029407401706
0.698,-0.0036,0.362000000000111,0.026061970704369643,1.4283409385923684,0.0655958553153418,0.04734595738002791
0.699,-0.0015,1.361999999999889,0.025934690130178795,1.3876709776736862,0.06522405967162831,0.044629199576597285
0.7,-0.0114,0.362,0.025900668554547167,1.378339546137094,0.06512468022042359,0.04400585893717783
0.701,-0.0206,0.362000000000111,0.02583289631443646,1.3793930996498522,0.06492671266883095,0.044076236426176175
0.702,-0.0127,1.362,0.02583826422728833,1.3742402123333681,0.0649423927254841,0.04373202299417295
0.703,-0.0233,1.3620000000001111,0.025821994531377852,1.3658809400082585,0.06489486778224346,0.0431736226955926
0.704,-0.0324,2.362,0.025779956953469085,1.3648169559913985,0.06477207301612846,0.04310254844778819
0.705,-0.0462,2.362,0.025809039613160216,1.3404903899428722,0.06485702554128406,0.041477531195493626
0.706,-0.0589,3.362,0.02581315452805964,1.3404903899428722,0.06486904550146715,0.041477531195493626
0.707,-0.0343,1.362,0.025882250779592966,1.3404903899428722,0.06507088058494581,0.041477531195493626
0.708,-0.0235,0.362,0.02588109174507213,1.3404903899428722,0.06506749496236752,0.041477531195493626
0.709,0.0127,-1.638,0.025944164258017925,1.3415736671705398,0.06525173427540007,0.04154989423187394
0.71,0.046,-1.638,0.025936662247658514,1.3383212049791187,0.06522982036757512,0.04133262940448515
0.711,0.0677,-1.638,0.025899279700042396,1.344692614979551,0.06512062327726546,0.04175824028402694
0.712,0.0796,-3.638,0.025911955533130148,1.3457725096377768,0.0651576502906367,0.04183037736440142
0.713,0.0396,-1.638,0.025909389789475393,1.355328183699134,0.06515015557025391,0.04246869742881305
0.714,0.0026,-2.638,0.025908066475079317,1.3741172543784403,0.06514629007443216,0.043723809389438685
0.715,0.0265,-0.638,0.025870841536959285,1.37094200170244,0.06503755337271222,0.04351170216605984
0.716,0.0134,-0.638,0.02578181760533995,1.3771625006206336,0.06477750811307435,0.04392723216892914
0.717,-0.0145,0.362,0.025684688059983838,1.3956576572953077,0.06449378577705529,0.04516271064214575
0.718,-0.0037,1.362,0.025615483307597525,1.398776806040076,0.06429163375483923,0.04537107011682913
0.719,0.026,-1.638,0.025569960827492084,1.3998149777852404,0.06415865934062219,0.04544042010208277
0.72,0.022,-1.638,0.025642371714281735,1.409004190861165,0.06437017671031488,0.046054260532894124
0.721,0.0329,-2.638,0.02564613884449853,1.4171091096949957,0.06438118076661183,0.0465956699906511
0.722,0.0427,-2.638,0.025566317878350245,1.4221066735474206,0.0641480180261104,0.046929507798397344
0.723,0.0087,-0.638,0.025639776230571742,1.4221066735474206,0.06436259511710758,0.046929507798397344
0.724,-0.0359,0.362,0.02569972663451898,1.4221066735474208,0.0645377145268694,0.04692950779839736
0.725,-0.0677,1.362,0.02572231794474852,1.4210847870665189,0.0646037053568332,0.046861245670563954
0.726,-0.0619,2.362,0.02572125281648489,1.421084787066519,0.06460059404113612,0.04686124567056397
0.727,-0.0669,2.362,0.02575643553724983,1.4221066735474208,0.06470336528016887,0.04692950779839736
0.728,-0.0234,2.362,0.026056751865404612,1.4221066735474206,0.06558061071415441,0.046929507798397344
0.729,0.0295,-0.638,0.026210874366411525,1.4140303999673745,0.06603081354233051,0.04639001184670215
0.73,0.0505,-2.638,0.026231369979179936,1.4140303999673745,0.06609068269039947,0.04639001184670215
0.731,0.0694,-2.638,0.026244620054069415,1.4140303999673745,0.06612938710506842,0.04639001184670215
0.732,0.0521,-1.638,0.026263212920894372,1.4079727948181775,0.0661836981964004,0.0459853631652813
0.733,0.0152,-0.638,0.026263887030034863,1.4140303999673745,0.06618566731732412,0.04639001184670215
0.734,0.0011,-1.638,0.026276972462261752,1.4109449724504646,0.06622389079902188,0.0461839049536996
0.735,-0.0032,-0.638,0.026225923592605123,1.4078527829764704,0.0660747734063994,0.04597734636122993
0.736,-0.0152,-0.638,0.026262596309691737,1.4028044398158377,0.06618189703105791,0.04564011649018414
0.737,-0.0116,0.362,0.02643242912705731,1.4028044398158375,0.06667799081486997,0.045640116490184124
0.738,-0.0149,0.362,0.026554401659034332,1.4109449724504646,0.06703428128833816,0.0461839049536996
0.739,-0.012,-0.638,0.02652833934344845,1.4109449724504657,0.066958151403935,0.04618390495369968
0.74,-0.0095,-0.638,0.02647669070878461,1.4059077327889182,0.0668072820549095,0.045847416797597886
0.741,-0.0261,0.362,0.026623873511393285,1.3926528540996508,0.06723721352864244,0.044961989462553364
0.742,-0.0105,-0.638,0.02738343817604997,1.3987768060400796,0.06945595613907891,0.045371070116829365
0.743,-0.0085,1.362,0.028294855212785887,1.4380056663195167,0.07211827036903025,0.04799156224115039
0.744,-0.0065,0.362,0.0289373183087279,1.4557280101785453,0.07399495093742368,0.049175416734405626
0.745,0.0049,-0.638,0.02893529684586124,1.4547297414647746,0.07398904610007886,0.04910873227597992
0.746,0.0094,-1.638,0.029391690765276004,1.4983173487118207,0.0753222053204427,0.0520203891708083
0.747,0.0058,-1.638,0.02996670720667616,1.498317348711823,0.07700186939593354,0.05202038917080846
0.748,0.0022,1.362,0.030785086984491217,1.5210756503867506,0.07939241515068964,0.053540646192737046
0.749,-0.0033,0.362,0.031164628409561343,1.5434984259623092,0.08050108274860837,0.055038490034811885
0.75,0.0014,-0.638,0.031164331399029074,1.546319387350744,0.08050021515964016,0.05522693056172879
0.751,-0.007,-0.638,0.031150928282031223,1.5472585648859716,0.08046106369804704,0.05528966772301444
0.752,-0.0146,-0.638,0.031083036769657086,1.5555770326298306,0.08026274774365814,0.055845342271138576
0.753,-0.0153,0.362,0.031059903586725054,1.5583761295637455,0.08019517406484632,0.05603232225012053
0.754,-0.0214,-0.638,0.03097258515352893,1.5538169129683557,0.0799401106878574,0.05572776608671969
0.755,-0.0091,0.362,0.030828727077454494,1.5418341084379756,0.07951989097768168,0.054927313443551805
0.756,-0.0218,0.362,0.03048959934117243,1.5326036975055208,0.07852927464982766,0.05431072099145288
0.757,-0.0004,0.362,0.029935469634705402,1.4958577306536356,0.07691062221817095,0.05185608641757001
0.758,0.0203,-0.638,0.02973875992623817,1.4901328025623963,0.07633601911672198,0.05147366059972741
0.759,0.0015,1.362,0.02966172931239275,1.4901328025623963,0.0761110071944992,0.05147366059972741
0.76,0.0085,1.362,0.029828596538632627,1.4814469046982508,0.0765984382749209,0.05089344167968957
0.761,0.0109,-0.638,0.029793345505859742,1.4785021727043142,0.07649546749163619,0.050696733262891855
0.762,0.0013,-1.638,0.02922355731457749,1.50713024656474,0.07483107550798214,0.05260909170388001
0.763,-0.011299999999999455,2.362,0.028247102294239226,1.4686437571886553,0.07197878068489642,0.05003819003647521
0.764,-0.006399999999999156,1.362,0.027984386121648233,1.4598300064380012,0.07121136798957065,0.049449430529742246
0.765,0.001200000000000122,1.362,0.02821532908756719,1.4450599395113513,0.0718859688799327,0.04846278845599154
0.766,0.002300000000000955,2.362,0.028386908915893946,1.4440542960236407,0.0723871658074807,0.04839561136186623
0.767,0.01089999999999839,-1.638,0.02842091552028219,1.4440542960236407,0.0724865015266147,0.04839561136186623
0.768,-0.003599999999997102,-0.638,0.028384071694061663,1.4450599395113504,0.07237887807996062,0.04846278845599148
0.769,0.02249999999999799,-1.638,0.02838447633336707,1.4391329499725747,0.07238006006025872,0.04806686491152297
0.77,0.004399999999998913,-1.638,0.02827406226596057,1.4301373395112549,0.07205753268695453,0.04746595715637963
0.771,-0.005400000000001654,1.362,0.02819127014372279,1.4221066735474215,0.0718156909874062,0.046929507798397406
0.772,-0.02029999999999971,0.362,0.02800099067074432,1.3977378631916155,0.07125987106287147,0.04530166862179162
0.773,-0.017699999999999234,0.362,0.027814243241069934,1.3925315219478425,0.07071436848897893,0.04495388446164394
0.774,-0.010799999999998757,0.362,0.027840351330871777,1.3976169724877905,0.07079063208313471,0.04529359310965539
0.775,0.00040000000000152105,0.362,0.027616033063102865,1.3976169724877903,0.0701353824090031,0.045293593109655375
0.776,0.014100000000003053,-0.638,0.026859455667363582,1.392531521947842,0.06792536582433413,0.0449538844616439
0.777,0.04159999999999865,-1.638,0.02684439754628305,1.3977378631916049,0.06788137997766551,0.045301668621790914
0.778,0.029499999999995568,-0.638,0.026228805541823323,1.3844047649136617,0.0660831917858068,0.04441101620973339
0.779,-0.010400000000000555,1.362,0.026139490918946986,1.3709420017024296,0.06582229739625489,0.043511702166059145
0.78,-0.015399999999999468,0.362,0.02601369539202807,1.3698819486056628,0.06545483968163957,0.043440890504143605
0.781,-0.010599999999998546,0.362,0.025594920761062318,1.344566954958732,0.06423156908845909,0.04174984618099788
0.782,0.0025000000000013323,1.362,0.02468157356094062,1.3187661049702277,0.0615636167134644,0.04002634660150324
0.783,0.0145000000000004,1.362,0.02413404184888265,1.3100529075965337,0.059964237494504365,0.039444304071264646
0.784,0.01810000000000037,1.362,0.024109400545842607,1.3349342525137953,0.05989225848919304,0.04110638061220295
0.7849999999999999,0.0214,-0.638,0.024151048362988398,1.3349342525137953,0.060013914736294534,0.04110638061220295
0.7859999999999999,0.03,-1.638,0.02414993929071586,1.3338455831236045,0.06001067505701028,0.041033657378780855
0.7869999999999999,0.0274,-1.638,0.024161920297449832,1.3338455831236045,0.06004567243299882,0.041033657378780855
0.7879999999999999,0.0006,-0.638,0.024151231215922744,1.3434860912755227,0.06001444886276954,0.041677644369649325
0.7889999999999999,-0.0103,-0.638,0.02411516980980684,1.3498331224764657,0.059909110921097686,0.042101626742739304
0.7899999999999999,-0.04,1.362,0.02412308580768707,1.3498331224764657,0.0599322341160253,0.042101626742739304
0.7909999999999999,-0.0679,1.362,0.02421756350177319,1.3498331224764657,0.060208210205170275,0.042101626742739304
0.7919999999999999,-0.0715,3.362,0.024120235866242287,1.3498331224764657,0.059923909233609074,0.042101626742739304
0.7929999999999999,-0.0616,2.362,0.02432072635125761,1.3550788245346215,0.06050955625326294,0.042452040209559734
0.7939999999999999,-0.0169,0.362,0.02436039348378162,1.3550788245346217,0.06062542677918404,0.04245204020955975
0.7949999999999999,0.0538,-3.638,0.024365652098361154,1.3613718087965223,0.06064078756778095,0.04287241224125578
0.7959999999999999,0.0633,-1.638,0.02436565209836115,1.3603042978942979,0.06064078756778093,0.04280110239712624
0.7969999999999999,0.0717,-2.638,0.024367461693843413,1.3507838261680751,0.060646073525370825,0.042165133852522234
0.7979999999999999,0.0486,-2.638,0.02436319851395625,1.3820600024804208,0.06063362047257395,0.04425438582470708
0.7989999999999999,-0.0006,-1.638,0.02455263185551802,1.3758616461593796,0.061186968786835556,0.043840334949730775
0.7999999999999999,-0.0068,-0.638,0.024628729045160426,1.4228903489156375,0.06140925411032463,0.04698185739804945
0.8009999999999999,-0.001,-1.638,0.02464749823622965,1.4309166167018545,0.0614640802573618,0.047518012957289545
0.8019999999999999,0.0041,-1.638,0.02469813015092872,1.4358661240244677,0.06161197969478704,0.04784864058362861
0.8029999999999999,-0.0005,-0.638,0.0246681123535099,1.4358661240244677,0.06152429556556983,0.04784864058362861
0.8039999999999999,0.0126,1.362,0.024625089609809477,1.4358661240244677,0.06139862305984688,0.04784864058362861
0.8049999999999999,-0.0073,-1.638,0.024535672938998252,1.434854036898817,0.06113743058099202,0.04778103305378955
0.8059999999999999,-0.0109,0.362,0.024562429735022293,1.434854036898817,0.06121558909233368,0.04778103305378955
0.8069999999999999,-0.0011,0.362,0.024558420516294484,1.4438202606409378,0.061203877878213464,0.04837997777290095
0.8079999999999999,-0.0097,0.362,0.024669825075280854,1.444826067024499,0.061529298548133195,0.04844716574848676
0.8089999999999999,-0.034,0.362,0.02464905284828489,1.444826067024499,0.061468621390158205,0.04844716574848676
0.8099999999999999,-0.0437,1.362,0.024678370527334827,1.4388981141379324,0.061554260423638776,0.04805117785228126
0.8109999999999999,-0.035,3.362,0.02466693198742135,1.4339590721851625,0.06152084763195937,0.04772124931378357
0.8119999999999999,-0.027,1.362,0.024675851064424388,1.4329456381125962,0.06154690089261408,0.04765355180774436
0.813,0.0096,0.36199999999977794,0.024721524266242075,1.4299010263082075,0.06168031557571254,0.04745017140876811
0.814,0.0361,-1.6379999999997779,0.024821784006524426,1.4168706235762958,0.06197318143457434,0.046579739092038164
0.815,0.0409,0.36199999999988897,0.02504650735117986,1.4168706235762958,0.06262961436720973,0.046579739092038164
0.816,0.0193,-0.638,0.025520609488354187,1.4299010263082073,0.06401450055583084,0.04745017140876809
0.817,-0.0006,-0.637999999999889,0.025882260549970705,1.4108252134370503,0.06507090912491671,0.046175905038605636
0.818,-0.004,0.362,0.02599441675587875,1.4077327609035204,0.06539852540915439,0.045969328873730425
0.819,-0.0072,0.36199999999988897,0.025999535371827233,1.412763493401714,0.06541347725175556,0.046305382350613926
0.82,-0.0042,-0.637999999999889,0.025964425688594365,1.403598892296578,0.0653109193605681,0.045693186002122486
0.821,0.0038,0.36200000000022203,0.025973361256868752,1.3954155049804928,0.06533702079340373,0.045146534841234424
0.822,-0.028,2.361999999999889,0.025998238283392174,1.3954155049804928,0.06540968836383819,0.045146534841234424
0.823,-0.0149,1.361999999999889,0.025975521217836976,1.4046335000178507,0.06534333019359054,0.04576229791019334
0.824,-0.0066,0.36199999999988897,0.025948490679133955,1.4046335000178507,0.06526437206034122,0.04576229791019334
0.825,0.0214,-0.6380000000002221,0.026616324862928864,1.4288847140763483,0.06721516338758332,0.047382281641375756
0.8260000000000001,0.06119999999999411,-2.637999999999556,0.02743013731741343,1.437888161142403,0.06959236766483194,0.04798371288256593
0.827,0.0347,1.362,0.02782717057292005,1.4378881611424033,0.07075213014818944,0.04798371288256594
0.8280000000000001,-0.008900000000001287,1.361999999999889,0.027514368576857635,1.4299010263082075,0.06983841318689958,0.04745017140876811
0.829,-0.0147,0.362,0.027360248088855357,1.4299010263082075,0.06938821623885373,0.04745017140876811
0.8300000000000001,-0.019799999999998957,0.362,0.02734062752272052,1.4299010263082075,0.06933090316447062,0.04745017140876811
0.831,-0.0151,0.36199999999988897,0.02730101661325429,1.4309166167018543,0.06921519687011501,0.04751801295728953
0.8320000000000001,0.006600000000000888,-0.6380000000002221,0.027295950452706115,1.4309166167018545,0.06920039825348293,0.047518012957289545
0.833,0.0106,-2.638,0.027297602717381377,1.4249307993266547,0.06920522463655378,0.04711815970696309
0.8340000000000001,0.01419999999999636,-1.638,0.027270623811240537,1.419943175166574,0.06912641732570461,0.04678498587174425
0.835,-0.0022,0.362,0.027413091477648734,1.419943175166574,0.06954257554998455,0.04678498587174425
0.8360000000000001,-0.016999999999998246,-0.638,0.02738195473208259,1.4189197305647403,0.0694516228933478,0.04671661966126348
0.837,-0.0091,-1.638,0.02722946655021152,1.4158449579799566,0.06900619402804078,0.046511224518883384
0.8380000000000001,-0.006900000000001466,1.362,0.02711146380306495,1.4067004326454269,0.06866149957946348,0.04590036923404734
0.839,-0.0135,-0.638,0.027368436561390333,1.4067004326454269,0.0694121353516997,0.04590036923404734
0.8400000000000001,-0.023399999999998023,-0.638,0.02747742291563736,1.405667346241142,0.06973049227294129,0.045831358950116384
0.841,-0.0145,0.362,0.02752178366791581,1.4087643326821078,0.06986007319724047,0.04603823798050039
0.8420000000000001,-0.032899999999996314,1.362,0.026691554059050077,1.4269683320600117,0.06743491324003131,0.047254267114692376
0.843,-0.0163,1.362,0.02574183451096701,1.396698147519075,0.06466071464003617,0.045232215502021694
0.8440000000000001,0.008199999999999269,1.362,0.025189410366657776,1.3771625006206236,0.06304704427720169,0.043927232168928465
0.845,0.0049,0.362,0.025372287733703515,1.3833550282553762,0.06358124212187395,0.04434089368702807
0.8460000000000001,-0.009899999999997003,0.362,0.02499388615141351,1.341321750967436,0.06247590408608881,0.0415330662021652
0.847,0.0036,3.362,0.024284589837139485,1.3380686764399272,0.060403998915754674,0.041315760470659296
0.8480000000000001,0.030499999999997578,0.362,0.023219871139514594,1.3538815566261317,0.057293879590211115,0.042372062583328665
0.849,0.0196,-3.638,0.022717232893218857,1.3282616506636586,0.05582563738966659,0.04066065008441144
0.8499999999999999,0.0097,-1.638,0.02283452163377112,1.3249765114427865,0.05616824617400932,0.04044120242790876
0.851,-0.0173,1.362,0.022830430280865233,1.3238796535028703,0.05615629504009142,0.04036793219847627
0.8519999999999999,0.008,-0.638,0.02284260729157761,1.3238796535028703,0.05619186495769351,0.04036793219847627
0.853,0.0046,0.362,0.02284556217029108,1.3238796535028703,0.056200496369362994,0.04036793219847627
0.8539999999999999,-0.0042,0.362,0.02289750334047284,1.3227818860426925,0.056352220235520306,0.0402946012129916
0.855,0.0146,0.362,0.02286431051135761,1.3227818860426928,0.05625526161205382,0.04029460121299162
0.8559999999999999,0.0213,-1.638,0.02295721252106759,1.3140953158452573,0.05652663501464869,0.03971433738101704
0.857,0.0234,-0.638,0.02300415656908375,1.3140953158452573,0.056663761930218035,0.03971433738101704
0.8579999999999999,0.0176,-0.638,0.023004754547972198,1.3152003338057145,0.056665508669240625,0.039788152700707305
0.859,0.0121,0.362,0.022994212217854,1.3152003338057145,0.056634713770353236,0.039788152700707305
0.8599999999999999,0.004,-0.638,0.022789376281165598,1.3216832067959576,0.05603637337614251,0.04022120932006595
0.861,-0.0128,0.362,0.022472112494619098,1.3410697874425899,0.055109623206323455,0.04151623501135894
0.8619999999999999,-0.0151,1.362,0.02225034520645576,1.308814451850375,0.05446182512573299,0.03936157509300703
0.863,-0.025,1.362,0.022092836326181007,1.312140055832855,0.05400173044196345,0.039583725799976904
0.8639999999999999,-0.0341,1.362,0.02210067227520029,1.3186379742768037,0.0540246198084536,0.040017787457276015
0.865,-0.049,2.362,0.02192008056810895,1.3088144518503784,0.05349709853968036,0.03936157509300725
0.8659999999999999,-0.0432,0.362,0.021572600742104653,1.3088144518503786,0.052482085161495835,0.039361575093007264
0.867,-0.0265,1.362,0.02151342128113904,1.3495827480030782,0.05230921773122061,0.042084901700742944
0.8679999999999999,-0.0063,1.362,0.021627362109153534,1.3485059046186356,0.05264204702403457,0.04201296844578835
0.869,0.018,0.362,0.021623822884855,1.358042345666643,0.05263170869719495,0.04265000374282078
0.8699999999999999,0.0081,-0.638,0.02174061135622413,1.3591116332148643,0.052972856159539776,0.04272143226709573
0.871,-0.0126,1.362,0.021755130767611278,1.3643216606458843,0.05301526839673579,0.0430694626649516
0.8719999999999999,0.0171,-1.638,0.021756592029071698,1.364321660645884,0.05301953684578045,0.04306946266495156
0.873,0.0131,0.362,0.02159299082036336,1.3443155996788778,0.05254164603572788,0.04173305562102309
0.8739999999999999,0.0602,-2.638,0.021563146919172035,1.3379423942966306,0.05245446986980556,0.041307324809781214
0.875,0.0663,-1.638,0.021562673868004926,1.3390277328615783,0.052453088053575514,0.04137982554371556
0.8759999999999999,0.0489,-0.638,0.02145958682839539,1.33794239429663,0.052151963451539426,0.041307324809781165
0.877,0.0011,-0.638,0.02057941153393363,1.3612476884727625,0.04958090858110459,0.04286412099015738
0.8779999999999999,-0.0051,-0.638,0.020289204726975537,1.3644455013378471,0.04873319378024868,0.0430777352366156
0.879,0.0006,1.362,0.02027140947123379,1.3581667589207553,0.04868121256783186,0.04265831456169852
0.8799999999999999,-0.0045,-0.638,0.020266461048987487,1.3644455013378483,0.04866675787318482,0.04307773523661568
0.881,-0.0092,0.362,0.02023212354732371,1.3706954830321998,0.048566455579486356,0.0434952346921322
0.8819999999999999,0.0039,0.362,0.020639016230446283,1.3769170956483399,0.049755018154770105,0.0439108390901452
0.883,-0.008,-0.638,0.02076157331402229,1.3820600024804361,0.050113016145189794,0.0442543858247081
0.8839999999999999,-0.0333,1.362,0.02075488191905997,1.3569722155252748,0.05009347010280924,0.04257851893323217
0.885,-0.017,0.362,0.020826068094010615,1.3474282006382154,0.050301410001788574,0.041940977702929046
0.8859999999999999,-0.0083,1.362,0.02090624751029763,1.3474282006382154,0.05053561980073482,0.041940977702929046
0.887,0.0105,0.362,0.020848872681763848,1.346349633995168,0.05036802383062485,0.041868929334112605
0.8879999999999999,0.0374,-0.638,0.020889100432413165,1.3367297779007128,0.050485531962112244,0.041226321902924114
0.889,0.0265,0.362,0.020877975870364683,1.3303202313889337,0.05045303632219124,0.04079816350028527
0.8899999999999999,0.0429,-1.638,0.020911849230308935,1.3356425720267653,0.050551982824792084,0.04115369643254591
0.891,0.0103,-2.638,0.02078994099341116,1.3409437879261914,0.05019588016184036,0.04150781822998832
0.8919999999999999,-0.0114,-1.638,0.020756787583647452,1.3609994138666626,0.05009903668511379,0.04284753621952374
0.893,-0.0313,0.362,0.020516844130133903,1.354704699726702,0.049398144727947235,0.042427048631785556
0.8939999999999999,-0.0348,1.362,0.020517186316158356,1.3579179210137349,0.04939914427775317,0.04264169216250225
0.895,-0.0315,1.362,0.020627341630813006,1.3611235568305011,0.04972091581579697,0.042855828982981854
0.8959999999999999,-0.0227,1.362,0.02081777576018394,1.3705722070694915,0.050277187502694935,0.04348699984444368
0.897,-0.0093,3.362,0.020810178770273278,1.3767943767589688,0.05025499615282024,0.043902641455016066
0.8979999999999999,0.0074,0.362,0.020919654475878534,1.3357690715927542,0.0505747825043138,0.041162146617283436
0.899,0.0231,1.362,0.021109334165743836,1.3421525970274586,0.05112885041955672,0.04158856680914953
0.8999999999999999,0.0052,0.362,0.021498020342884866,1.2987865487163268,0.05226423049111422,0.03869171007528685
0.901,0.0075,-1.638,0.02201638960221682,1.2954266642221814,0.05377842410376737,0.038467269426417136
0.9019999999999999,0.0055,-1.638,0.02200512570260352,1.2987865487163233,0.05374552144887228,0.038691710075286614
0.903,0.0154,0.362,0.02254560750911868,1.307574823114405,0.05532430739045223,0.0392787677589027
0.9039999999999999,0.0027,1.362,0.023303312894531653,1.3075748231144046,0.0575376189134847,0.03927876775890267
0.905,-0.0219,-0.638,0.02384313727217585,1.3174075891215657,0.059114484458399036,0.03993559759536783
0.9059999999999999,-0.0183,0.362,0.023954581295564437,1.31850983113184,0.05944002040665499,0.04000922748128458
0.907,-0.002,-0.638,0.02386761322936505,1.309794928939297,0.05918598047667608,0.039427071068961844
0.9079999999999999,0.0067,0.362,0.023784873836414,1.3185098311318377,0.058944292803138607,0.04000922748128443
0.909,0.0147,1.362,0.02372473159555146,1.317407589121564,0.05876861302405205,0.03993559759536771
0.9099999999999999,0.0217,-2.638,0.023714747953640848,1.3238796535028672,0.058739450093303516,0.040367932198476064
0.911,0.0152,-1.638,0.023717212417690252,1.3227818860426894,0.05874664896872878,0.040294601212991395
0.9119999999999999,0.0054,-1.638,0.023695347528574325,1.3292277830102854,0.05868278006669671,0.04072518783002406
0.913,-0.0113,1.362,0.02365119333584611,1.3227818860426894,0.05855380251758996,0.040294601212991395
0.9139999999999999,-0.0226,0.362,0.02353245138835188,1.3163044241203747,0.058206948812025955,0.039861906053557654
0.915,-0.0128,0.362,0.023311689956352136,1.3097949289392932,0.05756208890909695,0.039427071068961594
0.9159999999999999,-0.0109,3.362,0.022792931594524626,1.2889428201854114,0.05604675870027643,0.0380341479410451
0.917,-0.0222,0.362,0.022380220092048687,1.2889428201854114,0.054841198938258666,0.0380341479410451
0.9179999999999999,0.0007,-1.638,0.022253398876722168,1.28229443289119,0.0544707451145813,0.037590034948216826
0.919,0.0236,-0.638,0.022248097721116994,1.2756113951905397,0.05445526006061151,0.037143607304478354
0.9199999999999999,-0.009,1.362,0.022246141972312415,1.2767497211498313,0.05444954717873332,0.037219647602105804
0.921,-0.0046,0.362,0.02225255764613254,1.2767497211498313,0.05446828781997391,0.037219647602105804
0.9219999999999999,-0.0086,0.362,0.022259311525042604,1.271180824386761,0.05448801638242655,0.03684764469391956
0.923,0.0096,0.362,0.022347228008387895,1.271180824386761,0.0547448267065957,0.03684764469391956
0.9239999999999999,0.0064,-0.638,0.022408031355854483,1.2778870331028438,0.05492243762526879,0.03729562016400375
0.925,0.0039,0.362,0.02159491896890914,1.2518723703077543,0.05254727829527975,0.03555783786582332
0.9259999999999999,0.0069,-3.638,0.02055289636739767,1.2426902319660111,0.049503455886747434,0.03494447002802313
0.927,0.0044,-1.638,0.020238370239542898,1.2426902319660111,0.048584702613407124,0.03494447002802313
0.9279999999999999,-0.0026,0.362,0.020592120417629256,1.2426902319660111,0.049618032137660924,0.03494447002802313
0.929,-0.014,1.362,0.020650458604367324,1.2688931595907404,0.049788442145859306,0.036694828437256584
0.9299999999999999,-0.0159,1.362,0.02074296845079731,1.2621391640276396,0.05005867001151696,0.0362436608006051
0.931,-0.0435,1.362,0.02118900522229254,1.2609876488119034,0.05136157526341579,0.036166739459215676
0.9319999999999999,-0.0235,1.362,0.021909579401369016,1.2609876488119034,0.05346642388195951,0.036166739459215676
0.933,0.0092,0.362,0.022951446269497487,1.3335922070825492,0.05650979138216236,0.04101673183173852
0.9339999999999999,0.0223,0.362,0.023649209763844364,1.3736253124948004,0.05854800836216655,0.04369094761821925
0.935,0.0184,0.362,0.02342817605730604,1.3684507068063765,0.057902353125872816,0.04334528339661326
0.9359999999999999,-0.007,0.362,0.023402273644166697,1.3778491117648932,0.057826690327931356,0.04397309786788615
0.937,0.0158,0.362,0.024084608211226207,1.3964561756303604,0.0598198383098651,0.045216051753593445
0.938,0.0009,0.362000000000111,0.025580092184266486,1.47126372382291,0.06418825375703315,0.050213204091998184
0.9390000000000001,-0.018,1.362,0.02659483107392924,1.4934616777372258,0.06715237849548364,0.051696029822701266
0.94,-0.0062,1.3620000000001111,0.026738296921725354,1.5162928607687698,0.06757145247885739,0.053221155327161915
0.9410000000000001,-0.0085,2.361999999999778,0.026406625645909433,1.5087208557921254,0.0666026170043383,0.05271534457290411
0.942,0.0095,0.36199999999977794,0.026444271670022806,1.4867507467190622,0.06671258372830591,0.05124773890232554
0.9430000000000001,0.0163,-1.638,0.026450665419958167,1.4790275061517526,0.06673126032831397,0.05073182559419714
0.944,0.0228,-1.638,0.026265110979926298,1.480009386074862,0.06618924256233422,0.05079741527962794
0.9450000000000001,0.0285,-1.6379999999996668,0.026037590878786165,1.474222914550546,0.06552464010434784,0.050410878353776285
0.946,0.0081,1.361999999999889,0.02593160545100417,1.474222914550546,0.06521504910354539,0.050410878353776285
0.9470000000000001,-0.0217,0.362000000000111,0.026200583451598206,1.4867507467190624,0.0660007530454971,0.051247738902325556
0.948,-0.0416,1.362,0.026341823670428473,1.4547297414647584,0.06641332580777498,0.04910873227597884
0.9490000000000001,-0.0452,1.362,0.026414011150936282,1.5180964873937546,0.06662419059176954,0.05334163778146523
0.95,-0.0485,1.361999999999667,0.026349723064914423,1.5180964873937546,0.0664364005030026,0.05334163778146523
0.9510000000000001,-0.015799999999985458,-1.638,0.026365952124899873,1.5265738707542749,0.06648380674580529,0.05390792791003004
0.952,0.0497,-1.6379999999997779,0.026566288542839673,1.5265738707542773,0.06706900372453276,0.053907927910030205
0.9530000000000001,0.05909999999999811,0.36199999999977794,0.02699473982877253,1.5405626250775766,0.06832054051768413,0.05484237821707831
0.954,0.0506,-1.6379999999998889,0.027014222432564582,1.5489170538212649,0.06837745059421489,0.05540045496389403
0.9550000000000001,0.027299999999995318,-0.638,0.027020965812126676,1.5517281644563257,0.06839714848732255,0.05558823745941641
0.956,0.0062,-0.638000000000111,0.0271358439403224,1.550791693765086,0.06873271570087934,0.05552568111560295
0.9570000000000001,0.012399999999996136,-1.6379999999997779,0.02734347110511735,1.568165820191969,0.0693392094716538,0.05668627464659752
0.958,-0.005,0.362000000000111,0.02783992284648043,1.6023490144015031,0.0707893804496383,0.058969715729824054
0.9590000000000001,-0.009999999999998956,1.361999999999889,0.027861587573330803,1.6191700114938625,0.07085266466340318,0.06009336016123926
0.96,-0.0053,0.362,0.027855991964407557,1.6305845906314662,0.07083631949027042,0.06085585528649806
0.9610000000000001,0.007699999999997336,1.362,0.02790918975184127,1.6102780099636065,0.07099171402513002,0.05949937349393604
0.962,-0.0043,0.362,0.028052163047944608,1.6031499775305276,0.07140934922984614,0.059023220153774404
0.9630000000000001,-0.008000000000000732,0.362,0.028119009284862266,1.6004291904696941,0.07160461186000493,0.05884147128281356
0.964,-0.0113,0.362,0.028097108599577845,1.600429190469692,0.0715406383948092,0.05884147128281341
0.9650000000000001,-0.002699999999999445,0.362,0.028116907201267523,1.6004291904696921,0.07159847152375788,0.058841471282813425
0.966,-0.0002,0.362,0.02822432310040238,1.6057609332622498,0.07191224103350276,0.05919763228003022
0.9670000000000001,0.011599999999996535,0.362,0.028217143716877065,1.570727357481209,0.0718912695416924,0.05685738561553196
0.968,-0.004,0.362,0.028131643803769844,1.5716519495283052,0.07164151819170649,0.05691914846462741
0.9690000000000001,-0.017799999999993894,-0.638,0.02813363193811984,1.571651949528305,0.07164732567407484,0.056919148464627395
0.97,0.0097,-0.638,0.02816189514310414,1.5707273574812102,0.07172988451353125,0.05685738561553203
0.9710000000000001,0.013699999999991141,-0.638,0.02818079512178575,1.5652762856620943,0.07178509270052108,0.056493253426389924
0.972,-0.0262,-1.638,0.028194037915559484,1.5652762856620952,0.07182377584653114,0.056493253426389986
0.9730000000000001,-0.02109999999999687,1.362,0.028213198391641197,1.5824913941704994,0.07187974496502346,0.05764322454317137
0.974,-0.007,-0.638,0.02829271448624544,1.587883369050597,0.0721120171539801,0.05800340905037304
0.9750000000000001,-0.0025999999999920284,-0.638,0.02835946062247029,1.5923450492512734,0.07230698738286906,0.058301449772021036
0.976,0.0333,-0.638,0.028384633166888006,1.6092706167834567,0.07238051818216965,0.059432079520165895
0.9770000000000001,0.03799999999999518,-0.638,0.028376251860752672,1.5850297803338922,0.07235603578861073,0.05781278901438653
0.978,0.0163,-2.638,0.028463297372569796,1.5822778352099405,0.07261030194276785,0.05762895878142768
0.9789999999999999,-0.0196,0.362,0.028496434639817072,1.5822778352099407,0.07270709826605151,0.057628958781427694
0.98,-0.0435,0.362,0.028468619387333104,1.5985070608106564,0.07262584792782768,0.05871307281297393
0.9809999999999999,-0.0565,0.362,0.028542254530083473,1.6012311139277096,0.07284094143658071,0.05889503985684474
0.982,-0.0685,4.362,0.028212872034394456,1.6366026319150468,0.07187879165220724,0.061257861097401736
0.9829999999999999,-0.0576,3.362,0.028115069122739984,1.632261931377342,0.07159310236515937,0.060967901830370624
0.984,-0.0082,-0.638,0.028103199055256586,1.6401493378519303,0.07155842905064168,0.06149478143892278
0.9849999999999999,0.0129,-1.638,0.028019852982244096,1.6410348166240538,0.07131496922133412,0.06155393151700495
0.986,0.0575,-2.638,0.028081921599396643,1.6419198178621752,0.07149627608308691,0.06161304969576395
0.9869999999999999,0.0868,-4.638,0.028132972075044747,1.6428043423380567,0.07164539816692517,0.061672136026753574
0.988,0.0818,-2.638,0.028164778150611237,1.6428043423380567,0.07173830598427607,0.061672136026753574
0.9889999999999999,0.0383,-2.638,0.02816729771999141,1.6428043423380565,0.07174566582630647,0.06167213602675356
0.99,0.0089,-0.638,0.02814263946376752,1.637593211429808,0.07167363729953485,0.061324031916499065
0.9909999999999999,-0.0175,-0.638,0.028184070317022622,1.6323654446958884,0.07179465977962268,0.060974816531284205
0.992,-0.0128,-0.638,0.02827746325633118,1.615681832190252,0.07206746722262224,0.05986034940517296
0.9929999999999999,0.0004,-0.638,0.02828698472792396,1.6165807130440062,0.07209528012087825,0.05992039474376263
0.994,0.0044,0.362,0.028291110025898653,1.6094805941264563,0.07210733041076546,0.05944610602946789
0.9949999999999999,-0.021,1.362,0.028200324328283146,1.6067705269020216,0.0718421389068811,0.05926507324474194
0.996,-0.0438,2.362,0.028190942325026454,1.6040558810005219,0.07181473340559139,0.05908373460389111
0.9969999999999999,-0.0288,1.362,0.028191232187408086,1.6155772499190952,0.07181558011430127,0.05985336329810898
0.998,-0.0209,4.362,0.028196250170085948,1.6208591646222472,0.07183023799993479,0.060206195773545454
0.9989999999999999,-0.014,1.362,0.0279029185005195,1.6164761889283623,0.07097339525231737,0.05991341252149323
1.0,0.0106,-1.638,0.027614868714226797,1.612081296710807,0.07013198126281378,0.05961983324436647
1.001,0.0334,-1.638000000000222,0.02729638100949574,1.628013446771762,0.06920165594060267,0.06068410259761398
1.002,0.0482,-2.638,0.027392393019591028,1.6253342813467704,0.06948211387634452,0.06050513405644472
1.003,0.0185,-1.638,0.026937544794856348,1.6253342813467724,0.06815346974048764,0.06050513405644485
1.004,0.0066,-1.638,0.02628201370766524,1.625334281346773,0.06623861663673768,0.0605051340564449
1.005,-0.0332,0.3620000000004441,0.02585963392713517,1.617374628306195,0.06500481514430984,0.05997342836944343
1.006,-0.0383,2.362,0.02580780261323438,1.621755175868469,0.06485341217619182,0.06026604942204051
1.007,-0.0524,3.361999999999778,0.02591616392925948,1.637490028582622,0.06516994331616598,0.06131713929110822
1.008,-0.0129,2.362,0.025946673935615498,1.6461324120624854,0.06525906522282732,0.061894451445553236
1.009,0.0136,2.361999999999334,0.026054328212699897,1.6625104752181927,0.06557353105158048,0.0629885078419268
1.01,0.0277,-0.638,0.026055890818192096,1.6573613061509676,0.06557809553377689,0.06264454278937763
1.011,0.0321,-0.6379999999995559,0.02605176396902201,1.6625104752181936,0.06556604071273718,0.06298850784192687
1.012,0.0201,1.362,0.026045667713028398,1.6573613061509678,0.0655482331137709,0.06264454278937764
1.013,0.002,1.361999999999778,0.02605675355637448,1.6573613061509678,0.0655806156535981,0.06264454278937764
1.014,0.0249,0.362,0.026106123063115598,1.665129825857094,0.06572482750725545,0.06316348074889332
1.015,0.0277,1.361999999999778,0.02624493485032405,1.665129825857094,0.06613030664740137,0.06316348074889332
1.016,0.0088,0.362,0.026251423290820915,1.6660020275723233,0.06614925984529951,0.06322174391813394
1.017,-0.0032,-0.6380000000002221,0.026253273055936922,1.666873772902828,0.06615466314125727,0.06327997660082543
1.018,0.0034,-1.638,0.02628801659645511,1.6677450625642773,0.06625615150343636,0.06333817884477456
1.019,-0.0268,0.362,0.026292988414991097,1.6754654372859974,0.06627067454031584,0.06385390071410656
1.02,-0.0137,0.362,0.026283539090719687,1.6745981645229826,0.06624307238953611,0.06379596679940881
1.021,-0.0098,0.3620000000004441,0.026335793493172624,1.68142333501708,0.06639571122951905,0.06425188892917574
1.022,-0.0135,2.362,0.02635312715896555,1.680559136901687,0.06644634410474266,0.06419416040127285
1.023,-0.0233,1.362,0.026262406554602172,1.673730442367446,0.06618134274289476,0.06373800286524184
1.024,-0.0205,1.362,0.026179542037907334,1.668615897270472,0.06593928957396915,0.06339635069766332
1.025,-0.0126,2.362,0.026192016487343726,1.6728622701200804,0.06597572833131811,0.06368000886489185
1.026,-0.0006,2.362,0.026220934776142395,1.6719936470797645,0.06606020071736245,0.06362198475152385
1.027,-0.0227,1.362,0.02600866236151436,1.6872600567566465,0.06544013784020326,0.06464178257485999
1.028,-0.014,0.362,0.025842602953908063,1.6863988496824305,0.06495506645568007,0.06458425384883233
1.029,-0.0061,-2.638,0.026215376465848664,1.6667724026926385,0.06604396449618923,0.06327320505978268
1.03,0.0259,-1.638,0.026338243664355387,1.6667724026926385,0.0664028683544605,0.06327320505978268
1.031,-0.0046,-3.638,0.02597798840677408,1.6718925872978727,0.06535053702860731,0.06361523394712508
1.032,-0.0006,-0.638,0.02537485865671869,1.6718925872978727,0.0635887519715383,0.06361523394712508
1.033,-0.0043,-1.638,0.024433722512536997,1.6198583518969258,0.06083962610710435,0.06013934137487204
1.034,0.0055,-0.638,0.023946829702661262,1.5851363780315166,0.05941737745040213,0.057819909752157284
1.035,0.0262,-0.638,0.02408331992186975,1.5896057684616152,0.059816075124684495,0.058118465517967496
1.036,0.0183,-0.638,0.02410165452471374,1.5823846182929815,0.05986963180849071,0.057636091902964384
1.037,0.0207,0.362,0.023415412802414538,1.5605206898537343,0.0578650707471718,0.05617557911024891
1.038,-0.0039,0.362,0.021768925899360712,1.4911750895842872,0.05305556496140404,0.051543285485913026
1.039,-0.0136,0.362,0.020210923859887413,1.4679533000228777,0.04850452977904894,0.04999206742286337
1.04,-0.0165,0.362,0.019938135813231863,1.4443582084439466,0.0477076964205541,0.04841591274452742
1.041,-0.0245,0.362,0.01993431142689428,1.4433520760310667,0.047696525115040835,0.048348702990147735
1.042,0.012,-0.638,0.01993734877719623,1.4659727327667538,0.04770539743210788,0.04985976531519594
1.043,0.017,-0.638,0.02007632766549479,1.4737643882696585,0.04811136468646729,0.050380248748447425
1.044,0.0028,1.362,0.020077512490775707,1.4737643882696583,0.048114825645696975,0.05038024874844741
1.045,-0.0276,1.362,0.02007311659102498,1.4747497723505696,0.04810198490870384,0.0504460725119997
1.046,0.0082,2.362,0.02007779549513414,1.4699311986894115,0.048115652321631515,0.050124191268456554
1.047,0.0223,1.362,0.020496300229899733,1.4602463506358636,0.049338134528743575,0.049477242367346845
1.048,0.0091,-0.638,0.020569890608821403,1.4632278227583047,0.04955309727915729,0.04967640502871621
1.049,0.021,-0.638,0.020486736672855187,1.3984143720210729,0.049310198695878486,0.04534685948502341
1.05,0.0245,-2.638,0.020441784292712713,1.3933318318719075,0.049178889584352445,0.0450073452514321
1.051,0.0278,1.362,0.020546465483630896,1.38508778595124,0.04948467081616683,0.04445664208917444
1.052,0.001,-1.638,0.020367140595469034,1.3757388331216311,0.04896085001592423,0.04383213102547982
1.053,-0.0026,0.362,0.01979077396849237,1.3516088558182926,0.04727724195197529,0.04222024592270031
1.054,-0.019,0.362,0.01971164972780846,1.343108737299485,0.047046114396294206,0.04165243708309437
1.055,-0.0219,1.362,0.019702084039403312,1.3398600014410338,0.04701817233757264,0.0414354211751524
1.056,-0.0245,2.362,0.019514197102650614,1.3462241286447614,0.046469341182155476,0.041860545563083884
1.057,-0.0177,2.362,0.019374725577426113,1.3259450374648947,0.046061934900166246,0.040505900071303336
1.058,-0.0242,2.362,0.01938014202883452,1.2832951722524502,0.04607775674140821,0.037656884446162976
1.059,-0.0104,0.362,0.021134226301772554,1.3345544804518144,0.05120156212593481,0.04108101179724455
1.06,0.0025,1.362,0.023271941934925097,1.383916479944368,0.057445982100915484,0.04437839872078918
1.061,-0.0053,0.362,0.024160125046248405,1.4023225615788115,0.06004042837607729,0.045607926971650746
1.062,0.0087,0.362,0.024141362708433124,1.4204901653881012,0.05998562224788413,0.04682152487790915
1.063,0.0179,-1.638,0.02455173600889761,1.4154868942511438,0.061184351954903266,0.046487305822936704
1.064,0.0292,0.362,0.02527871058019159,1.4835887776921393,0.06330789657603539,0.05103651902814679
1.065,0.0064,-0.638,0.026119983977908726,1.5273039438693672,0.06576531622889055,0.05395669687335577
1.066,0.0031,-0.638,0.027781843002556292,1.564347925347815,0.07061972507924236,0.05643123885663765
1.067,0.0178,-0.638,0.028037897960339373,1.5725759979639926,0.07136767989057316,0.05698087500042175
1.068,-0.0065,-1.638,0.028079344386622938,1.5725759979639915,0.07148874786058888,0.05698087500042168
1.069,0.0163,0.362,0.02809066872726423,1.5652762856621278,0.0715218270680416,0.056493253426392165
1.07,0.0192,-1.638,0.027963928422527574,1.5652762856621278,0.07115160958997341,0.056493253426392165
1.071,0.0167,0.362,0.028381923852665344,1.5734995037459212,0.07237260408190856,0.05704256528688611
1.072,0.0144,-0.638,0.028936490101719805,1.6402523534108224,0.07399253168562771,0.06150166288943744
1.073,0.0031,0.362,0.028932625201294852,1.6636887618683496,0.07398124203557296,0.06306721751804113
1.074,-0.0107,1.362,0.028846893516039203,1.6663062603002166,0.07373081366259537,0.06324206669737673
1.075,-0.0126,0.362,0.028787500844599797,1.661168857170128,0.07355732342930518,0.06289888761070526
1.076,-0.0013000000000050848,2.362,0.02879204359131142,1.661168857170128,0.07357059311675446,0.06289888761070526
1.077,-0.0242,0.362,0.02879204359131142,1.6526051094247414,0.07357059311675446,0.06232682833185794
1.078,-0.04699999999999669,-0.638,0.028723961607771322,1.6474249805720982,0.07337172078249213,0.06198079516228266
1.079,-0.0321,0.362,0.028690019204218428,1.655240134979032,0.07327257259858146,0.06250284832487371
1.08,-0.0023999999999973353,1.362,0.028686834634768215,1.6352397581434261,0.07326327024387243,0.061166820981539693
1.081,0.0096,0.362,0.02862917668511053,1.6325724516432076,0.07309484725674766,0.06098864461783237
1.082,-0.0013000000000065947,1.362,0.0288194613604798,1.5917509648809536,0.0736506823778373,0.058261764871605476
1.083,-0.031,0.362,0.02898329079917772,1.607779486574815,0.07412923986398269,0.0593324718603907
1.084,-0.02689999999999758,1.362,0.02916717134145849,1.599732490017735,0.07466636805513269,0.05879493161700718
1.085,-0.016,-0.638,0.029281004837436023,1.604161214400195,0.07499888382340433,0.059090770886421506
1.086,0.006900000000000666,0.362,0.02916573423091152,1.6085777456975696,0.07466217015263032,0.05938579565642875
1.087,0.0099,-0.638,0.02911918125352144,1.6076743902411506,0.07452618558227814,0.05932545141389542
1.088,0.012400000000001531,0.362,0.029114283700200055,1.6156818321902642,0.07451187947939228,0.05986034940517377
1.089,0.0193,0.362,0.029157979334429818,1.616580713044018,0.07463951754638877,0.05992039474376342
1.09,0.008000000000002176,0.362,0.029126348203076892,1.6174790943632387,0.07454712075357486,0.05998040671339204
1.091,0.0178,-2.638,0.029092347142957588,1.622754818752942,0.07444780122964623,0.06033282567521828
1.092,0.02679999999999454,-1.638,0.029007551622441077,1.6236497838826298,0.07420010746070405,0.06039260944301533
1.093,0.0022,-0.638,0.0289831166431207,1.6280134467717613,0.07412873114170722,0.060684102597613934
1.094,-0.0013999999999949374,-0.638,0.028937107589385672,1.6271208817888898,0.07399433541118187,0.06062447915988471
1.095,0.0214,-0.638,0.028973156906602064,1.6227548187529401,0.07409963804031525,0.06033282567521816
1.096,0.060099999999994116,-1.638,0.028888885676254226,1.618376976979814,0.07385347576038458,0.06004038536962982
1.097,0.0336,-1.638,0.028890051711639934,1.6015476506962736,0.07385688183298897,0.058916184547339726
1.098,0.009699999999997091,-0.638,0.028812741697415493,1.5971116790266064,0.07363105376231278,0.0586198611583534
1.099,-0.0034,-0.638,0.028817721961650576,1.6015476506962734,0.07364560146968226,0.05891618454733971
