time_sec,bts_raw,diy_raw,bts_rms,diy_rms,bts_norm_rms,diy_norm_rms
0.0,-0.0076,-1.234,0.03503541858273714,0.6680742818344756,0.042935891205825,0.0
0.0010000000000000009,-0.022599999999999978,-0.234,0.03505439499568068,0.690554898395687,0.04296291283370021,0.001882407442992258
0.0019999999999999983,-0.0163,-0.234,0.035058604663605226,0.7018189660828092,0.042968907226869975,0.0028256006510109727
0.002999999999999999,-0.0069,-0.234,0.03513222964651426,0.7057901057715744,0.04307374616015029,0.003158122799010756
0.004,-0.0245,0.766,0.03517695381308248,0.7097390264432112,0.04313743152522068,0.003488784444514775
0.0049999999999999975,-0.0121,-1.234,0.03517882959181005,0.7101875023611326,0.04314010255661652,0.0035263374361597937
0.005999999999999998,-0.0272,0.766,0.03518777264288599,0.7141121065781273,0.043152837091797756,0.003854962950889517
0.006999999999999999,-0.0403,-1.234,0.03524325138404194,0.7180152595961714,0.04323183652667316,0.004181792256140032
0.008,-0.0452,-1.234,0.03531931430132956,0.7218973093622557,0.043340146977766586,0.004506854487144504
0.009000000000000001,-0.0202,-1.234,0.0353745867434157,0.7257585945174685,0.0434188526512914,0.0048301779999092445
0.010000000000000002,0.0269,-1.234,0.03537793499152107,0.7261971773350251,0.04342362041823484,0.004866902595869017
0.011000000000000003,0.03290000000000004,-0.234,0.03538560500527121,0.7369166396714244,0.04343454220086945,0.00576449344405463
0.011999999999999997,0.0385,-1.234,0.03538952495073074,0.7474823926219869,0.04344012404122115,0.00664921348457493
0.012999999999999998,0.0857,-1.233999999999993,0.03539433134036697,0.7806796470621198,0.0434469681414502,0.009428975270683461
0.013999999999999999,0.1168,2.766,0.03544763780057863,0.7842515690698635,0.04352287433802541,0.009728069050200435
0.015,0.0519,0.766,0.03546211726152647,0.7846574580298905,0.0435434924920849,0.009762056036157998
0.016,-0.0419,-0.234,0.03550743036994287,0.7882113540754385,0.04360801648601044,0.01005964041733121
0.017,-0.0536,0.766,0.03550972043970135,0.7886152049934256,0.043611277450714685,0.010093456748471783
0.018000000000000002,-0.01930000000000007,0.766,0.0355460517775426,0.7984971728203482,0.04366301177449211,0.01092092025411714
0.018999999999999996,-0.0292,0.766,0.03554705243589131,0.7988958241569895,0.04366443667063078,0.01095430119992924
0.019999999999999997,-0.0196,0.766,0.035550248936733746,0.8023866587294323,0.0436689883557424,0.011246605148245279
0.020999999999999998,-0.0112,-0.234,0.035556880975739925,0.8211986189446556,0.043678432105233526,0.012821818791963178
0.022,-0.0186,-0.234,0.03557908278089562,0.8395891813299142,0.043710046558336976,0.014361746819317905
0.023,0.0024,0.766,0.03566727884176732,0.8488779575778256,0.04383563410452003,0.015139539612400261
0.024,0.0084,-0.234,0.035744396453333264,0.8666813765803024,0.043945446396682984,0.016630303371024075
0.025,0.014,1.766,0.03576790967155365,0.8699002360975854,0.04397892824779945,0.016899833572599356
0.026000000000000002,0.008800000000000032,-0.23400000000000695,0.03575893839098002,0.8731072288179395,0.04396615351498003,0.01716837011162083
0.027000000000000003,0.01319999999999991,-2.234,0.0353011294682837,0.876302485027658,0.04331425252695544,0.01743592389757078
0.027999999999999997,0.0001,-0.234,0.035217263830833435,0.8766657562144395,0.04319483132477978,0.017466342297527044
0.028999999999999998,-0.0277,-0.234,0.035093235263404035,0.8939159187354605,0.043018219769954034,0.018910779296573754
0.03,-0.0456,0.766,0.034310904727334626,0.897037057216796,0.04190421341459134,0.01917212685756605
0.031,-0.0226,-1.234,0.0338676995910522,0.897391934927853,0.04127310761495245,0.019201842432440372
0.032,0.016,0.766,0.03383819066196389,0.8977466723563738,0.04123108811931895,0.019231546260800127
0.033,0.0209,0.766,0.033898035472031456,0.9008545387455453,0.041316304655906785,0.01949178248727872
0.034,0.025400000000000027,0.766,0.03397990688701876,0.9012079132097298,0.04143288616770183,0.019521372188243243
0.034999999999999996,0.0294,-0.234,0.034050731061868636,0.9043038842575778,0.04153373686604281,0.019780612362012014
0.036,0.0172,0.766,0.03404462445517671,0.9451250425901804,0.04152504131045491,0.023198759371798293
0.037,-0.0226,0.766,0.034121607345893035,0.9480776120036785,0.04163466176569503,0.023445991854269876
0.038,-0.07,0.766,0.03420412902116433,0.9640508181793238,0.041752169221263964,0.024783503310488782
0.039,-0.0756,-0.234,0.03441426057782807,0.9643810361499288,0.042051387874752516,0.02481115400965818
0.04,-0.0578,-0.234,0.0344787683291004,0.9672748291654845,0.042143244246930674,0.02505346486870997
0.041,0.0218,-0.234,0.03449671782034923,0.970159990614241,0.04216880358074779,0.025295052966197672
0.042,0.0781,-1.234,0.03447180813641252,0.9704881298820767,0.042133333220157,0.02532252960583654
0.043000000000000003,0.129,-1.2339999999999862,0.03450588327993777,0.9860983885453002,0.04218185481646045,0.026629649764871133
0.044000000000000004,0.0813,0.766,0.03455528282695172,0.9889286345046061,0.04225219773008628,0.026866639530912013
0.045000000000000005,0.0555,0.766,0.03459216360721412,0.9892505481406272,0.04230471443716699,0.026893594869205197
0.046000000000000006,-0.014900000000000909,-0.234,0.03448523401793615,0.9895723570562782,0.04215245112065314,0.02692054143877073
0.04700000000000001,-0.08039999999999987,-0.234,0.03445076759648873,0.99239269550991,0.04210337236075717,0.027156701602902268
0.047999999999999994,-0.0716,0.766,0.03447903906082597,1.0176315866552939,0.04214362975772053,0.029270072311200216
0.048999999999999995,-0.0327,0.766,0.034503626825770774,1.01794442334145,0.0421786417189694,0.029296267593916687
0.049999999999999996,-0.0117,1.766,0.03452028115040106,1.0206863677268665,0.042202356789041474,0.02952586345510336
0.051,-0.0056,-1.2339999999999862,0.034634467968926226,1.0157296294091775,0.042364954100115114,0.029110812512137593
0.052,-0.0229,0.766,0.03460385765593109,1.0181648635942147,0.04232136627931043,0.029314726089990816
0.053,-0.0179,0.766,0.03456774224568452,1.0181648635942144,0.04226993942750512,0.0293147260899908
0.054,-0.0038,-0.234,0.0346698872286713,1.0255275130681305,0.0424153896623731,0.029931235256103094
0.055,-0.0081,0.766,0.034628806224598144,1.0255275130681305,0.042356892010150415,0.029931235256103094
0.056,0.0196,0.766,0.034609689639196285,1.03274668155074,0.042329670782486846,0.03053573008598809
0.057,0.023,0.766,0.034508608636264565,1.03274668155074,0.04218573561125076,0.03053573008598809
0.058,0.0196,0.766,0.034373927442864396,1.0399157352634043,0.04199395515723777,0.03113602857118245
0.059000000000000004,0.0047,-0.23400000000000695,0.03453850942901502,1.0350510882293047,0.0422283131045463,0.030728688863235144
0.060000000000000005,0.0072,-1.234,0.03466916920069274,1.0301634695721396,0.042414367220202476,0.030319425633567758
0.061000000000000006,0.005099999999999846,-1.234,0.034609836855487235,1.0228341915672494,0.04232988041240179,0.029705710817045785
0.062000000000000006,-0.006000000000000189,-2.234,0.03462018026453019,1.0301634695721396,0.0423446089994615,0.030319425633567758
0.063,-0.0196,0.766,0.034543243848917174,1.0252525507586652,0.04223505472284801,0.02990821137255121
0.064,-0.0103,-0.234,0.033625606920273186,1.017887912412398,0.04092837765568288,0.029291535668830547
0.065,-0.0181,0.766,0.031532442667144646,0.9804268325790091,0.03794779825439985,0.026154743788194566
0.066,-0.0042,-0.234,0.031100980906431337,0.985561137243483,0.037333414536303546,0.02658466319403825
0.067,0.0159,-1.234,0.03084825668586093,0.985561137243483,0.03697354568945524,0.02658466319403825
0.068,0.0025,-0.234,0.03039965618433291,0.985561137243483,0.036334757112657615,0.02658466319403825
0.069,0.0046,0.766,0.03039373179157886,0.9830451392721228,0.03632632102218768,0.026373986885630682
0.07,0.0067,1.766,0.030402799804585164,0.9881658398519484,0.036339233497993985,0.026802767157673144
0.07100000000000001,0.0124,1.7659999999999585,0.03046561028640081,0.9932601412792451,0.03642867302860156,0.027229336904880858
0.07200000000000001,0.0249,-1.2339999999999585,0.030496843880761463,1.0008060245901529,0.03647314837631507,0.027861189099402627
0.07300000000000001,0.0233,1.766,0.03046499602311377,1.0008060245901529,0.036427798343063825,0.027861189099402627
0.07400000000000001,0.0128,0.766,0.030472581119833846,1.005836308779766,0.036438599207356634,0.028282398383103147
0.07500000000000001,0.0062,0.766,0.030461885013195817,1.005836308779766,0.03642336839349595,0.028282398383103147
0.07600000000000001,-0.0049,0.766,0.030429435935137035,0.9933547556948545,0.03637716224722335,0.027237259413575073
0.07700000000000001,-0.00339999999999995,-0.234,0.030417571765846946,0.9933547556948545,0.03636026816041362,0.027237259413575073
0.07800000000000001,0.0001999999999997405,1.766,0.030399429551579794,0.9678118047729244,0.03633443439698225,0.02509842835435984
0.07900000000000001,-0.018499999999999888,0.766,0.030401510697567913,0.9678118047729244,0.03633739786287078,0.02509842835435984
0.07999999999999999,-0.0105,-0.234,0.030293531332229326,0.9755545500174271,0.03618363970862619,0.025746764721725886
0.08099999999999999,0.0015,-0.234,0.029962773126501308,0.9807143627292627,0.03571265369148742,0.026178820035990008
0.08199999999999999,0.0217,0.766,0.029881585087130357,0.9807143627292627,0.03559704527833115,0.026178820035990008
0.08299999999999999,0.0242,-0.234,0.029861806408328372,1.0034648140662943,0.03556888125702529,0.02808382201009751
0.08399999999999999,0.0219,0.766,0.029831241940719296,1.0009938179983842,0.0355253587181559,0.027876913922093183
0.08499999999999999,0.0063,2.766,0.029770439543459093,1.0133812871121624,0.03543877861697582,0.028914174799530446
0.086,-0.0236,0.7660000000000139,0.0296529435515704,1.0133812871121624,0.035271469179776464,0.028914174799530446
0.087,-0.0278,1.7659999999999723,0.02975233373892362,1.0109345298638197,0.03541299669949781,0.028709296341551567
0.088,-0.0396,-0.234,0.029958815425856395,1.01093452986382,0.03570701808931189,0.028709296341551588
0.089,-0.0215,0.766,0.029144182279019815,1.044937626113264,0.03454701415104743,0.031556535041186544
0.09,-0.0117,0.766,0.028872347486738868,1.044937626113264,0.0341599326397835,0.031556535041186544
0.091,0.0032,-0.234,0.028797034422081973,1.044937626113264,0.0340526899478503,0.031556535041186544
0.092,0.0167,1.766,0.02882554214041667,1.0473049469306173,0.03409328376074338,0.03175476191429755
0.093,0.018899999999999972,0.766,0.027742645307020544,1.0400964672872721,0.03255128341819458,0.031151162111047317
0.094,0.016799999999999864,-0.234,0.024563492429066608,1.0328376787576952,0.028024301091128606,0.030543349708839512
0.095,0.0071,-0.234,0.023212858372163345,1.0328376787576954,0.026101054005927223,0.03054334970883953
0.096,0.0088,0.766,0.02262114950845466,1.044847682707726,0.02525848503500644,0.03154900365806937
0.097,0.0167,-2.234,0.022574162684376467,1.0520236074640075,0.025191577739140932,0.03214987748796618
0.098,0.0129,-0.234,0.02111274336457485,1.0543750187005119,0.023110577017517075,0.03234677217726793
0.099,0.0113,0.766,0.01986925761283642,1.054375018700512,0.0213399046912145,0.032346772177267946
0.1,0.0289,0.766,0.019601968342804057,1.0520236074640077,0.020959295815799354,0.032149877487966196
0.101,0.0169,0.766,0.019594408145151083,1.0377127019870884,0.020948530406749204,0.030951558264275838
0.10200000000000001,-0.0034,-0.2340000000000139,0.01958697736733254,1.0328376787576956,0.020937949286195308,0.030543349708839547
0.10300000000000001,-0.0276,-1.2339999999999722,0.01945838601908137,1.0328376787576956,0.02075484052002572,0.030543349708839547
0.10400000000000001,-0.0177,0.7660000000000139,0.019377640926369254,1.0448476827077262,0.02063986284460789,0.03154900365806939
0.10500000000000001,0.003,1.766,0.019374869221581967,1.052023607464008,0.020635916051525083,0.032149877487966216
0.10600000000000001,0.0055,0.766,0.019377130879071183,1.049666928727139,0.020639136558331963,0.03195254172615806
0.10700000000000001,-0.0263,1.766,0.019289233887743694,1.0473049469306177,0.020513974874821508,0.03175476191429759
0.10800000000000001,-0.0564,0.766,0.019157028377011595,1.0449376261132641,0.020325719690625986,0.03155653504118656
0.10900000000000001,-0.0363,0.766,0.01908805414710076,1.0497564592185098,0.020227503237433494,0.03196003853403574
0.11000000000000001,-0.0181,-0.234,0.019086766229926215,1.0497564592185098,0.02022566929659714,0.03196003853403574
0.11100000000000002,-0.0343,-1.234,0.01920518564330364,1.0497564592185098,0.020394293647838197,0.03196003853403574
0.11200000000000002,-0.0312,0.766,0.019305334647078974,1.0449376261132641,0.020536901690788305,0.03155653504118656
0.11300000000000002,-0.0336,-0.234,0.019345325719652154,1.0206863677268665,0.020593847325593922,0.02952586345510336
0.11400000000000002,-0.0067,-0.234,0.019251492441694707,1.0256191507900112,0.020460232615225726,0.029938908512272797
0.11500000000000002,-0.0031,-1.234,0.019231750477779887,1.0497564592185098,0.020432120874402028,0.03196003853403574
0.11600000000000002,0.01309999999999992,-0.234,0.019218638467694962,1.0615750718009083,0.020413449913864585,0.032949666386562486
0.11700000000000002,0.010200000000000218,0.766,0.019557402738208926,1.1099921643303354,0.020895836236426435,0.037003856586251896
0.11800000000000002,0.018000000000000325,-0.2340000000000139,0.019785048946427006,1.1054359428166713,0.02121999502997589,0.03662234279342999
0.11900000000000002,0.029799999999999934,-1.234,0.0199059447893659,1.1076739741770154,0.021392145714579754,0.036809743654028754
0.12,0.0274,-1.234,0.020000156718164103,1.1054359428166713,0.021526299608098317,0.03662234279342999
0.121,0.0175,-1.234,0.019989397339181543,1.0940912275824457,0.021510978697033604,0.03567239658811189
0.122,0.0119,-0.234,0.01999130584086568,1.0940912275824461,0.021513696324567396,0.03567239658811193
0.123,0.0071,-1.234,0.02002509359554089,1.1008608642636113,0.021561808691024077,0.03623925001227317
0.124,0.0027,-0.234,0.02039060569293541,1.0894685094435292,0.022082282813771746,0.03528531472103508
0.125,0.0016,0.766,0.020561084829429654,1.089468509443529,0.02232503805948349,0.035285314721035056
0.126,0.0027,-0.234,0.021007232973845734,1.0871930020336704,0.0229603345810917,0.03509477581507406
0.127,0.0081,-0.234,0.021115078796309524,1.1077588164743368,0.023113902575800937,0.036816847897434335
0.128,0.0034,-0.234,0.021187782523407753,1.1077588164743368,0.02321742967887543,0.036816847897434335
0.129,-0.0103,-1.234,0.021302356581038018,1.0941771230840016,0.023380578402432965,0.035679589021246814
0.13,-0.0086,-1.234,0.021396496299022898,1.0941771230840016,0.0235146294707373,0.035679589021246814
0.131,0.004,-1.234,0.02221047541952228,1.0964381360015272,0.024673702102523707,0.03586891423539576
0.132,0.0118,-2.234,0.023137739030669867,1.103278558062461,0.025994087167773575,0.03644169485133881
0.133,0.016,-0.234,0.023130315435515452,1.1145297600685695,0.02598351627503659,0.03738381075555523
0.134,0.0169,1.766,0.023016694790022788,1.116749567036685,0.025821725170965447,0.03756968560233307
0.135,0.0131,-0.234,0.023034292770479983,1.116749567036685,0.02584678396794065,0.03756968560233307
0.136,0.0297,-0.234,0.02398952785186825,1.0827144440166403,0.02720699925095692,0.03471976515101263
0.137,0.0415,0.766,0.024019588851084833,1.08271444401664,0.02724980487164006,0.03471976515101261
0.138,0.0077,2.766,0.02388394500075551,1.0711291042092652,0.027056653633939526,0.03374967032182427
0.139,-0.0643,-0.234,0.023558676056208455,1.0734386648906695,0.02659348409789142,0.03394306066789775
0.14,-0.0539,-0.234,0.023474962476907505,1.0849993440921444,0.026474279420236935,0.034911090548913136
0.14100000000000001,-0.0256,0.7659999999999723,0.023718846955631985,1.0849993440921444,0.02682156083997853,0.034911090548913136
0.14200000000000002,-0.0001,-0.234,0.0239344907995743,1.0849993440921444,0.02712862876276924,0.034911090548913136
0.14300000000000002,-0.0076,-0.23399999999997226,0.023928087310364096,1.094263011843086,0.027119510458743293,0.03568678088980298
0.14400000000000002,0.0134,0.7660000000000278,0.023856760912928276,1.0988655606086037,0.027017944616193106,0.03607217388066491
0.14500000000000002,0.0195,1.766,0.024224946121342714,1.1324153604071352,0.02754222513857301,0.03888145594282258
0.14600000000000002,0.002,-1.234,0.024535189626715134,1.1324153604071352,0.02798399907012796,0.03888145594282258
0.14700000000000002,0.00709999999999987,0.766,0.024532615249147027,1.1433798834526268,0.027980333262851174,0.03979956687334331
0.14800000000000002,0.0023999999999998775,0.766,0.02451708056961396,1.123466326188063,0.027958212521130794,0.03813211134296673
0.14900000000000002,-0.001999999999999667,-0.234,0.02449744827549334,1.169323547134899,0.027930256945562185,0.04197195149104375
0.15000000000000002,0.0099999999999997,-0.234,0.024481281354486375,1.1736317732099373,0.027907235918108887,0.042332699462864866
0.151,-0.0008,0.766,0.024339373240223925,1.1779242421699543,0.027705164627423798,0.042692128017555446
0.152,-0.004,0.766,0.024291142914652116,1.1822011256530844,0.027636486636816206,0.04305025152718133
0.153,-0.0011,1.766,0.02429114291465212,1.1885480604911605,0.02763648663681621,0.0435817101438456
0.154,0.0014,-1.234,0.024135834234308883,1.1822011256530847,0.027415333493779483,0.04305025152718135
0.155,0.0083,-0.234,0.024212796168662818,1.1801044411819235,0.027524924108025536,0.04287468630443163
0.156,-0.0073,-0.234,0.024576906921622725,1.1694842806550156,0.028043402774205636,0.04198541046241057
0.157,-0.0055,-0.234,0.024883748733956122,1.1673647558929725,0.028480332835440113,0.04180793271500036
0.158,0.0111,-1.234,0.02479197308120154,1.1609829650372552,0.028349648098334197,0.041273555440528714
0.159,-0.0045,-0.234,0.024151565028507127,1.1609829650372552,0.02743773349467909,0.041273555440528714
0.16,-0.0227,-1.234,0.023882214018293834,1.1588478915321787,0.027054188786442945,0.04109477572395163
0.161,-0.0205,0.766,0.023874913414434915,1.1716801843953906,0.027043793028228416,0.042169283779840326
0.162,-0.0139,-0.234,0.023650953133183703,1.1652413758114397,0.026724882842367372,0.04163013214361054
0.163,-0.0041,-1.234,0.023446766624245812,1.163114119295616,0.026434129691175087,0.04145200698019978
0.164,0.005,-2.234,0.02325539767625266,1.1695646391314574,0.026161628217112043,0.04199213925446792
0.165,0.0163,1.766,0.02328348127889772,1.1716801843953906,0.026201618106788678,0.042169283779840326
0.166,0.0363,-3.234,0.02328736756113254,1.1673647558929716,0.026207152012099437,0.04180793271500029
0.167,0.0338,0.766,0.023278130368957446,1.1737919167820747,0.02619399863214771,0.04234610903512095
0.168,0.0219,0.766,0.023324844697207393,1.1737919167820747,0.02626051790521405,0.04234610903512095
0.169,0.0198,-0.234,0.02331057575514741,1.1737919167820747,0.026240199521351665,0.04234610903512095
0.17,-0.0022,0.766,0.023128461694561574,1.1673647558929716,0.025980876624519825,0.04180793271500029
0.171,0.0127,1.766,0.022963713063033714,1.1609020125312808,0.025746281381080344,0.04126677690759301
0.17200000000000001,-0.0278,1.7659999999999723,0.022896676256787835,1.1565463680697885,0.0256508237391272,0.04090205837191512
0.17300000000000001,-0.0452,0.766,0.022881276484544324,1.1586856825272067,0.025628895099812414,0.04108119320331888
0.17400000000000002,-0.0296,0.7659999999999723,0.02286973330418596,1.1521742577803322,0.02561245808797734,0.04053596107524863
0.17500000000000002,-0.0437,-0.23400000000005552,0.022880124221865403,1.1521742577803322,0.02562725432537222,0.04053596107524863
0.17600000000000002,-0.022,-2.234,0.022884407722322926,1.162952505345674,0.025633353853017984,0.04143847428631508
0.17700000000000002,-0.018,-0.234,0.022883060045314436,1.1629525053456737,0.02563143481664753,0.04143847428631506
0.17800000000000002,0.0219,-0.234,0.022886350717295285,1.165080056943685,0.02563612059756885,0.04161662415834111
0.17900000000000002,0.027000000000000923,0.766,0.022937589398700747,1.1672037304969602,0.025709082362570215,0.0417944493034961
0.18000000000000002,0.060300000000000124,0.766,0.023018970026668348,1.1607400905819272,0.02582496501392983,0.04125321842347328
0.18100000000000002,0.06469999999999877,-1.234,0.02304750713478245,1.1542402554417608,0.02586560067665432,0.04070895674751982
0.18200000000000002,0.020899999999999183,1.766,0.023044124899991154,1.1477036101190854,0.02586078451407454,0.04016161278237096
0.18300000000000002,-0.00850000000000043,0.766,0.023015300597918575,1.125668510475718,0.02581973989902081,0.038316510560071605
0.184,-0.024,0.766,0.022972147658659677,1.138874714037002,0.02575829189671156,0.03942232791208875
0.185,-0.0675,-0.234,0.022908700219692133,1.1256685104757183,0.02566794536544046,0.03831651056007162
0.186,-0.0265,0.766,0.022870320839240878,1.1278663949576393,0.02561329471361701,0.03850054973427933
0.187,0.0105,0.766,0.022674521245268513,1.1345173403155284,0.025334484182765772,0.03905746457736362
0.188,-0.0036,0.766,0.022299592076168585,1.1323323655528443,0.02480060053904831,0.038874506394485156
0.189,-0.008,1.766,0.022288670872329344,1.098780031618767,0.02478504919607472,0.036065012137274914
0.19,-0.036,0.766,0.021347237549029115,1.1010315923179765,0.02344448704625008,0.036253545872859984
0.191,-0.0324,-0.234,0.02067100314234148,1.1010315923179765,0.02248155719494985,0.036253545872859984
0.192,-0.0161,-2.234,0.020540128792359412,1.1056059643860547,0.022295197528655233,0.03663657949671636
0.193,0.0046,-1.234,0.02054212876928773,1.107843652274155,0.022298045413156737,0.0368239515967735
0.194,0.0452,2.766,0.020562751279846626,1.107843652274155,0.02232741101601505,0.0368239515967735
0.195,0.0394,-0.234,0.02053582283574158,1.1056059643860547,0.022289066024365138,0.03663657949671636
0.196,-0.0084,1.766,0.020471909887110885,1.098865560608602,0.022198056626569825,0.03607217388066476
0.197,-0.0146,0.766,0.02047542066758509,1.0919974952763296,0.022203055832890208,0.03549707856398498
0.198,-0.0088,-3.234,0.020463667717337094,1.0966095526182218,0.02218632011740055,0.03588326775253529
0.199,-0.0074,-1.234,0.020462074795677118,1.117002006577954,0.022184051862780548,0.037590823548887896
0.2,-0.0125,-1.234,0.020462298186065573,1.117002006577954,0.022184369961462617,0.037590823548887896
0.201,-0.0077,-1.234,0.02046180374850529,1.1192169102087834,0.022183665902808264,0.03777628781624157
0.202,-0.0034,-1.234,0.020537836065243707,1.123717256831564,0.022291932779984116,0.038153122942435766
0.203,0.0005,-0.234,0.02053612381898229,1.123717256831564,0.022289494612062477,0.038153122942435766
0.20400000000000001,0.0259,-0.23399999999997226,0.02057494256838971,1.1125589709776895,0.022344770907123595,0.03721878734335748
0.20500000000000002,0.0421,0.7659999999999723,0.02057434678175165,1.1080133043872604,0.022343922531570505,0.03683815736375322
0.20600000000000002,0.0392,-0.23400000000002777,0.02070160437212917,1.1080133043872606,0.02252513208164247,0.03683815736375324
0.20700000000000002,0.0149,-1.2339999999999445,0.020733524088795068,1.1147827022792627,0.02257058443916624,0.037404990792978106
0.20800000000000002,0.0051,0.7659999999999723,0.02078962289126191,1.1215112410952173,0.022650466815725745,0.03796840290016511
0.20900000000000002,-0.0036,-0.234,0.02076325062772078,1.1215112410952173,0.022612913802215976,0.03796840290016511
0.21000000000000002,-0.01709999999999981,1.766,0.020806782647589808,1.123717256831564,0.022674901599649425,0.038153122942435766
0.21100000000000002,-0.01019999999999969,-0.234,0.02068916220919275,1.117002006577954,0.02250741495576462,0.037590823548887896
0.21200000000000002,0.001000000000000383,-0.234,0.0206024190863702,1.1281163468797426,0.02238389633332425,0.038521479380816216
0.21300000000000002,0.01479999999999995,-1.234,0.020662903824631703,1.1347658272521144,0.022470024101216703,0.03907827155379339
0.21400000000000002,0.012999999999999777,0.766,0.020659436466705677,1.130309471558748,0.02246508672681059,0.03870511999440566
0.215,0.005,0.766,0.02076736448611939,1.1412118771227446,0.022618771766579917,0.039618029536913395
0.216,-0.0117,-1.234,0.020718876423127426,1.1412118771227446,0.022549726768536425,0.039618029536913395
0.217,-0.0182,0.766,0.02039595047174178,1.0941771230840003,0.022089893557931395,0.0356795890212467
0.218,-0.0164,-0.234,0.02011741470790834,1.091911428313789,0.02169327014007886,0.035489871773617766
0.219,-0.0074,-0.234,0.02002534026213662,1.0896410224859094,0.021562159934063466,0.03529976004703872
0.22,0.0006,-0.234,0.019932950400844737,1.0896410224859097,0.021430600589381177,0.03529976004703874
0.221,0.002,0.766,0.019935793383592894,1.094263011843084,0.021434648879334866,0.035686780889802816
0.222,0.0085,0.766,0.01990110622701816,1.0805116937320285,0.021385255801738973,0.03453531854032843
0.223,-0.0002,-0.234,0.019766607141168617,1.0689024795993027,0.021193734661352895,0.033563224601924624
0.224,0.0073,-0.234,0.02015638998514928,1.0805116937320292,0.02174876932430676,0.034535318540328486
0.225,0.0046,1.766,0.02013690256161353,1.0805116937320294,0.021721020038464565,0.034535318540328507
0.226,-0.0016,-0.234,0.019690178544102974,1.0942630118430847,0.021084903497366442,0.03568678088980287
0.227,-0.0093,0.766,0.019577257957105458,1.0711291042092639,0.020924109247664094,0.03374967032182416
0.228,-0.0159,0.766,0.019855760255447497,1.0711291042092639,0.021320685012039754,0.03374967032182416
0.229,-0.022,-0.234,0.01979250134881754,1.0781301166770267,0.02123060694302672,0.03433589792558737
0.23,-0.0144,-0.234,0.02064415206691619,1.0828012420060193,0.022443322373102835,0.03472703315368503
0.231,-0.0015,-0.234,0.020262392648295647,1.0874523028131107,0.02189971273631228,0.03511648828527535
0.232,-0.0034,-0.234,0.019287202660509904,1.0874523028131107,0.02051108249117636,0.03511648828527535
0.233,-0.0081,1.766,0.019361447098761045,1.0736137536829977,0.020616803503266275,0.033957721673523004
0.234,-0.0006,-0.234,0.019649336312490804,1.0851725676109827,0.02102674584726148,0.03492559536644226
0.23500000000000001,0.0004,0.7659999999999445,0.01993948747617931,1.0828880330381772,0.02143990911452809,0.03473430057379666
0.23600000000000002,-0.0007,-1.2339999999999722,0.019708009502665727,1.085172567610983,0.021110294045536677,0.03492559536644228
0.23700000000000002,0.0069,-0.234,0.020614141043533235,1.085172567610983,0.02240058791594164,0.03492559536644228
0.23800000000000002,-0.0038,-0.23399999999997226,0.020600667789229588,1.085172567610983,0.022381402558564325,0.03492559536644228
0.23900000000000002,-0.0024,0.7659999999999723,0.02112205929229261,1.0851725676109836,0.023123842513627996,0.03492559536644234
0.24000000000000002,0.0066,-0.234,0.021109050491254826,1.1056909653666955,0.023105318518508812,0.03664369702742038
0.24100000000000002,0.0102,-1.234,0.021329958367518727,1.116917866403638,0.0234198822058015,0.037583778097534035
0.24200000000000002,0.0027,0.766,0.022050451435813495,1.1302263220646986,0.02444583456234345,0.038698157497356105
0.24300000000000002,-0.012,-0.234,0.022319247371366025,1.107843652274154,0.024828588867199845,0.03682395159677341
0.24400000000000002,0.0084,-0.234,0.022320852226473138,1.1010315923179756,0.024830874114555448,0.036253545872859914
0.24500000000000002,0.011,-1.234,0.021884486369484268,1.0664949784635163,0.024209507166013177,0.0333616332423337
0.24600000000000002,0.0042,-0.234,0.022060575060738375,1.0735262128563863,0.02446025018590109,0.03395039146960576
0.24700000000000003,0.002,-1.234,0.02291588393445853,1.061840628480402,0.02567817467841741,0.03297190269261105
0.24800000000000003,0.0001,-2.234,0.023095496812371715,1.0595057861538721,0.025933935994478987,0.03277639539583803
0.24900000000000003,0.0019,-0.234,0.02311193556048051,1.0160996652345553,0.02595734409249266,0.029141797347004922
0.25,0.0099,0.766,0.02315573253419194,1.0111204421264641,0.026019709173249084,0.028724863647100883
0.251,0.0175,-1.234,0.02322887904571656,1.0184417394629786,0.026123866783049718,0.02933791020483602
0.252,0.0026,0.766,0.023374671692871413,1.0110274902684386,0.026331469488054253,0.0287170803521494
0.253,0.0125,0.766,0.024186772686951685,1.0035584663967607,0.027487867745429082,0.0280916639588912
0.254,-0.0001,0.766,0.02425086958048705,1.0060231631899628,0.027579139073167547,0.028298044579085038
0.255,-0.0246,-0.234,0.024222372134919106,1.0060231631899628,0.02753855988826983,0.028298044579085038
0.256,-0.0137,-1.234,0.024018849439954245,1.0110274902684389,0.02724875198074456,0.028717080352149416
0.257,0.015999999999999334,-1.234,0.02504897098715576,1.0184417394629786,0.028715602496568886,0.02933791020483602
0.258,0.003999999999998984,-1.234,0.026088970637169508,1.0184417394629792,0.030196519022608077,0.029337910204836077
0.259,-0.014299999999999462,0.766,0.026254094052813315,1.0403675064543385,0.030431647943141578,0.031173857491489352
0.26,-0.0046000000000001665,-0.234,0.026493038898224974,1.0475741210472402,0.030771895529164636,0.03177730112532018
0.261,-0.007600000000000749,1.766,0.0266149855587715,1.0332015874415106,0.03094554253461916,0.030573821489411828
0.262,-0.02109999999999878,-1.234,0.026597472971152426,1.0355957366123991,0.030920605333516787,0.030774294826370497
0.263,0.000900000000001149,0.766,0.026804031979140868,1.049935497297819,0.031214736825319018,0.0319750302319793
0.26399999999999996,0.0216,2.766,0.027451559918454233,1.056987973763363,0.03213678985330666,0.032565567157606765
0.26499999999999996,0.0082,1.766,0.027651812127636156,1.0569879737633632,0.03242194072422229,0.032565567157606785
0.26599999999999996,0.0013,-0.234,0.027836569016492535,1.0546423883394123,0.03268502689930262,0.03236916029090911
0.26699999999999996,-0.0052,-0.234,0.027812681196853404,1.0498459820747519,0.0326510116312454,0.031967534702588285
0.26799999999999996,-0.011,-0.234,0.02775723723249701,1.0498459820747519,0.032572061717095493,0.031967534702588285
0.26899999999999996,-0.0056,-0.234,0.027995990121306654,1.0522022597754772,0.03291203596484945,0.03216483688375956
0.26999999999999996,-0.0041,-1.234,0.028931458929713726,1.0663187207738882,0.03424410489193602,0.03334687435945622
0.27099999999999996,-0.0054,-0.234,0.02938672689738213,1.0686386777910397,0.034892387664999934,0.03354113523947333
0.27199999999999996,0.015,0.766,0.029427480221833963,1.0663187207738882,0.034950418714982466,0.03334687435945622
0.27299999999999996,0.0597,1.766,0.029434654433992267,1.071041360301562,0.03496063449663816,0.03374232311297491
0.27399999999999997,0.0279,0.766,0.029435452072919192,1.0733511097840915,0.03496177030150952,0.03393572926825194
0.27499999999999997,0.0106,1.766,0.029442070573941194,1.0756558995667997,0.0349711947734706,0.034128720124605424
0.27599999999999997,0.0056,-0.234,0.029444391708171817,1.0687266189622584,0.0349744999726995,0.03354849896612187
0.27699999999999997,-0.0378,-0.234,0.02944540577544507,1.0687266189622584,0.03497594396259263,0.03354849896612187
0.27799999999999997,0.0152,-1.234,0.02958139124489031,1.0734386648906677,0.035169581651797614,0.0339430606678976
0.27899999999999997,0.0645,-1.234,0.029734175813407194,1.0781301166770263,0.0353871405638967,0.03433589792558733
0.27999999999999997,0.0456,-1.234,0.029804946523981725,1.0781301166770263,0.03548791513131888,0.03433589792558733
0.28099999999999997,-0.0189,-1.234,0.029886598578793604,1.0804247118074164,0.03560418428328867,0.03452803513589645
0.282,-0.0272,-0.233999999999889,0.029931633770057406,1.0873658760904805,0.035668312534673195,0.035109251370508826
0.283,-0.0347,1.765999999999889,0.0299330239301102,1.0896410224859099,0.03567029206514322,0.03529976004703876
0.284,-0.0416,-0.2339999999999445,0.029923071713992028,1.0781301166770265,0.03565612052064326,0.034335897925587354
0.285,-0.0603,0.766,0.03002702052706068,1.0804247118074166,0.03580413933500872,0.034528035135896466
0.286,-0.0661,0.766,0.030334247762346247,1.0850859593082471,0.03624161822260037,0.03491834324712203
0.287,-0.0078,0.766,0.030685017396872055,1.09191142831379,0.03674109968742118,0.03548987177361786
0.288,0.0466,0.766000000000111,0.030836826280177785,1.0919114283137898,0.03695726926409752,0.03548987177361784
0.289,-0.0027,2.766,0.03088698898026832,1.105520956869883,0.037028698876168865,0.03662946141876167
0.29,-0.0473,1.766,0.030886484538377657,1.1167495670366845,0.03702798057176146,0.03756968560233303
0.291,-0.0647,1.766,0.030967098165490287,1.118964970351951,0.037142771045598134,0.037755191710607795
0.292,-0.0382,-0.234,0.03129314766792687,1.1144454332406697,0.037607052063826175,0.037376749674821505
0.293,0.0053,-0.234,0.03151612266867954,1.118964970351951,0.03792455925097174,0.037755191710607795
0.294,0.0112,-0.234,0.03152211084097155,1.118964970351951,0.037933086160868185,0.037755191710607795
0.295,0.0482,-1.234,0.031512446872359705,1.1189649703519513,0.03791932506890607,0.037755191710607816
0.296,0.0624,0.766,0.03149271736664594,1.1189649703519498,0.037891231068045865,0.037755191710607684
0.297,0.032,-0.234,0.03169177886259108,1.1211759961187449,0.038174686412515785,0.0379403312662213
0.298,0.0121,-1.234,0.0317647864333044,1.114445433240668,0.03827864617634254,0.03737674967482136
0.299,0.0158,0.766,0.031764775905508996,1.0940053253368287,0.03827863118519692,0.03566520359026511
0.3,0.022,1.766,0.03182617340903706,1.0940053253368287,0.038366058693111035,0.03566520359026511
0.301,-0.0273,-0.234,0.031810684103933354,1.091739274033512,0.038344002562703074,0.03547545648844736
0.302,-0.0624,-0.234,0.03178192025560827,1.0871065546962084,0.03830304403128766,0.035087537174130996
0.303,-0.0178,0.766,0.03184337881240042,1.0871065546962084,0.03839055847652696,0.035087537174130996
0.304,0.0231,-0.234,0.03184029677759133,1.1187969789285728,0.03838616978631677,0.0377411250009664
0.305,0.0282,-1.234,0.03190451555849525,1.1298936628983374,0.038477614676631355,0.038670302385418534
0.306,0.0811,-1.234,0.03190605340991002,1.1320833444830563,0.03847980451349783,0.03885365469257767
0.307,0.0743,-1.234,0.031881004346432415,1.138627123798789,0.03844413568220034,0.03940159602041865
0.308,0.0297,-2.234,0.03184022377834081,1.138627123798789,0.03838606583840056,0.03940159602041865
0.309,0.0355,-1.234,0.031872658610029636,1.138627123798789,0.038432251698431036,0.03940159602041865
0.31,0.0304,-0.234,0.031841312546877346,1.1430510523393353,0.03838761619980575,0.03977203230224016
0.311,-0.0029,0.766,0.03183939964463721,1.1647573521801962,0.038384892306062054,0.04158960257523522
0.312,-0.0334,1.766,0.03184559904020058,1.1539959618905522,0.03839371998916861,0.04068850090291174
0.313,-0.0613,1.766,0.03177847439601031,1.1496141521640824,0.03829813726961235,0.04032159142690055
0.314,-0.0359,0.766,0.031778714665381194,1.1496141521640826,0.03829847940326791,0.04032159142690056
0.315,-0.0326,-0.234,0.03171210116647574,1.1165812423024044,0.03820362453347534,0.037555590983006835
0.316,0.0001,0.766,0.031701994318593205,1.103108177771038,0.03818923279973272,0.03642742811057393
0.317,-0.0043,0.766,0.03170901744752388,1.1255850181434983,0.03819923344511544,0.038309519355574376
0.318,-0.0401,0.766,0.03173346651069678,1.1255850181434983,0.03823404790077265,0.038309519355574376
0.319,-0.07349999999999879,1.766,0.031760676365156906,1.1322493646149592,0.038272793609139565,0.038867556336739856
0.32,-0.05169999999999801,0.766,0.031770334468406596,1.138874714037,0.03828654634906834,0.039422327912088585
0.321,-0.015799999999999734,-0.234,0.031768194410914274,1.1388747140369997,0.0382834989956322,0.03942232791208857
0.322,-0.010999999999999278,-1.234,0.03177653950310374,1.1454617430864888,0.03829538206206837,0.03997389074294789
0.323,0.0019999999999993395,0.766,0.03174485927369673,1.145461743086489,0.038250270724505,0.0399738907429479
0.324,-0.009899999999999796,0.766,0.031188417857326175,1.1389572321559651,0.03745792114124801,0.03942923754114164
0.325,-0.006199999999999822,-1.234,0.031106553736275598,1.1498593766537268,0.037341350015717464,0.04034212522334931
0.326,-0.0029999999999981903,-0.234,0.031111324830651734,1.143379883452624,0.037348143856954646,0.03979956687334309
0.32699999999999996,0.0296,-1.234,0.031214177614796088,1.143379883452624,0.037494601971422764,0.03979956687334309
0.32799999999999996,0.0338,-1.234,0.03119338355820524,1.1499411065293803,0.03746499209410369,0.040348968849093565
0.32899999999999996,0.0298,-0.234,0.031305098763670276,1.1563838362241046,0.0376240699303134,0.040888448818315666
0.32999999999999996,0.0261,0.766,0.03063571132034068,1.1563838362241046,0.03667088987190009,0.040888448818315666
0.33099999999999996,0.0163,-1.234,0.03040789909578409,1.1819626111992114,0.03634649467794484,0.043030279593493065
0.33199999999999996,-0.0045,0.766,0.030507368438117813,1.177684861526673,0.03648813491108752,0.04267208355376621
0.33299999999999996,-0.002,0.766,0.030507368438117802,1.1797858460191917,0.03648813491108751,0.04284800883746827
0.33399999999999996,0.0248,0.766,0.030324158243721,1.1670426828830998,0.03622725116500405,0.04178096403158722
0.33499999999999996,0.0429,-1.234,0.030064262110246837,1.1670426828831,0.03585716981054351,0.041780964031587244
0.33599999999999997,0.0461,1.766,0.029470907806233,1.1649187157363656,0.0350122578006222,0.04160311430247517
0.33699999999999997,0.0312,-0.234,0.028727230972458884,1.1649187157363656,0.03395329272005315,0.04160311430247517
0.33799999999999997,0.0178,1.766,0.02873957789942821,1.1627908689333362,0.03397087423384927,0.04142493971154865
0.33899999999999997,0.0012,1.766,0.0283565219259648,1.1671232094678352,0.0334254183565396,0.04178770690014032
0.33999999999999997,-0.0235,0.766,0.02835575275463541,1.1367807912180166,0.033424323088350784,0.03924699393542593
0.34099999999999997,-0.0464,0.766,0.028025546584368337,1.1235499759628047,0.0329541231468968,0.038139115730864606
0.34199999999999997,-0.0377,-1.234,0.02746620972193963,1.1169178664036392,0.03215765056810062,0.037583778097534125
0.34299999999999997,-0.0135,-0.234,0.027204312999517442,1.119132936558378,0.031784720457647804,0.0377692563087156
0.344,-0.0037,-0.23400000000005552,0.027225133289450452,1.1258354765646967,0.031814367690162076,0.038330491413655625
0.345,-0.0008,-1.233999999999889,0.027254258561973693,1.1258354765646967,0.03185584087470064,0.038330491413655625
0.346,-0.0359,0.7659999999999445,0.026908217834844796,1.1191329365583778,0.03136309317860187,0.03776925630871559
0.347,-0.0218,-0.2339999999999445,0.026230942986687968,1.1191329365583778,0.03039868178164335,0.03776925630871559
0.348,-0.0001,0.7659999999999445,0.026192522489023495,1.1213436311353888,0.030343972580607354,0.037954368132255535
0.349,0.0197,-0.234,0.026194911841874717,1.1168337198903602,0.030347374920333015,0.03757673211538915
0.35,0.0015,-0.2339999999999445,0.026165576164679866,1.1168337198903604,0.030305602128236565,0.03757673211538917
0.351,0.0112,0.766,0.02608307536585287,1.1168337198903604,0.030188124399861637,0.03757673211538917
0.352,0.0198,0.766,0.025943752938647112,1.1190489566065733,0.02998973502069774,0.03776222427354394
0.353,0.0117,2.766,0.025208446387887745,1.119048956606573,0.028942688877259107,0.03776222427354392
0.354,-0.0204,1.766,0.025339111327990386,1.1168337198903602,0.0291287503525388,0.03757673211538915
0.355,-0.0248,0.766,0.025295951039584767,1.1168337198903602,0.029067291885348304,0.03757673211538915
0.356,-0.005,1.766,0.025187689576132866,1.1168337198903602,0.028913132035047404,0.03757673211538915
0.357,-0.0014,-1.234,0.023882105865454056,1.11683371989036,0.02705403478126827,0.03757673211538913
0.358,0.0148,-1.234,0.022725660484042738,1.1168337198903582,0.025407304345569492,0.037576732115388985
0.359,-0.0003,-1.234,0.02257731741754353,1.1077588164743317,0.025196069948808776,0.036816847897433905
0.36,-0.0029,-2.234,0.022451139321056877,1.1009462316002234,0.025016397553429815,0.036246398219680634
0.361,-0.0099,0.766,0.022835781896355233,1.103193371205997,0.025564112686189792,0.036434561756380476
0.362,-0.0035,0.766,0.023340069460830264,1.1009462316002232,0.02628219733948487,0.03624639821968061
0.363,-0.0018,0.766,0.024105895365378893,1.0872794424978758,0.027372701781577698,0.035102013880487115
0.364,-0.0073,-0.234,0.023557726744891823,1.0734386648906635,0.02659213231780463,0.03394306066789725
0.365,-0.0026,-0.234,0.02330424725316957,1.0734386648906635,0.02623118799604593,0.03394306066789725
0.366,-0.007,-2.234,0.023080532870480956,1.0757432670857718,0.02591262795957684,0.03413603581666133
0.367,-0.0136,-0.234,0.02309392155919545,1.0734386648906633,0.02593169289904968,0.03394306066789723
0.368,-0.0172,-1.234,0.023094352948226312,1.0711291042092588,0.025932307179203473,0.03374967032182374
0.369,-0.0097,-1.234,0.022752741483958845,1.068814552897746,0.025445866570390333,0.033555862086888724
0.37,0.0012,-1.234,0.021541366584086737,1.0618406284803985,0.02372091877023871,0.03297190269261075
0.371,0.0088,-1.234,0.02092468150929948,1.0595057861538686,0.0228427847068262,0.03277639539583773
0.372,0.0052,0.766,0.020882574577878867,1.0595057861538686,0.022782826176454808,0.03277639539583773
0.373,0.0089,-1.234,0.0208635752264713,1.0523808817589035,0.022755771885154687,0.03217979374004365
0.374,0.0165,1.766,0.020876407706909825,1.0571657871381417,0.022774044807026574,0.03258045630529699
0.375,0.0119,-1.234,0.02091993365763919,1.0619291326162805,0.022836023962255935,0.03297931355893047
0.376,0.0258,-0.234,0.020929045116750387,1.0548205971146403,0.022848998303520305,0.032384082547333104
0.377,0.0357,-1.234,0.02107990006018918,1.0619291326162805,0.023063809509245477,0.03297931355893047
0.378,0.0304,1.766,0.02088503741263893,1.0619291326162805,0.022786333151382183,0.03297931355893047
0.379,0.0058,-1.234,0.0210220218609973,1.0571657871381417,0.02298139334527897,0.03258045630529699
0.38,-0.0267,2.766,0.022013496365194448,1.0595057861538686,0.024393212068864755,0.03277639539583773
0.381,-0.0311,0.766,0.022656039287607902,1.057165787138142,0.02530816663878122,0.032580456305297004
0.382,-0.02719999999999899,0.766,0.022629389537738374,1.0641703480598246,0.025270218496206292,0.03316698103774668
0.383,-0.009000000000000183,-0.234,0.0226988644697313,1.0689024795992979,0.025369147928473328,0.033563224601924214
0.384,-0.012299999999999834,-0.234,0.022813679822585912,1.073613753682993,0.025532640246459362,0.033957721673522616
0.385,-0.00929999999999925,-0.234,0.02274744433601518,1.0713045704649848,0.025438323650610942,0.03376436293422933
0.386,0.004200000000000388,0.766,0.022375790820033797,1.1125589709776849,0.0249091044015755,0.03721878734335708
0.387,0.011199999999999384,-0.234,0.02217551653779748,1.0990365986202117,0.024623922099542533,0.036086495695425144
0.388,9.999999999990564e-05,-1.234,0.022305670463312898,1.101287634773407,0.02480925591116652,0.03627498550831269
0.389,-0.0015999999999988677,0.766,0.023164787327547107,1.0898997408508202,0.026032602824818448,0.035321423748940345
0.39,0.018800000000000757,-0.234,0.024349289113007207,1.0783915966422237,0.02771928442051668,0.03435779286923093
0.391,0.03239999999999798,-1.234,0.02471445481958822,1.0760926662283523,0.028239265297059717,0.03416529264530648
0.39199999999999996,-0.004,0.766,0.024690466265342038,1.0807725975033802,0.02820510658708468,0.03455716523655938
0.39299999999999996,0.0118,-1.234,0.02465941700599303,1.0737888139258684,0.028160893724810527,0.033972380288568305
0.39399999999999996,0.0168,-0.234,0.02471131858261827,1.08077259750338,0.028234799425212245,0.034557165236559356
0.39499999999999996,0.0214,-0.234,0.02470989435527929,1.0807725975033797,0.028232771384334443,0.03455716523655934
0.39599999999999996,0.0176,0.766,0.0247134976337186,1.0876251356550044,0.02823790230393487,0.0351309603895919
0.39699999999999996,0.0287,0.766,0.02447662759787713,1.0876251356550048,0.02790060916100305,0.035130960389591945
0.39799999999999996,0.0126,0.766,0.024545315339670172,1.087625135655005,0.027998417666954264,0.03513096038959196
0.39899999999999997,0.0099,0.766,0.02454564152922584,1.0876251356550055,0.027998882147402506,0.035130960389592
0.39999999999999997,0.0076,1.766,0.024525023653970798,1.0876251356550055,0.02796952314502534,0.035130960389592
0.40099999999999997,0.0032,0.766,0.02467519482875271,1.0898997408508224,0.028183360692438278,0.03532142374894053
0.40199999999999997,0.0104,-0.234,0.024654413524227807,1.0945206376813772,0.028153768973534166,0.035708353109327566
0.40299999999999997,0.031,-0.234,0.024573490392674296,1.0945206376813772,0.02803853777816323,0.035708353109327566
0.40399999999999997,0.0178,-0.234,0.024575454578325207,1.059771861353229,0.0280413346973647,0.032798675119986215
0.40499999999999997,0.0159,-1.234,0.024505974281178414,1.0455670133089732,0.02794239762534026,0.031609236582467726
0.40599999999999997,0.0139,-1.234,0.024445062851326662,1.0431957486117964,0.027855662266255337,0.031410679469805074
0.407,0.0123,-1.2339999999998335,0.024521713485366803,1.0360493915481854,0.027964809601718314,0.030812281481467304
0.408,-0.015,1.765999999999889,0.024742020967264633,1.0360493915481852,0.028278518352243626,0.030812281481467287
0.409,-0.0267,-0.2339999999999445,0.024882706869724578,1.0528273041336098,0.028478849263827027,0.03221717477888559
0.41,-0.0519,0.7659999999999445,0.02508976318344897,1.0598605382424642,0.028773688898447242,0.032806100451754285
0.411,-0.0485,-0.234,0.025153966067860613,1.0431957486117964,0.0288651111528137,0.031410679469805074
0.412,-0.069,-0.234,0.025166029656168265,1.0408190815524117,0.02888228920406391,0.031211669992021455
0.413,-0.0337,-0.2339999999999445,0.025164049015059267,1.0384369750377176,0.028879468852970113,0.031012205043137564
0.414,-0.0096,0.766,0.02516882402744091,1.0432858344333276,0.028886268273285227,0.031418222778081185
0.415,0.0036,0.7659999999999445,0.025159122887572556,1.0456568948404468,0.02887245425098986,0.03161676278457934
0.416,0.0077,-0.234,0.025187351762087144,1.0456568948404468,0.028912651001805678,0.03161676278457934
0.417,0.0042,-0.234,0.025197802884196742,1.028762047864075,0.028927532967821294,0.030202078022266775
0.418,-0.0055,-0.234,0.02527968509197063,1.0360493915481854,0.029044129848098437,0.030812281481467304
0.419,0.0033,-1.234,0.025319462243326055,1.0311665047525573,0.029100770867929775,0.030403414472755526
0.42,0.0059,-0.234,0.025333701711680204,1.026260385730563,0.029121047282452985,0.02999260212078726
0.421,0.0081,-0.234,0.025371806763988605,1.0431957486117927,0.029175307302336986,0.03141067946980476
0.422,0.006,-0.234,0.025355955538859387,1.0359586764537663,0.0291527358127682,0.03080468548122143
0.423,-0.0078,-1.234,0.025350866611563407,1.0335653679964896,0.029145489390586875,0.03060428254115584
0.424,-0.0168,-1.234,0.025342646049753982,1.033565367996489,0.02913378365026596,0.030604282541155783
0.425,-0.0088,-0.234,0.02530032637856475,1.0189952655068997,0.029073522187255035,0.029384259536142397
0.426,-0.0255,-1.234,0.025352671195310452,1.018995265506899,0.029148059043272417,0.02938425953614234
0.427,0.0081,-1.234,0.025416133928512757,1.0189952655068988,0.029238427352901816,0.02938425953614232
0.428,0.0414,0.766,0.025565728988337703,1.0262603857305583,0.029451444536422653,0.029992602120786867
0.429,0.0717,0.766,0.025955967610820235,1.0140302608510823,0.030007128209129187,0.028968516413921806
0.43,0.0595,-0.234,0.026118147149496788,1.0090408260907753,0.030238065170510225,0.028550727644492253
0.431,0.0121,1.766,0.026098588061140682,0.9712385703438641,0.030210213836925223,0.02538536750474135
0.432,0.0181,-1.234,0.026348752376431656,0.9764211907406313,0.030566437484437783,0.025819332613416835
0.433,-0.0231,-1.234,0.026771015822849065,0.9764211907406313,0.031167723183075795,0.025819332613416835
0.434,-0.0181,-0.234,0.026851152183661586,0.978954212987243,0.03128183404942304,0.02603143444422312
0.435,-0.0135,-3.234,0.026828637358396915,0.9814806979882961,0.031249773868619237,0.02624298888080367
0.436,-0.0355,-0.234,0.026832227607435002,0.9965994076457368,0.031254886234890734,0.02750894933656405
0.437,-0.0397,0.766,0.02693699371939535,1.03107536005671,0.03140406884910498,0.03039578249996754
0.438,-0.0652,0.766,0.026985242784885975,1.0667593103931343,0.03147277352458258,0.033383766994331945
0.439,-0.0752,0.766,0.027088516080143402,1.0596831770432877,0.03161983042949906,0.03279124916684763
0.44,-0.0485,-0.234,0.027093584607790322,1.0807725975033762,0.0316270478034231,0.034557165236559044
0.441,-0.0451,-1.234,0.027137634746251343,1.128366243433325,0.03168977338032149,0.038542404391087214
0.442,-0.0356,-0.234,0.02701990174014081,1.1676062523486215,0.03152212644466429,0.041828154345680824
0.443,-0.021,-1.234,0.027018499715926004,1.1719207915756729,0.03152013002011782,0.042189430947324254
0.444,-0.0024999999999996336,-0.234,0.026999028333232398,1.1654833122466715,0.03149240357577198,0.04165039061584466
0.445,0.00410000000000035,1.766,0.026961938274941682,1.1782433407075608,0.03143958886542689,0.04271884763445753
0.446,0.010400000000000988,0.766,0.026876057510940982,1.1803433311201592,0.03131729820631385,0.04289468967918634
0.447,0.028199999999998494,-0.234,0.026817286189269082,1.2095934846534493,0.031233610272842015,0.04534394219723047
0.448,0.0010999999999989787,0.766,0.026823433331878522,1.3371168404842848,0.031242363549901404,0.05602207077603044
0.449,-0.01730000000000056,-0.234,0.02710844873146282,1.4169310084471853,0.0316482137013072,0.06270528533202402
0.45,-0.027399999999998204,0.766,0.027347150608346648,1.6131845983910211,0.03198811531018674,0.0791385187096908
0.451,0.004999999999999745,-1.234,0.027475426550866197,1.6270579454598784,0.03217077495162791,0.08030019911603213
0.452,0.0004000000000006495,0.766,0.027478035759039225,1.6270579454598784,0.03217449035624681,0.08030019911603213
0.453,0.012099999999999778,-0.234,0.02767820463040479,1.7428710513102794,0.03245952255755568,0.08999777355111238
0.454,0.008100000000000517,-0.234,0.02899277954787521,1.8875721007973592,0.03433142291826524,0.10211427097108317
0.45499999999999996,0.0174,-0.234,0.03113723890513651,1.9152204592459312,0.03738504442818177,0.10442939767538853
0.45599999999999996,0.0198,-1.234,0.03151391638054124,1.9243483047816667,0.03792141758783255,0.10519371498528826
0.45699999999999996,0.0328,-1.234,0.031493795939650335,1.9217238139005082,0.03789276691143459,0.10497395405678764
0.45799999999999996,0.0302,-2.234,0.031509417788385126,1.9255860004441971,0.03791501177849616,0.10529735304703637
0.45899999999999996,0.032,1.766,0.03214337358075289,1.919095733857111,0.03881773863007086,0.10475389259090213
0.45999999999999996,0.018,-1.234,0.03281829136434831,1.9551829769361857,0.03977879366449417,0.10777564667776872
0.46099999999999997,0.0123,-0.234,0.03306194086072652,1.9615538439459588,0.040125740479084786,0.10830910924739427
0.46199999999999997,0.0009,-0.234,0.03325674726002545,1.9628159598131678,0.04040313674176252,0.10841479212739376
0.46299999999999997,0.005,-1.234,0.03300712976406493,1.975535490266132,0.04004769174238049,0.1094798580578958
0.46399999999999997,-0.0016,0.766,0.03285178259061443,1.9755354902661322,0.039826483786749654,0.10947985805789583
0.46499999999999997,0.012,-0.234,0.03476295613984745,1.9755354902661322,0.04254791594603042,0.10947985805789583
0.46599999999999997,0.0098,-1.234,0.039300846371799245,1.9755354902661322,0.04900968411851047,0.10947985805789583
0.46699999999999997,0.0242,-1.234,0.04110699183775533,1.9793401587152541,0.05158156062724754,0.10979844078836694
0.46799999999999997,0.022,0.766,0.04131230459321669,2.024345678561457,0.05187391750694971,0.11356696400940725
0.469,0.0126,0.7659999999998335,0.04132128820563414,2.0366809783356365,0.05188670979980515,0.1145998565034023
0.47,0.0138,-2.233999999999889,0.041496338497548586,2.0329836243591157,0.05213597418194283,0.11429025971695167
0.471,-0.0002,-0.234,0.04471662154989245,2.0329836243591157,0.05672152417773073,0.11429025971695167
0.472,-0.0019,-0.23400000000005552,0.04839426260884841,2.0329836243591157,0.061958333075672334,0.11429025971695167
0.473,0.0062,-1.2339999999999445,0.050244436441323655,2.045266828097519,0.06459290415896225,0.1153187899655773
0.474,0.0078,-0.23400000000005552,0.05058661914120814,2.0538167855770304,0.06508015818368904,0.11603471799863979
0.475,0.0201,-1.2339999999999445,0.05056909125174061,2.0538167855770304,0.06505519919338677,0.11603471799863979
0.476,0.0314,-0.233999999999889,0.05078311000098949,2.0538167855770304,0.06535995304848731,0.11603471799863979
0.477,0.0451,1.7659999999999445,0.050737496777521686,2.0513579423187474,0.06529500170313013,0.1158288275223737
0.478,0.0541,0.766,0.05073187846912701,2.054976504904269,0.06528700146413971,0.1161318267361796
0.479,0.0295,0.7659999999999445,0.050565020300097616,2.0610389237243156,0.0650494023264698,0.11663946149247373
0.48,-0.0247,-0.234,0.05007279046563982,2.0610389237243156,0.06434848738246146,0.11663946149247373
0.481,-0.0478,-1.234,0.04972099346821803,2.0622401544206257,0.06384754299533017,0.1167400461716051
0.482,-0.0547,0.766,0.04970586373685612,2.0586343595477183,0.06382599888307197,0.116438116058248
0.483,-0.0227,0.766,0.0497066027671691,2.0622401544206257,0.06382705123169893,0.1167400461716051
0.484,-0.0053,0.766,0.04966615164678046,2.0622401544206257,0.0637694505078145,0.1167400461716051
0.485,-0.0103,1.766,0.04965755007014624,2.0658851480918985,0.06375720221812764,0.1170452585841642
0.486,-0.0243,2.766,0.04963986474710071,2.0439636650153368,0.06373201904891589,0.11520967000978549
0.487,-0.0199,2.766,0.049517675825315605,2.0439636650153368,0.0635580270734685,0.11520967000978549
0.488,-0.0238,-0.234,0.049392671937208,2.0427516869421027,0.06338002670229986,0.11510818540238661
0.489,-0.0056,-2.234,0.04904887790602457,2.0427516869421027,0.06289047820838793,0.11510818540238661
0.49,0.0243,-3.234,0.04851024747229093,2.059791366449779,0.06212349072840823,0.1165349976717083
0.491,0.0204,-3.234,0.048271123342792814,2.0670380964310473,0.06178298784925456,0.11714180035512008
0.492,0.0025,-1.234,0.04819419171209238,2.064594999241626,0.061673440386158865,0.11693722837103779
0.493,0.006,-0.234,0.048098332963192214,2.065794162130305,0.06153694148886614,0.11703763990293965
0.494,0.0092,1.766,0.0480538628149557,2.065794162130305,0.06147361783540338,0.11703763990293965
0.495,0.0015,0.766,0.04822761068432074,2.077883418648748,0.06172102762165031,0.11804993004136162
0.496,-0.0005,2.766,0.04857764557710581,2.0827355722469734,0.06221946284459381,0.11845622361533772
0.497,-0.0296,5.766,0.04885739395645275,2.124387539248036,0.06261781297682903,0.12194393813084403
0.498,-0.0414,4.766,0.04893118051324316,2.1663818636888195,0.06272288198463977,0.1254603198401944
0.499,-0.0376,7.766,0.0492072586950667,2.2064553773709634,0.06311600590726409,0.1288158630574688
0.5,-0.0278,2.766,0.04982335319325854,2.2177780126813866,0.06399329901400894,0.12976396040722757
0.501,0.0049,0.766,0.05004614909198394,2.216661071101056,0.06431055116726864,0.12967043365103398
0.502,0.0347,-6.234,0.05054136933188577,2.2143830569553953,0.0650157243250577,0.12947968484432945
0.503,0.0916,-7.234,0.05107394771816419,2.24462721874379,0.06577409393954803,0.13201217033477494
0.504,0.1148,-3.234,0.0511655319432239,2.275557819243001,0.06590450609152676,0.13460213455739312
0.505,0.051,-2.234,0.051455072064050686,2.2766458657674633,0.0663167992590082,0.13469324179506129
0.506,-0.0086,0.766,0.05160231864952263,2.2766458657674638,0.06652647231209564,0.13469324179506134
0.507,-0.0161,1.766,0.05169673272702969,2.289744185647944,0.06666091405702228,0.135790025540586
0.508,-0.0654,0.766,0.051595076485274914,2.287538951472697,0.06651615976947257,0.13560537094209124
0.509,-0.0715,3.766,0.052434025806268415,2.299539398468025,0.06771078893492682,0.1366102246426884
0.51,-0.0656,1.766,0.0526461900932879,2.296306255034882,0.06801290211244407,0.1363394983818566
0.511,-0.0604,0.766,0.052702973010562155,2.3039247833890335,0.06809375864021988,0.13697743348650346
0.512,-0.0557,-2.234,0.052723077203734106,2.3039247833890335,0.06812238618053744,0.13697743348650346
0.513,0.0099,-0.234,0.05273580092655274,2.3049994396772258,0.06814050423605275,0.13706741949689796
0.514,0.1139,0.766,0.05305933574200677,2.331906401188291,0.06860120444393127,0.13932046555899433
0.515,0.1832,0.766,0.05402186281361004,2.36064535500301,0.06997180321968907,0.1417269129274344
0.516,0.1206,-1.234,0.056675800318271026,2.3900750050343094,0.07375090055849656,0.1441911955289695
0.517,0.0412,-4.234,0.059494589197977545,2.3931814719916464,0.07776473944326705,0.14445131457445826
0.518,-0.0103,-2.234,0.05967633936619138,2.3931814719916464,0.07802354417239817,0.14445131457445826
0.519,-0.0384,-0.234,0.05963584357093634,2.3952894478721904,0.07796587983335007,0.1446278252798644
0.52,-0.1669,-0.234,0.0598552220250175,2.3973955702577796,0.07827826568665439,0.14480418078344637
0.521,-0.1854,-0.234,0.06064204686795463,2.3900750050343085,0.07939867174927986,0.14419119552896945
0.522,-0.1354,-2.234,0.06122610630283679,2.3932207420736646,0.08023034824964664,0.14445460284257478
0.523,-0.0594,-2.234,0.06140345551314748,2.3942553184006385,0.08048288619658309,0.14454123276986955
0.524,0.0098,-1.234,0.06141240737285102,2.3973563685618586,0.08049563327488603,0.14480089824161846
0.525,0.0472,-0.234,0.061702913020130895,2.3983891609332755,0.08090930131213853,0.14488737878994892
0.526,0.0132,0.766,0.061878765400122396,2.3983891609332755,0.08115970783455351,0.14488737878994892
0.527,0.0032,1.766,0.062097221278305,2.401524007351185,0.08147077997790159,0.14514987418075118
0.528,-0.0063,1.766,0.06239740290850996,2.396323131066839,0.0818982262150018,0.14471438042100138
0.529,-0.0147,0.766,0.06225868464384834,2.405723492068782,0.08170069713833512,0.14550151672879305
0.53,-0.0072,0.766,0.06218836093512767,2.407820487805388,0.08160055908308152,0.14567710801525807
0.531,-0.0004,-1.234,0.062380831393944985,2.410943071102521,0.08187462906304079,0.14593857655745224
0.532,0.0183,1.766,0.06235960489868621,2.4088487936965857,0.08184440341092811,0.14576321288956134
0.533,-0.0113,-1.234,0.06240341233691163,2.407820487805388,0.08190678339272003,0.14567710801525807
0.534,0.0152,-1.234,0.06428750341525015,2.4078204878053877,0.08458965123256751,0.14567710801525804
0.535,0.0013,-1.234,0.06537636983833092,2.4129965832743103,0.08614015202414776,0.14611052676112776
0.536,0.0059,-0.234,0.06548614448126465,2.409915658835208,0.08629646657950214,0.1458525465104673
0.537,0.0179,-0.234,0.065447225208311,2.3974739717266282,0.0862410471430651,0.14481074570608096
0.538,0.028899999999998923,0.766,0.06544232019488898,2.3923035756600903,0.08623406260664047,0.14437780419789908
0.539,0.019199999999998368,2.766,0.06545302979177578,2.39230357566009,0.08624931263005794,0.14437780419789906
0.54,0.0044999999999955145,1.766,0.06547757732215263,2.381810743302728,0.08628426729894467,0.14349919014059387
0.541,-0.03589999999999806,0.766,0.06543231282090411,2.360685166324551,0.0862198125196176,0.14173024651607422
0.542,-0.018399999999998258,0.766,0.06543553243631343,2.3383099629217545,0.08622439711891731,0.13985666581114978
0.543,-0.0026999999999951707,-1.234,0.0657343863825795,2.3361505733782177,0.08664995278895202,0.13967584999864727
0.544,0.04080000000000193,-2.234,0.06633352934965601,2.3361505733782177,0.08750310761587146,0.13967584999864727
0.545,0.05819999999999943,-2.234,0.06656178421648007,2.3329681680856718,0.08782813311412441,0.13940937228025393
0.546,0.053099999999998426,-4.234,0.06661027779857394,2.3351305005298473,0.08789718597114095,0.1395904345156271
0.547,0.03890000000000144,-4.234,0.06667585918400518,2.3190462320338536,0.08799057115399594,0.13824362329052106
0.548,0.051900000000003096,-4.234,0.06678263246731908,2.2468327418661342,0.08814261189727594,0.13219684912816515
0.549,0.07979999999999716,-2.234,0.06685132307580363,2.197372369974923,0.0882404244852774,0.12805530025526515
0.55,0.05430000000000181,-0.234,0.06688267460181668,2.057613731131858,0.08828506776279069,0.11635265405495669
0.551,0.0706000000000003,0.766,0.06689006486294806,2.0515870002395133,0.08829559118925631,0.1158480076162004
0.5519999999999999,0.0734,3.766,0.06692620413309677,2.0540455692986765,0.08834705201657632,0.1160538751324884
0.5529999999999999,0.0328,3.766,0.0668666482199911,1.9567374011717176,0.08826224685732421,0.10790580590816906
0.5539999999999999,-0.0553,0.766,0.06632973241212797,1.8189132283672054,0.08749770093373119,0.09636514162055733
0.5549999999999999,-0.0429,-0.234,0.06534904619730186,1.7897777405375146,0.08610124428840865,0.09392549059957729
0.5559999999999999,0.0369,2.766,0.06517690742212805,1.775728126521572,0.08585612578579793,0.09274905053518817
0.5569999999999999,0.0059,0.766,0.06551665801480862,1.775728126521572,0.08633991659036755,0.09274905053518817
0.5579999999999999,-0.0984,-3.234,0.06567636286729782,1.7686880363483244,0.08656732970087848,0.09215955077189769
0.5589999999999999,-0.0573,-1.234,0.06537101808250996,1.7883409598613829,0.08613253134500765,0.09380518221607127
0.5599999999999999,0.0303,-2.234,0.06511134896077775,1.757343839412678,0.08576277324588691,0.09120964796615008
0.5609999999999999,0.019,-0.234,0.06509939920190956,1.757343839412678,0.08574575728305475,0.09120964796615008
0.5619999999999999,-0.0118,0.766,0.06507144875639562,1.7701407689015385,0.08570595700363043,0.09228119488087493
0.563,-0.0589,3.766,0.0648341416314017,1.7602134390821615,0.08536804146380723,0.09144993300288544
0.564,-0.1017,3.766,0.0649500288299849,1.7644824571888862,0.08553306004581922,0.09180739790766179
0.565,-0.172,3.765999999999778,0.06394692238464943,1.7630783681757343,0.08410467791871554,0.09168982695039804
0.566,-0.1814,1.765999999999667,0.061279959259479794,1.7616731600756963,0.08030703263455738,0.0915721622867416
0.567,-0.0527,-1.234,0.06011358703900087,1.7573973177199316,0.07864616679023,0.09121412595559218
0.568,0.0027,-1.234,0.0599909376493222,1.7068129303821822,0.07847151912752996,0.0869784579985096
0.569,0.0526,-1.234,0.05999145186445742,1.7008887138529356,0.07847225134863375,0.08648239556809596
0.57,0.0982,-1.234,0.05988086563294725,1.7096574030221767,0.07831478112468354,0.08721663903123769
0.571,0.0842,-1.233999999999778,0.05795882283342223,1.7140523405982717,0.0755778716021336,0.08758464776365842
0.572,0.0465,0.766000000000111,0.05610755758363817,1.728603311206528,0.07294174638569623,0.08880306876653268
0.573,0.0121,1.765999999999889,0.05453205137879334,1.7357518412793849,0.07069829065414752,0.0894016487111245
0.574,-0.0605,0.765999999999778,0.054278770904937435,1.76140640140017,0.07033762972560655,0.09154982533192872
0.575,-0.051,-1.234,0.054296341307762085,1.7656193075201285,0.0703626492531726,0.09190259171692729
0.576,0.0607,-1.233999999999778,0.054153396171814416,1.7670213774841488,0.07015910128646027,0.09201999360973932
0.577,0.0759,0.766,0.054817808017921466,1.7670213774841488,0.07110519630003372,0.09201999360973932
0.578,0.0347,-2.234,0.05699969782862328,1.7599464591537604,0.07421211722892261,0.09142757752153181
0.579,-0.0024,-1.234,0.057232504674761556,1.7656725351818148,0.074543624557619,0.09190704871864068
0.58,0.0546,-1.234,0.05722356160083376,1.7642693932892608,0.07453088998989767,0.09178955706822593
0.581,0.0446,0.766,0.05728322387189325,1.7770164500934973,0.07461584659848101,0.09285692790919929
0.582,-0.0595,-0.234,0.057609928842384694,1.7770164500934973,0.07508106097613347,0.09285692790919929
0.583,-0.1563,0.766,0.05868186849825748,1.8447537499937634,0.07660745875066906,0.09852888967026893
0.584,-0.1191,1.766,0.059280495043701746,1.9437981765413432,0.0774598782145241,0.10682234395398088
0.585,-0.0394,-1.234,0.05931272512600056,2.0096117320350637,0.07750577251988401,0.11233322157487864
0.586,-0.0087,-1.234,0.05950618761080295,2.0096117320350637,0.07778125510385284,0.11233322157487864
0.587,-0.0182,-2.234,0.059503243755289446,2.0441016000007073,0.07777706317524963,0.11522121995292889
0.588,-0.0266,-0.234,0.05991042489569438,2.0983604071074287,0.07835687229336728,0.11976456430771867
0.589,-0.0189,-0.234,0.06141124088359965,2.2355731846448004,0.08049397224239455,0.13125403360259782
0.59,0.0023,0.766,0.06273464936794187,2.2355731846448004,0.08237845123730284,0.13125403360259782
0.591,0.0214,-0.234,0.06318361101444511,2.24560470103289,0.0830177540696217,0.13209401951054756
0.592,0.0625,0.766,0.06308305252174932,2.24560470103289,0.08287456293137005,0.13209401951054756
0.593,0.089,-0.234,0.06329149969623185,2.247851074805619,0.08317138309423575,0.13228211892045533
0.594,0.0557,-1.234,0.06345053411933481,2.244501607017223,0.0833978415410046,0.1320016522758786
0.595,0.0253,-1.234,0.06331851330961054,2.273297482756415,0.08320984936341189,0.13441286598397872
0.596,0.0294,-0.234,0.06315641983560805,2.2732974827564156,0.08297903495457029,0.13441286598397875
0.597,0.0477,-0.234,0.06293165344104597,2.2567309220429395,0.08265897689666535,0.13302567016989073
0.598,0.051,0.766,0.06284481355980462,2.2776921313265,0.08253532049423493,0.13478085051657096
0.599,0.0425,0.766,0.06268578047556006,2.261157768601027,0.08230886395394509,0.13339635079100443
0.6,0.0292,-2.234,0.06217363915425685,2.289744185647937,0.08157959587546502,0.13579002554058542
0.601,0.0224,-1.234,0.06197828868879099,2.2930275677170595,0.08130142488504785,0.13606495851799175
0.602,0.0203,-0.234,0.06160124137999951,2.2930275677170595,0.08076452509793684,0.13606495851799175
0.603,-0.0358,0.766,0.06118550146241374,2.2788204003194927,0.08017252863478534,0.13487532577014438
0.604,-0.0176,-0.234,0.06118001516094824,2.2545767669600547,0.08016471636820718,0.13284529266332454
0.605,0.0191,-0.234,0.061041114189704725,2.270026963917454,0.07996692712491783,0.13413901010515333
0.606,0.067,0.766,0.06089522387204755,2.2864560886023275,0.07975918534115399,0.13551469775608793
0.607,0.0483,0.766,0.06078235268945405,2.319005705879763,0.07959846144128144,0.1382402298455998
0.608,-0.0161,2.766,0.06079816035773038,2.3340294519776603,0.0796209709076916,0.13949823855720714
0.609,-0.0414,1.766,0.06012876963482053,2.3124674095631312,0.07866778617929153,0.13769274763498499
0.61,-0.0644,1.766,0.05985673299176948,2.310283865477976,0.078280417240872,0.13750990924944487
0.611,-0.0573,-2.234,0.059781988863589826,2.310283865477976,0.0781739846909724,0.13750990924944487
0.612,0.0009,-1.234,0.05976143907006365,2.3135380977389883,0.07814472263416382,0.13778240137672595
0.613,0.0399,-1.234,0.05975032169165639,2.315718573336038,0.07812889194671183,0.13796498282336794
0.614,-0.0092,-0.234,0.05946163283318948,2.286414984795878,0.0777178109416544,0.13551125594162589
0.615,-0.0152,-0.234,0.05858837808094404,2.2589662316441417,0.07647433225969,0.1332128431248334
0.616,-0.0208,-0.234,0.056090412626287195,2.231179819897524,0.07291733267490416,0.13088615657050956
0.617,-0.0156,0.766,0.05318660394438667,2.2255809082843605,0.06878242910505611,0.1304173334461714
0.618,-0.0106,1.766,0.05305339513770771,2.2289166443620543,0.06859274526889114,0.13069665027021896
0.619,0.0115,1.766,0.053199963959121487,2.2266511685287487,0.06880145321396677,0.13050695135520382
0.62,0.0716,-1.234,0.05306239837682211,2.2299853036522017,0.06860556550935201,0.13078613412384543
0.621,0.1147,-2.234,0.05219190618065906,2.2378296282574066,0.0673660205930927,0.13144297620741904
0.622,0.0291,2.766,0.051525164137894645,2.2952275284847485,0.06641660747576915,0.13624917154934313
0.623,-0.0276,3.766,0.0513135253268432,2.3330890168451788,0.0661152425543163,0.13941949151358338
0.624,-0.0172,1.766,0.051412518105431126,2.365076384418669,0.06625620418037788,0.14209794379882723
0.625,-0.0265,0.766,0.05114167465489929,2.3672093877261147,0.06587053429879977,0.1422765501680489
0.626,-0.0863,0.766,0.05088855255682367,2.3861630846491626,0.0655100988908254,0.1438636320909587
0.627,-0.1564,0.766,0.050552951152932867,2.4049674109530406,0.0650322163596368,0.14543820651148195
0.628,-0.0521,-2.234,0.05002120040089962,2.4143341151447557,0.06427502526211153,0.14622252457672638
0.629,-0.0106,-0.234,0.049915520064567155,2.403937444765993,0.0641245408301696,0.14535196261282154
0.63,0.0269,-2.234,0.04991858737175794,2.403937444765993,0.0641289085488599,0.14535196261282154
0.631,0.0611,-1.234,0.049649044626643137,2.4070260211602226,0.06374509081804701,0.1456105835975671
0.632,0.113,-5.234,0.04953099797755683,2.4215037239985104,0.06357699726775287,0.1468228695464875
0.633,0.0846,-6.234,0.04922794818645542,2.4276709629055775,0.06314546688805624,0.1473392813802005
0.634,0.0247,-5.234,0.04675201103672091,2.44202627400508,0.05961983469921104,0.148541318894901
0.635,0.0478,-1.234,0.045387611913184335,2.451213032832776,0.05767698672793337,0.14931056929099856
0.636,-0.0015,3.766,0.04523808003560504,2.454242115302322,0.05746405951331948,0.1495642085704456
0.637,-0.0722,4.766,0.045230818471225495,2.457267463813815,0.05745371934571037,0.1498175351880752
0.638,-0.1382,7.766,0.04521571650810148,2.4531562172659243,0.05743221477427547,0.14947328123575795
0.639,-0.1298,2.766,0.045194594383096066,2.4531562172659247,0.05740213774109073,0.14947328123575798
0.64,-0.0755,2.766,0.04517945741584765,2.456221166123347,0.05738058332522915,0.1497299237760501
0.641,0.0025,0.766,0.04519616366930698,2.456221166123347,0.05740437233980795,0.1497299237760501
0.642,0.0543,-1.234,0.04517580279965316,2.4572292172913897,0.05737537930278675,0.14981433262740318
0.643,0.0448,-0.234,0.0447881413805396,2.4623014510227184,0.05682336546118068,0.15023905454294548
0.644,0.002,-4.234,0.04396195492341908,2.4905301590828137,0.055646910086485715,0.15260277664165625
0.645,-0.037,-2.234,0.04360611694771523,2.5154533428969947,0.055140211513264856,0.1546897116946667
0.646,-0.002,-3.234,0.043636542795590934,2.540131998003698,0.05518353666336205,0.15675617121233187
0.647,-0.021,-5.234,0.04374940055378023,2.5548247680568297,0.055344241447437756,0.1579864657476655
0.648,-0.0269,-3.234,0.04354770315315018,2.598440809883343,0.05505703268361919,0.16163864145843998
0.649,-0.0006,-4.234,0.043288361686409094,2.603237916876849,0.05468774115166623,0.16204032572207297
0.65,0.0231,-1.234,0.04310556842287383,2.602286425908416,0.0544274510979009,0.16196065292146086
0.651,0.0185,0.766,0.043010376361407476,2.5955438065779806,0.0542919015359646,0.16139606178676866
0.652,-0.0177,2.766,0.04295266765304766,2.5926435661817138,0.054209726719939136,0.16115321105829622
0.653,-0.0321,1.766,0.042904025746773614,2.595543806577982,0.05414046265541918,0.16139606178676877
0.654,-0.0368,2.766,0.04275601896965201,2.614772574101397,0.05392970712083579,0.16300617666093545
0.655,0.0067,2.766,0.04272435771286063,2.649004261355645,0.05388462279949308,0.16587255635733408
0.656,0.0006,4.766,0.042801936653247545,2.6687758520501497,0.05399509200483375,0.167528124361076
0.657,-0.0153,2.766,0.04232713223572097,2.677219737020412,0.053318990134470404,0.16823517044553338
0.658,-0.0396,0.766,0.04216930887176982,2.6791042349067724,0.0530942561858895,0.16839296829053152
0.659,-0.0005,0.766,0.04215534733273017,2.684749791899923,0.053074375531225355,0.16886569725127007
0.66,-0.006,-2.234,0.0421615998990036,2.681981061997329,0.05308327892722588,0.16863385851312485
0.661,-0.0112,-1.234,0.04202131941750225,2.6857420537571803,0.05288352531833443,0.1689487839895903
0.662,0.0014,-1.234,0.04173456664366221,2.6792094708547816,0.05247520121778143,0.1684017801899411
0.663,-0.002999999999999645,0.766,0.04178264701316305,2.6792094708547816,0.052543665677140555,0.1684017801899411
0.664,0.00020000000000325297,-1.234,0.04159009446194368,2.6763998950299035,0.052269478800993044,0.16816652123118428
0.665,0.029500000000000408,-1.234,0.04172593053209377,2.677325047041206,0.052462903751775314,0.16824398854740463
0.666,0.03320000000000037,0.766,0.04198148301289125,2.6782498794758336,0.05282679992431566,0.16832142910397135
0.667,0.03650000000000032,1.766,0.04193963573441908,2.683827199301132,0.05276721112901329,0.1687884442466612
0.668,0.039399999999999644,0.766,0.04191753162238213,2.683827199301132,0.05273573578687399,0.1687884442466612
0.669,0.03619999999999848,1.766,0.0419055971043384,2.681057516636709,0.05271874152634608,0.16855652572930022
0.67,0.022499999999995902,-2.234,0.041900426473690376,2.684819802132299,0.05271137876196764,0.1688715595363258
0.671,-0.01439999999999829,-5.234,0.04128455208158075,2.684819802132299,0.05183439907718849,0.1688715595363258
0.672,0.0010000000000036638,-4.234,0.03965901661797791,2.6950518289123115,0.04951970374851179,0.1697283351196443
0.673,0.03399999999999947,-4.234,0.03961635220779948,2.683932250063536,0.04945895139142579,0.16879724063961168
0.674,0.02919999999999687,-1.234,0.039572679248394214,2.6605877688850095,0.04939676290191674,0.16684249776129254
0.675,0.000999999999997946,-3.234,0.039577266478377324,2.657793868558311,0.049403294927856015,0.1666085513855054
0.676,-0.0175000000000004,-3.234,0.039531175593145645,2.6568619155590363,0.04933766341188535,0.1665305145906703
0.677,-0.021099999999999078,-2.234,0.03858205692263689,2.6568619155590363,0.04798615764521496,0.1665305145906703
0.678,-0.012799999999997936,-0.234,0.03541648310306644,2.6568619155590363,0.043478511336163886,0.1665305145906703
0.6789999999999999,0.0058,-1.234,0.03504783270202948,2.648353123460388,0.04295356839871251,0.16581803352798424
0.6799999999999999,0.0176,1.766,0.03503272999711354,2.648353123460388,0.04293206277099657,0.16581803352798424
0.6809999999999999,0.0287,2.766,0.034931780516126915,2.638878603751721,0.04278831488157546,0.16502468756392633
0.6819999999999999,0.0228,1.766,0.034635410362729505,2.6369653589182533,0.042366296029948736,0.16486448260224387
0.6829999999999999,0.0246,2.766,0.03319216176365077,2.5842506362823006,0.040311169663771254,0.16045043168086456
0.6839999999999999,0.0395,2.766,0.03248382228776018,2.5076023224415387,0.039302523520593755,0.15403230893615272
0.6849999999999999,0.0134,1.766,0.03271398953846145,2.4581986236472106,0.03963027217446302,0.14989550556741185
0.6859999999999999,0.0025,1.766,0.03237149237123925,2.4561446398975124,0.03914257036124197,0.14972351587630667
0.6869999999999999,-0.0139,1.766,0.03237139391895286,2.428536074243683,0.039142430169254464,0.1474117212093054
0.688,-0.0227,-0.23400000000011104,0.031621412718542574,2.388080491882248,0.03807448793110889,0.1440241855898798
0.689,-0.0148,-1.233999999999778,0.02847652892550179,2.260145431144137,0.03359630336486856,0.13331158302858648
0.69,-0.0127,0.766,0.025420523138707036,2.2468745697811516,0.02924467740684451,0.13220035157563312
0.691,0.0166,0.766000000000111,0.024291931925508402,2.2312640618118227,0.027637610155671507,0.13089321054102926
0.692,0.0208,1.766000000000222,0.024391093091955206,2.2312640618118227,0.02777881155908588,0.13089321054102926
0.693,0.0247,3.766,0.023921655085057707,2.2345913142513005,0.027110351235703833,0.1311718169902667
0.694,0.0021,3.766,0.023514684768563582,2.2345913142513005,0.026530842322123348,0.1311718169902667
0.695,-0.0304,3.765999999999889,0.023556930270137465,2.1939030013471053,0.026590998170666902,0.12776479375115282
0.696,-0.0433,2.766000000000222,0.02328853514266303,2.1835909432662057,0.02620881459995125,0.12690131677172037
0.697,-0.0232,4.765999999999667,0.023308987142914288,2.1766459206547397,0.02623793740317743,0.12631977746117806
0.698,-0.0193,1.765999999999778,0.023481531596973,2.130120076213518,0.0264836335757565,0.12242395033254096
0.699,-0.0157,-0.23400000000011104,0.023405563662573837,2.112386467026923,0.026375458376371296,0.12093903207715997
0.7,-0.0067,-1.233999999999889,0.023507131810488455,2.0704930893555495,0.026520087221932893,0.11743110311418187
0.701,-0.0038,-0.23400000000011104,0.02347145470497463,2.066856222011393,0.026469284497955083,0.11712657115709897
0.702,-0.0013,-1.234000000000222,0.023398862123939494,2.0656576756735583,0.026365915662281577,0.11702621125189051
0.703,0.0012,-3.234000000000111,0.02333308318655447,2.0596544822077525,0.02627224917360777,0.11652353571223234
0.704,0.0056,-4.234,0.02311503956375724,2.064549478333228,0.025961764064892968,0.11693341669191651
0.705,0.032,-3.234,0.022865613201299782,2.0500128074949977,0.025606591231721144,0.1157161930758424
0.706,0.0215,-2.234,0.022855955625249193,2.035372318103261,0.0255928392425021,0.11449027624544698
0.707,0.0317,-1.234,0.02294345112695442,1.980638390950897,0.02571742922138108,0.10990714786125583
0.708,0.0115,-3.234,0.02289621675160684,1.96291171908273,0.02565016942273745,0.108422810500078
0.709,0.0417,-1.234,0.022603477005768802,1.9654812128626613,0.02523332012145708,0.10863796626339503
0.71,0.0541,-2.234,0.022642740537423028,1.9769313012650989,0.025289229768058055,0.10959673585821376
0.711,0.0292,-1.234,0.022639566710268625,1.9642208095623968,0.02528471036934125,0.10853242678465655
0.712,0.0199,-1.234,0.022635513610465903,1.9642208095623968,0.02527893892270715,0.10853242678465655
0.713,-0.0003,-0.234,0.022985118904340254,1.9679995977927227,0.02577676241455397,0.10884884244304781
0.714,-0.035,0.766,0.023402021938258015,1.9679995977927227,0.026370415107299133,0.10884884244304781
0.715,-0.0488,0.766,0.023617969238075548,1.965433396406136,0.026677915138716545,0.10863396236726452
0.716,-0.0088,1.766,0.023693340069566773,1.9743291079023373,0.026785240088234744,0.10937884200548824
0.717,0.0071,0.766,0.023529790396381544,1.9743291079023373,0.02655235211193099,0.10937884200548824
0.718,0.0028,-1.234,0.023292425199848348,1.9705624572989504,0.026214353880635526,0.10906344268751755
0.719,-0.0098,-2.234,0.023096576247097773,1.9693053061214143,0.02593547306492375,0.10895817552426529
0.72,-0.0054,-1.234,0.023028152314179894,1.9629595969657239,0.025838040211909476,0.10842681953973476
0.721,0.0059,-3.234,0.02297588102909351,1.9501580443943711,0.025763608061936435,0.10735488551263384
0.722,0.0226,-1.234,0.022933383234306225,1.8782655416917704,0.025703092958282433,0.10133498913593836
0.723,0.02,-1.234,0.022944806415757375,1.83102334559046,0.02571935909663231,0.09737917852361526
0.724,0.0179,-1.234,0.022856637420015275,1.785358653125932,0.025593810090075407,0.0935554596881854
0.725,-0.0183,-0.234,0.02266871990105493,1.785358653125932,0.02532622330833276,0.0935554596881854
0.726,-0.0024,0.766,0.022707797347008445,1.7570764234614622,0.025381867976585485,0.09118725597456157
0.727,0.0312,0.766,0.022697782268778815,1.7283314483850039,0.025367606919036438,0.08878030441764054
0.728,0.0098,0.766,0.02267475269684108,1.7152226163594528,0.025334813760240906,0.0876826404409145
0.729,-0.0019,-0.234,0.022694373381704935,1.7152226163594528,0.02536275280470761,0.0876826404409145
0.73,-0.0053,-0.234,0.022686538950993828,1.710830685096888,0.02535159689911472,0.08731488344122317
0.731,-0.0413,0.766,0.022618167435167022,1.7020680404357653,0.02525423868587212,0.0865811461130907
0.732,-0.0551,-0.234,0.02259073701420797,1.688811003302242,0.025215178899925143,0.08547107222769616
0.733,-0.0505,-0.234,0.022539657601035573,1.6814070284962548,0.025142443926306268,0.08485110269774272
0.734,-0.0462,1.766,0.022421917766453654,1.6604889571088284,0.02497478726718799,0.08309953448939225
0.735,0.0083,0.766,0.022074295544821244,1.6468972546222318,0.024479787588267823,0.08196143750463913
0.736,0.0009,0.766,0.022173188195429298,1.6468972546222318,0.024620606636223608,0.08196143750463913
0.737,-0.0199,1.766,0.02236477727482133,1.6393039858074292,0.024893421568302234,0.08132561749967147
0.738,0.0122,0.766,0.022352347072308692,1.639303985807429,0.024875721473573607,0.08132561749967145
0.739,0.0181,-1.234,0.022265510280145572,1.640813995333488,0.02475206946986294,0.0814520576781738
0.74,-0.0082,0.766,0.022258761253366482,1.63773520023186,0.02474245913461744,0.08119425572692518
0.741,-0.0223,0.766,0.022537072993027655,1.6362223494013184,0.025138763551305943,0.08106757763267476
0.742,-0.0266,1.766,0.02263941855415861,1.6393039858074303,0.025284499401162796,0.08132561749967157
0.743,0.0094,-0.234,0.02273780774007705,1.6393039858074276,0.02542460153620509,0.08132561749967133
0.744,0.0141,-0.234,0.022608943716982306,1.6117070147813455,0.02524110449232591,0.07901479370522202
0.745,0.0098,0.766,0.022807735226182478,1.572524866100627,0.025524175386827573,0.07573388865939354
0.746,-0.0101,2.766,0.023199802793880304,1.527423456973318,0.026082463401943753,0.07195733617919277
0.747,-0.0354,2.766,0.022925882424192183,1.5043657793622098,0.025692412114633665,0.07002660870848111
0.748,-0.0191,1.766,0.022824504853786096,1.4329683673156846,0.025548054643569046,0.06404816859404672
0.749,-0.022,0.766,0.022785593697089476,1.439995244483434,0.02549264676434662,0.06463656197042711
0.75,-0.0195,-0.234,0.022877770214574468,1.4399952444834339,0.025623902316263835,0.06463656197042708
0.751,0.0027,-0.234,0.022916494358913797,1.4399952444834347,0.02567904389761733,0.06463656197042716
0.752,-0.0002,-2.234,0.022914084506501987,1.4399952444834345,0.025675612367364493,0.06463656197042714
0.753,-0.0028,-2.234,0.023263200153645913,1.4521133890770308,0.026172738622500705,0.0656512710428465
0.754,0.0138,-1.234,0.023697226722424733,1.4207530797197006,0.02679077452129754,0.0630253252825049
0.755,-0.0019,-1.234,0.02389174808254051,1.3613957329620858,0.027067764899957058,0.05805505629417135
0.756,-0.0202,0.766,0.023697784563250324,1.3222168392218185,0.026791568863581697,0.05477442379977023
0.757,-0.0037,0.766,0.02381810321995995,1.308896626674489,0.02696289765884597,0.05365905994072931
0.758,-0.0151,-1.234,0.023691666963051965,1.3031359824354392,0.026782857653694914,0.05317669418521315
0.759,-0.0135,-2.234,0.023722960881185796,1.262149918556563,0.026827418899968695,0.04974473886074605
0.76,-0.0046,-0.234,0.023391143684828426,1.2680226516536286,0.026354924923934066,0.05023649034196198
0.761,0.01,-1.234,0.022762899878589482,1.248113562101999,0.025460331704572195,0.048569408914139814
0.762,0.0398,1.766,0.02262004573627214,1.254052029262463,0.02525691330902936,0.04906666461673075
0.763,0.0439,0.766,0.02263256917955476,1.254052029262463,0.025274746174761484,0.04906666461673075
0.764,0.0317,0.766,0.02271413689229492,1.260037095763128,0.02539089522710638,0.04956782230059492
0.765,0.035,-2.234,0.02247127293108775,1.2580701384664763,0.025045066982138906,0.04940311974249634
0.766,0.0183,0.766,0.02206814574570177,1.2620754551550455,0.024471030528447915,0.049738503690955865
0.767,0.0151,-1.234,0.022055004582167782,1.2501713625373818,0.02445231805460371,0.04874171819423496
0.768,-0.0258,-0.234,0.022095147561302108,1.2501713625373805,0.024509479998075213,0.04874171819423485
0.769,-0.0319,0.766,0.022099918689525738,1.2501713625373783,0.024516273887509824,0.04874171819423466
0.77,-0.0167,-0.234,0.022080998105823837,1.2319851719492911,0.02448933175816768,0.04721890317581747
0.771,-0.0029,-0.234,0.022101853220979125,1.2258631543940965,0.024519028580359408,0.04670627793795315
0.772,-0.0075,0.766,0.02209702410936748,1.1842940981418104,0.024512152124976296,0.04322550592823515
0.773,-0.0278,-1.234,0.022041772634629236,1.177924242169947,0.02443347630808845,0.04269212801755483
0.774,-0.0028,-1.234,0.022079410424463947,1.1736317732099293,0.024487070965518457,0.0423326994628642
0.775,0.0132,0.766,0.022386495753610933,1.1672037304969531,0.02492434778463272,0.041794449303495504
0.776,0.0158,0.766,0.02235956764814077,1.1736317732099295,0.02488600327518489,0.042332699462864214
0.777,0.0181,0.766,0.022379776473098842,1.1779242421699476,0.02491477980684223,0.042692128017554884
0.778,0.0156,-0.234,0.0222775740215134,1.196932116745676,0.024769247739064512,0.04428374648937878
0.779,-0.0004,-0.234,0.022419259330474773,1.2156428192125013,0.024971001764207783,0.04585048134699551
0.78,-0.0026,-0.234,0.022437324705875124,1.2218160477358297,0.02499672611226802,0.04636739471936519
0.781,-0.0268,1.766,0.022466629277189086,1.2641105277270737,0.025038454610875466,0.04990890986047459
0.782,-0.0174,0.766,0.02210891181782839,1.2621499185565481,0.02452907973059257,0.0497447388607448
0.783,0.009,0.766,0.021543791719484645,1.2680967658322375,0.02372437206283222,0.05024269626968042
0.784,0.005,1.766,0.021331093266330217,1.2740158547349636,0.023421498254811993,0.05073832933988052
0.785,-0.0251,1.766,0.021353654922498765,1.2641848712581318,0.023453625120887743,0.049915134992949105
0.786,-0.0295,0.766,0.02148477427248789,1.2641848712581318,0.023640333657068354,0.049915134992949105
0.787,-0.0117,1.766,0.021510481044967552,1.2622243775651851,0.023676939038806466,0.0497509736626985
0.788,0.010800000000000289,0.766,0.02155568375497369,1.256324540525042,0.023741305829957756,0.0492569526412302
0.789,0.013400000000002655,0.766,0.021747575511691833,1.2603354046955981,0.02401455176204132,0.049592801106370286
0.79,0.03729999999999887,-0.234,0.02251199980094745,1.2603354046955981,0.025103060361875408,0.049592801106370286
0.791,0.027100000000000277,-1.234,0.02303079359800949,1.2701961823778787,0.025841801290937876,0.05041849026183786
0.792,0.02959999999999605,1.766,0.023248018774284396,1.270196182377879,0.0261511209656253,0.050418490261837874
0.793,-0.006000000000002698,-2.234,0.023100440564933104,1.2583689136859257,0.025940975693837263,0.04942813759266703
0.794,-0.030300000000002443,-1.234,0.023312978426881435,1.287769913892019,0.026243620826616066,0.05189002120999005
0.795,-0.052299999999996925,-0.234,0.024285953243384905,1.2993295847942887,0.02762909675938286,0.052857966661384786
0.796,-0.02459999999999638,0.766,0.027170252681907578,1.3259575365440401,0.03173621997283521,0.05508764992780627
0.797,0.007999999999997568,-1.234,0.028109368889411113,1.3088966266744748,0.03307348264551481,0.05365905994072812
0.798,-0.013900000000001331,-2.234,0.030247711236023496,1.2916103785281763,0.0361183937850386,0.05221160132306065
0.799,-0.02589999999999879,-0.234,0.03178690450555474,1.2819143343155106,0.03831014139724884,0.05139970607348835
0.8,-0.01499999999999819,-1.234,0.0321278209243857,1.279980996392313,0.03879559229008153,0.051237818623180345
0.801,0.0013000000000042964,-0.234,0.0320768791965345,1.279980996392313,0.03872305337467052,0.051237818623180345
0.802,0.040000000000000556,-2.234,0.032155590381554314,1.2819143343155106,0.038835134849581045,0.05139970607348835
0.803,0.04499999999999842,-1.234,0.03238486130642678,1.2622243775651851,0.03916160717250869,0.0497509736626985
0.804,0.030799999999997735,-1.234,0.03256248871708941,1.2482641502173888,0.03941454126525031,0.04858201836319403
0.805,0.010400000000002409,-0.234,0.03255678408054045,1.244214373616613,0.039406418098535505,0.048242911577799634
0.806,0.03209999999999868,-1.234,0.032788287359776326,1.2381528245383526,0.03973606920182977,0.047735349649063764
0.807,0.02019999999999961,-0.234,0.03355394469960104,1.2361510455903761,0.04082633361472128,0.04756773131081063
0.8079999999999999,0.0167,-0.234,0.03400041885254409,1.2402271520644674,0.04146209435900035,0.04790904281996636
0.8089999999999999,0.0136,1.766,0.03399658500300423,1.2542768352001958,0.04145663511568056,0.04908548867207927
0.8099999999999999,-0.0069,-0.234,0.033993300375967844,1.2341460197707805,0.04145195794251036,0.04739984109677128
0.8109999999999999,-0.0148,1.766,0.03418440742506245,1.2361510455903761,0.04172408648336424,0.04756773131081063
0.8119999999999999,-0.0216,-1.234,0.03565828237933533,1.2320614539504193,0.04382282351377489,0.04722529062548101
0.813,-0.0194,-1.233999999999889,0.037145507233356516,1.2218929645890841,0.04594057024977339,0.046373835328174275
0.814,0.0106,-0.23400000000011104,0.03704202930642216,1.2218929645890844,0.04579322195780489,0.04637383532817429
0.815,0.0237,-1.233999999999889,0.03710118388886903,1.2198645037520277,0.04587745563878291,0.04620398279022913
0.816,0.0039,-0.233999999999889,0.037044957691793744,1.2054137948904935,0.04579739185756527,0.044993957173565156
0.817,0.015,0.765999999999778,0.03718277592541689,1.2239948483216503,0.045993639327224854,0.046549835909462316
0.818,0.0053,-1.233999999999778,0.037267037409343555,1.22399484832165,0.04611362419842547,0.0465498359094623
0.819,-0.0032,0.765999999999889,0.037183252722001986,1.230126163984743,0.045994318265859514,0.047063239721502545
0.82,-0.0111,-0.233999999999889,0.037129628223111374,1.2701961823778787,0.045917959195347684,0.05041849026183786
0.821,-0.0041,0.765999999999889,0.037099920246658265,1.2701961823778787,0.04587565626449188,0.05041849026183786
0.822,0.0164,-0.233999999999889,0.03716932192099356,1.2701961823778787,0.04597448138088164,0.05041849026183786
0.823,-0.0241,0.765999999999889,0.03717672962028551,1.2878428916342928,0.04598502963856734,0.05189613197856506
0.824,-0.0413,-0.23400000000011104,0.03710355279671797,1.2878428916342926,0.045880828865670166,0.05189613197856504
0.825,-0.0146,-1.234,0.037105943533829705,1.281987645389415,0.045884233176525596,0.05140584475348388
0.826,0.0096,-1.234000000000111,0.03715291575630406,1.2800544181920457,0.04595111968031062,0.0512439665747687
0.827,0.0228,-2.234,0.037694979141980736,1.2800544181920457,0.04672299554199839,0.0512439665747687
0.828,0.0269,-2.233999999999889,0.03782400312582439,1.2897644447460541,0.046906720363374,0.052057032631349004
0.829,0.009,-1.234000000000222,0.03784705093256286,1.2916831392912185,0.046939539487772276,0.05221769392294711
0.83,0.0124,-3.233999999999667,0.037848511166033584,1.2935989879894534,0.046941618799893815,0.05237811691843679
0.831,0.0097,-0.23400000000011104,0.03788338659160419,1.2935989879894534,0.04699127996476005,0.05237811691843679
0.832,0.0233,-1.234,0.0378067461788705,1.2878428916342928,0.04688214718401509,0.05189613197856506
0.833,0.0401,-1.234,0.03777483231827152,1.2974946331030033,0.04683670316528863,0.0527043175516372
0.834,0.0469,0.766,0.037774270713003655,1.2974946331030033,0.046835903462594225,0.0527043175516372
0.835,0.025,0.766,0.03807240849942484,1.2859184671412323,0.04726043935060345,0.05173499089156017
0.836,0.0104,-0.234,0.038128869744109554,1.274237138580812,0.04734083782990413,0.050756858473959415
0.837,0.024,-1.234,0.038060534139618525,1.2781917956794961,0.04724353075291972,0.05108800045739993
0.838,0.0312,-1.234,0.03804722709169477,1.272366000154049,0.04722458206655928,0.0506001792791599
0.839,0.0608,-1.234,0.03804386896533652,1.2821342549616768,0.04721980023339194,0.0514181210604654
0.84,0.0491,1.766,0.03802477813287612,1.280201249158902,0.047192615676852824,0.05125626142015782
0.841,0.0385,0.766,0.037907364321077656,1.2821342549616768,0.04702542326070605,0.0514181210604654
0.842,-0.004,-0.234,0.037940432718379664,1.276252818662609,0.04707251129198906,0.05092564081933391
0.843,-0.033,2.766,0.038091800422571015,1.2704181315416956,0.04728805264783723,0.05043707510611013
0.844,-0.0697,1.766,0.038097116634539345,1.2505471793363632,0.047295622713999966,0.04877318709713083
0.845,-0.1224,2.766,0.0380183707031572,1.2445164752401852,0.0471834917617053,0.04826820796338604
0.846,-0.0729,1.766,0.037723836568617705,1.2445164752401852,0.046764087325063014,0.04826820796338604
0.847,-0.1173,1.766,0.03780575951405268,1.2425249485407261,0.046880742214086155,0.04810144809397712
0.848,-0.0997,0.766,0.037921144436656895,1.278265320248458,0.04704504557585948,0.051094157014337754
0.849,-0.0517,-0.234,0.03799068481481127,1.2604845326874323,0.047144068200756,0.049605288292432236
0.85,-0.007,-0.234,0.037975395054416015,1.2604845326874323,0.04712229621376715,0.049605288292432236
0.851,0.0225,0.766,0.037947284717373235,1.2663649889895943,0.047082268255412896,0.050097686473827306
0.852,0.0383,-0.234,0.03813811728214841,1.2683190823829529,0.04735400594193833,0.05026131187698049
0.853,0.0339,-1.234,0.038744809982302904,1.2484147201683327,0.04821791127678556,0.04859462629125401
0.854,0.0124,0.766,0.03860961934160621,1.2484147201683327,0.048025405390874056,0.04859462629125401
0.855,-0.0391,-0.234,0.0385070709265533,1.2484147201683327,0.0478793806854148,0.04859462629125401
0.856,-0.0742,-0.234,0.03872393343012579,1.2503968661713354,0.0481881839291606,0.04876060067095975
0.857,-0.0552,-1.234,0.039013347177514465,1.2443654335962635,0.04860029714608827,0.04825556053826112
0.858,-0.0142,-2.234,0.03918126278687505,1.2643335452059226,0.048839402035093515,0.04992758415977414
0.859,0.0123,-0.234,0.03924048887248329,1.2702701697414043,0.04892373753361863,0.05042468557073469
0.86,0.0362,0.766,0.03924227489604892,1.2702701697414043,0.0489262807573728,0.05042468557073469
0.861,0.1018,0.766,0.03949981248977683,1.2722182648952092,0.04929300364869587,0.0505878087131625
0.862,0.1113,0.766,0.03947371590660524,1.2722182648952092,0.049255843192640474,0.0505878087131625
0.863,0.0341,0.766,0.03982740466051581,1.2682449811961478,0.04975948136283933,0.05025510703712671
0.864,-0.0383,-0.234,0.039788650204396946,1.2622988321817226,0.04970429661876433,0.0497572080968811
0.865,-0.0288,-1.234,0.03984682750273186,1.2642592104174921,0.04978713868755094,0.04992135975936085
0.866,-0.0371,-2.234,0.039816296488644695,1.260260834082256,0.04974366378511437,0.049586556959231295
0.867,-0.0295,-1.234,0.03983500589212946,1.2602608340822563,0.04977030520255384,0.04958655695923131
0.868,0.0056,-1.234,0.0398063439198028,1.2602608340822576,0.049729491738350395,0.04958655695923142
0.869,0.0245,-3.234,0.04001251115057838,1.2740896202872045,0.050023065355590805,0.05074450607547835
0.87,0.0071,-0.234,0.040276437485477365,1.2780447338522052,0.05039888555034154,0.05107568628098405
0.871,0.0227,-0.234,0.040282042682470015,1.2799809963923194,0.050406867119237274,0.051237818623180886
0.872,-0.0106,-2.234,0.04028988170187846,1.2839179616818341,0.050418029558945546,0.05156747918847747
0.873,-0.015,-1.234,0.040423361055224864,1.2858453801788754,0.05060809864238524,0.051728870977475444
0.874,0.0048,-0.234,0.0404868954115385,1.283917961681835,0.050698568940365514,0.051567479188477545
0.875,0.0228,-0.234,0.04038578747701772,1.2839179616818348,0.050554595419659495,0.051567479188477525
0.876,0.0655,0.766,0.04038663200065087,1.2799809963923208,0.05055579798641511,0.051237818623181
0.877,0.036,1.766,0.04045865944961568,1.2799809963923197,0.05065836209737325,0.05123781862318091
0.878,0.0204,0.766,0.04051865577819251,1.2720705124787528,0.05074379439005713,0.05057543671047742
0.879,-0.0035,0.766,0.04051776009342406,1.2542019043648127,0.05074251897195895,0.04907921436185959
0.88,-0.0166,-0.234,0.04054044105251841,1.2542019043648105,0.05077481572047113,0.0490792143618594
0.881,0.0112,-1.234,0.040922230009898856,1.2238412739824314,0.05131846741923516,0.04653697640988359
0.882,0.0073,1.766,0.041024368764167006,1.2359989816740065,0.0514639087846652,0.047554998286019896
0.883,-0.0091,0.766,0.04095824394960524,1.2298969436897147,0.05136974978118428,0.04704404603131744
0.884,-0.048,-0.234,0.04076005349276071,1.2359229426997715,0.051087534760399955,0.04754863118613776
0.885,-0.0326,-0.234,0.040490947265565035,1.2339175462297074,0.05070433861306581,0.04738070993579658
0.886,-0.0186,-1.234,0.04042260550159717,1.2339175462297074,0.05060702276524091,0.04738070993579658
0.887,-0.0058,-1.234,0.04054934513067696,1.2339175462297074,0.050787494759828467,0.04738070993579658
0.888,-0.0099,1.766,0.0406688861881427,1.239924005368032,0.05095771628590193,0.04788365892552847
0.889,-0.0064,-0.234,0.04056836031654602,1.2459015078577669,0.05081457159874743,0.04838418323928756
0.89,-0.0228,0.766,0.04014636982421759,1.2398482071126193,0.05021367457545292,0.047877311982162114
0.891,-0.0317,-0.234,0.039864890591402455,1.2297441064230616,0.0498128597794025,0.04703124825028101
0.892,-0.0453,-1.234,0.03971432568899886,1.2277286173597706,0.04959846158012617,0.04686248189978176
0.893,-0.0088,-0.234,0.039712593931415616,1.227728617359771,0.04959599562888851,0.0468624818997818
0.894,0.0174,-0.234,0.039577324477057675,1.2031232357043262,0.049403377515580174,0.04480215791179156
0.895,0.0219,-0.234,0.038981994124617,1.192708057696236,0.04855565169435468,0.04393004621729531
0.896,0.0347,-0.234,0.037030001740468235,1.163033315127855,0.04577609520089785,0.04144524086831828
0.897,0.0305,-3.234,0.03637751167649742,1.1630333151278516,0.04484697631244632,0.041445240868318
0.898,0.0266,0.766,0.03447712226437894,1.1501045488567723,0.04214090031878713,0.040362654641595955
0.899,0.0232,-0.234,0.03311035055208755,1.1479492427380746,0.040194673879164346,0.04018218075340361
0.9,0.0024,1.766,0.0329334680818902,1.1479492427380746,0.039942800550862335,0.04018218075340361
0.901,-0.0383,0.766,0.03310112022957487,1.1501045488567714,0.04018153028132802,0.040362654641595885
0.902,-0.0794,-0.234,0.03340833072322709,1.1479492427380735,0.0406189853295256,0.04018218075340351
0.903,-0.0317,-1.234,0.033228968212678005,1.1501045488567696,0.04036358052624465,0.04036265464159573
0.904,0.0128,-1.234,0.033371496789704594,1.1501045488567672,0.04056653533026668,0.04036265464159553
0.905,0.0421,0.766,0.03334929677108404,1.1501045488567658,0.04053492342111544,0.04036265464159542
0.906,0.0572,-0.234,0.03313864661727959,1.1566276254278651,0.040234966306728355,0.04090886243154689
0.907,0.0414,-2.234,0.03234865287823055,1.1566276254278653,0.03911004786698681,0.04090886243154691
0.908,0.0272,-1.234,0.03189723470096659,1.1716801843953695,0.038467247036375135,0.04216928377983856
0.909,0.0141,1.766,0.03191184026619314,1.1522558234607134,0.03848804475771654,0.04054279095215277
0.91,-0.0457,0.766,0.03205402047885864,1.1522558234607132,0.03869050350528374,0.040542790952152755
0.911,-0.003,1.766,0.03196931186661071,1.1522558234607132,0.038569881941830184,0.040542790952152755
0.912,-0.0573,0.766,0.030336342434288333,1.1630333151278371,0.036244600948888435,0.041445240868316795
0.913,-0.007999999999996458,-0.234,0.02821567894092293,1.1630333151278371,0.03322486376585062,0.041445240868316795
0.914,0.023899999999999335,0.766,0.02800692788763024,1.1609020125312586,0.03292761089211634,0.04126677690759115
0.915,0.017899999999999423,0.766,0.027749096058042204,1.1630333151278371,0.03256046902108706,0.041445240868316795
0.916,0.012699999999998423,-0.234,0.0276012684773825,1.2011413211196282,0.03234996865486054,0.044636202909825666
0.917,-0.0015000000000043965,0.766,0.02744985983541381,1.2011413211196282,0.0321343690053091,0.044636202909825666
0.918,-0.041100000000000574,-2.234,0.02730107375396135,1.2011413211196282,0.031922503773561525,0.044636202909825666
0.919,-0.0462999999999963,-1.234,0.02731621036628445,1.2156428192124877,0.03194405768402412,0.045850481346994376
0.92,-0.01299999999999759,0.766,0.027213784963992932,1.1780040249078634,0.031798208143653875,0.04269880860032565
0.921,0.008700000000003098,-1.234,0.027223827043108512,1.1906298759460754,0.031812507649348766,0.04375603031413976
0.922,0.03659999999999958,0.766,0.02730607286231084,1.1906298759460754,0.031929622297274605,0.04375603031413976
0.923,0.03279999999999963,-0.234,0.027295028907188434,1.1694039166565193,0.031913896161546204,0.04197868120796569
0.924,0.029399999999998344,-0.234,0.027257300010897708,1.1694039166565193,0.031860171772287595,0.04197868120796569
0.925,0.014499999999995482,0.766,0.027281734169238674,1.1694039166565193,0.031894965004080046,0.04197868120796569
0.926,-0.026200000000000646,-1.234,0.02726257862650171,1.175819931321751,0.03186768830278111,0.04251592420249363
0.927,-0.03199999999999946,1.766,0.02671966290258424,1.175819931321751,0.031094598746659357,0.04251592420249363
0.928,-0.02709999999999519,0.766,0.026831473433479937,1.1651607191694058,0.031253812322343213,0.041623378384749964
0.929,0.01620000000000453,-1.234,0.02691873635651295,1.175819931321751,0.03137807111880374,0.04251592420249363
0.93,0.056999999999997046,1.766,0.02691771402959662,1.186383378293715,0.03137661536752018,0.04340045115261246
0.931,0.03039999999999628,1.766,0.026925306230788457,1.2439121986233952,0.0313874263482872,0.04821760904862876
0.932,-0.0030999999999995224,-0.234,0.027136266166452757,1.2398482071126007,0.0316878245792417,0.04787731198216055
0.933,0.001200000000000444,1.766,0.027901668206527043,1.2398482071126005,0.03277772545583828,0.04787731198216053
0.934,0.0052000000000004,-0.234,0.028937072840008432,1.2398482071126007,0.03425209886821382,0.04787731198216055
0.9349999999999999,0.0088,0.766,0.029661655857675946,1.2418440264696895,0.03528387514365486,0.04804443129592236
0.9359999999999999,-0.0339,-0.234,0.029650888221946666,1.2538271830179353,0.03526854247532401,0.04904783718630528
0.9369999999999999,-0.0396,1.766,0.02961157138371557,1.2478123313514784,0.03521255692236034,0.048544185450837815
0.938,-0.0131,1.765999999999778,0.029609239125592643,1.2537522253089612,0.03520923588316847,0.04904156062583381
0.939,-0.0178,-0.233999999999889,0.029622963332751204,1.2537522253089612,0.03522877858704114,0.04904156062583381
0.94,-0.0134,0.765999999999889,0.02962766464138584,1.259738716190406,0.03523547305626615,0.049542837579780015
0.941,-0.0174,-0.234,0.0295695377571617,1.2577712922749238,0.03515270277509004,0.04937809594949864
0.942,0.0008,-0.23400000000011104,0.029515374819146425,1.269604128249106,0.03507557698951444,0.05036891479331717
0.943,-0.0025,-1.233999999999778,0.029202166414158168,1.2754425391453483,0.03462958116342416,0.05085779231571113
0.944,0.0124,0.766,0.029303491331648494,1.2871129280128355,0.034773863658912496,0.051835008701523105
0.945,0.01,0.766000000000111,0.029412839853968285,1.2890355692749114,0.03492957143612108,0.05199600047023555
0.946,0.0222,1.765999999999778,0.02933813505441588,1.3005839910025556,0.03482319488856153,0.05296300397548815
0.947,0.0158,-0.234,0.029167613056857326,1.3024867473607,0.03458037861046535,0.05312233068794816
0.948,0.0257,-0.234,0.029127358968789832,1.2674295822042725,0.034523058452464325,0.0501868298558877
0.949,0.0384,-0.233999999999889,0.029046390836741032,1.2714054141186657,0.03440776317824765,0.05051974490594257
0.95,0.0338,0.765999999999889,0.02906316412407742,1.2714054141186657,0.03443164764629735,0.05051974490594257
0.951,0.0504,-0.233999999999889,0.02926102098415287,1.279320010575061,0.034713387639067624,0.051182471181142025
0.952,0.0167,0.765999999999778,0.029314889533395318,1.29684257381665,0.03479009422719565,0.052649717569890196
0.953,-0.0461,-1.233999999999778,0.02838565536884251,1.29684257381665,0.033466903175325316,0.052649717569890196
0.954,-0.0033,0.765999999999778,0.028514567973362315,1.2910281447983667,0.03365046939714626,0.05216284816259592
0.955,-0.0109,-1.233999999999889,0.028508544419592115,1.2871129280128273,0.033641892105486924,0.05183500870152242
0.956,-0.0177,-0.23400000000022206,0.02825697160164235,1.2851874104813008,0.03328366280839136,0.05167377608928119
0.957,-0.0115,-2.233999999999667,0.027668646527878888,1.2871129280128268,0.03244591221452528,0.051835008701522384
0.958,-0.0172,0.765999999999889,0.027354667917806327,1.2792465466243141,0.03199881964822189,0.05117631970005159
0.959,-0.0328,-0.233999999999889,0.027220463600701475,1.2850411492417644,0.03180771824634762,0.05166152894983219
0.96,-0.0281,0.766,0.02721055896450878,1.2850411492417584,0.03179361445369541,0.05166152894983169
0.961,-0.0151,1.766,0.026908437055835923,1.2831125226754116,0.031363405340234435,0.05150003600352577
0.962,-0.003,0.766,0.026968650043482114,1.3005117282226126,0.031449146146480145,0.05295695307406178
0.963,0.0006,-0.234,0.026404640943822107,1.3100701372990255,0.030646020494935988,0.05375732348826339
0.964,0.0039,0.766,0.026407578002339633,1.3119591358120908,0.030650202744897794,0.05391549819184028
0.965,0.0011,-3.234,0.026303783833054418,1.3119591358120908,0.030502404136889656,0.05391549819184028
0.966,-0.0232,-2.234,0.02624330042470661,1.310070137299026,0.030416278262739353,0.05375732348826343
0.967,0.0066,-1.234,0.026216634661188898,1.3158004237894774,0.030378307317391138,0.0542371472471329
0.968,0.0106,-2.234,0.026217974992784974,1.319630530280475,0.030380215894197846,0.05455786002413684
0.969,0.0069,-1.234,0.026077019716090787,1.306283945337478,0.030179501404836155,0.05344028788073864
0.97,0.0102,1.766,0.025795386082325237,1.300511728222613,0.029778466748212606,0.05295695307406181
0.971,0.031,-0.234,0.02585244250758765,1.2986060780107445,0.029859712740061457,0.05279738404565933
0.972,0.0068,-0.234,0.025854444221596492,1.3120307681027559,0.029862563098093847,0.053921496299442866
0.973,0.0036,-1.234,0.025592099135811636,1.3101418728710976,0.029488994536740174,0.0537633302441025
0.974,0.0124,-0.234,0.025762046247522232,1.31587184697145,0.0297309922011447,0.054243127845084095
0.975,0.0204,-1.234,0.02587929847632895,1.3177525287587863,0.029897954529788273,0.05440060615021609
0.9760000000000001,0.03700000000000144,0.766,0.025865865438563455,1.3177525287587863,0.029878826439099424,0.05440060615021609
0.977,0.0435,0.766,0.02574507115676853,1.3177525287587863,0.029706820373367793,0.05440060615021609
0.9780000000000001,0.029699999999993894,1.766,0.02554935418058624,1.3063558888197102,0.02942812748683563,0.053446312045870414
0.979,0.0022,1.766,0.025416829060780778,1.3044587762194,0.029239417192526745,0.05328745791171912
0.9800000000000001,-0.017800000000003997,3.766,0.025366822474806656,1.3101418728710932,0.029168209880506113,0.053763330244102125
0.981,-0.0358,0.766,0.02479532043635945,1.3005839910025248,0.02835441459375735,0.05296300397548557
0.9820000000000001,-0.06550000000000264,1.766,0.024941050077914875,1.2890355692748803,0.02856192758139186,0.05199600047023295
0.983,-0.0774,0.766,0.02531298631314839,1.2909553471185342,0.029091549410959615,0.0521567524714935
0.9840000000000001,-0.08099999999998904,0.766,0.025401513709326664,1.2909553471185342,0.029217608764927565,0.0521567524714935
0.985,-0.0316,1.766,0.025462649280920766,1.29677010254548,0.029304663292591456,0.05264364921051571
0.9860000000000001,-0.010499999999998646,-0.234,0.02544689732144565,1.3063558888197102,0.029282233153212187,0.053446312045870414
0.987,-0.0044,1.766,0.025223733063583647,1.3082502503925064,0.02896445647176355,0.053604935823587566
0.9880000000000001,0.013099999999998868,1.766,0.024913660407693473,1.3082502503925064,0.028522925822811362,0.053604935823587566
0.989,0.008,-1.234,0.024881293666727807,1.2967701025454832,0.02847683692115697,0.052643649210515966
0.9900000000000001,0.012800000000002887,-0.234,0.024846143716346417,1.2986784468273675,0.02842678484430428,0.05280344382603417
0.991,0.0258,1.766,0.025030265496927637,1.2986784468273682,0.028688966651445165,0.052803443826034226
0.9920000000000001,0.01389999999999114,1.766,0.025037599875055012,1.298678446827368,0.02869941050282233,0.052803443826034205
0.993,-0.026,1.766,0.025124220499623713,1.298678446827368,0.028822754692811176,0.052803443826034205
0.9940000000000001,-0.03099999999999469,0.766,0.025276119442312398,1.29867844682737,0.029039052510327342,0.05280344382603437
0.995,-0.0071,1.766,0.02588183779987958,1.3366950552244399,0.029901570421592697,0.05598675271834663
0.9960000000000001,0.01460000000000262,0.766,0.02676566014153757,1.3348410621730764,0.03116009691419937,0.05583150918622909
0.997,0.0264,-1.234,0.026918829481400668,1.3292635679461742,0.03137820372479568,0.05536447944007512
0.9980000000000001,0.015500000000002154,-1.234,0.026873258227154122,1.3311253293612566,0.03131331214187529,0.05552037345371503
0.999,0.0252,-0.234,0.02676083532484363,1.3329844904818788,0.031153226574601595,0.05567604973250623
0.9999999999999999,0.0339,-2.234,0.027177935856230406,1.3441553744495,0.03174716049558151,0.05661144023072484
1.0010000000000001,0.0419,-2.233999999999556,0.028190863934313592,1.3534055859422176,0.03318952822186168,0.057386003816013165
1.002,0.0301,-0.234,0.02875698597482678,1.3534055859422178,0.033995662613868376,0.057386003816013186
1.0030000000000001,0.0414,-0.23399999999977797,0.02930212664704812,1.3534055859422192,0.034771920404434005,0.057386003816013297
1.004,0.0114,0.766,0.02895879892257011,1.3496713299377179,0.03428303591200153,0.05707331704971524
1.0050000000000001,-0.0191,-0.23399999999977797,0.029523782342377736,1.3534055859422223,0.03508754895517437,0.05738600381601356
1.006,0.0007,0.766,0.02991113400152866,1.3478351863108982,0.03563912171139379,0.05691956813361603
1.0070000000000001,0.0003,1.766,0.029877696338860393,1.375324949839889,0.03559150786148825,0.05922141494160593
1.008,0.0039,1.766,0.029959290591506104,1.3679659188900102,0.035707694705561954,0.05860520877147962
1.0090000000000001,-0.0124,1.765999999999556,0.03023030052829196,1.3679659188900108,0.036093601656686125,0.05860520877147968
1.01,-0.0211,-0.234,0.03046073242390759,1.3788534273231627,0.0364217271539776,0.0595168709073647
1.0110000000000001,-0.0184,2.765999999999778,0.03065900638980809,1.378853427323163,0.03670406108820681,0.05951687090736472
1.012,-0.0161,1.766,0.030883183694655442,1.367965918890011,0.03702328030670076,0.0586052087714797
1.0130000000000001,0.0086,0.766,0.030896904295185466,1.3661543638427072,0.03704281787488343,0.05845351877244653
1.014,0.0055,0.766,0.030913863625758604,1.3661543638427072,0.03706696726081446,0.05845351877244653
1.0150000000000001,-0.0031,-0.23400000000022206,0.030918163344544503,1.3698436870863153,0.03707308988268965,0.05876244310797188
1.016,0.0049,-1.234,0.030933327491799396,1.3309135040432163,0.0370946830017573,0.055502636326523365
1.0170000000000001,0.0028,-1.234,0.03090268647154521,1.3119591358121,0.03705105145508464,0.05391549819184106
1.018,-0.0308,-1.234,0.0309130021907282,1.3176098824140603,0.03706574061292797,0.05438866170286088
1.0190000000000001,-0.026,-0.234,0.030943021437954524,1.300367190615618,0.0371084867805023,0.05294485026244813
1.02,-0.0216,-0.234,0.03102688442485698,1.300367190615618,0.0372279042084074,0.05294485026244813
1.0210000000000001,-0.0096,-2.233999999999556,0.03119070920894015,1.288816826253178,0.0374611839312615,0.05197768409127449
1.022,0.0013,-0.234,0.031196761810088052,1.2946411866749774,0.03746980258518637,0.052465385101556475
1.0230000000000001,0.0441,-1.233999999999556,0.03127940742467938,1.3004394614272028,0.037587486525225526,0.05295090183640153
1.024,0.0383,0.766,0.03133704353134479,1.3004394614272028,0.03766955795943826,0.05295090183640153
1.0250000000000001,0.0119,0.766,0.03131516476463134,1.3023424289468548,0.03763840349972774,0.05311024623040478
1.026,0.0072,-1.234,0.03124877627525781,1.2984613282772168,0.03754386903421062,0.052785263471696355
1.0270000000000001,0.0029,-0.234,0.031098841712412437,1.2965526644272165,0.03733036841241787,0.05262544209724125
1.028,0.0069,-0.234,0.030887526940834065,1.2946411866749774,0.03702946490978452,0.052465385101556475
1.0290000000000001,-0.0039,1.766,0.030745050946669697,1.2888897447186214,0.03682658498158542,0.05198378989632251
1.03,-0.0202,0.766,0.03081285804498956,1.2791730784544804,0.036923139487621374,0.05117016786567723
1.0310000000000001,-0.0409,-0.234,0.0307812019620094,1.2233036119664777,0.03687806253357205,0.0464919554480301
1.032,-0.0435,0.766,0.030584125449634042,1.2212774941233095,0.03659743372368065,0.04632229909995022
1.0330000000000001,-0.0214,1.766,0.029883478280649047,1.2110184590888737,0.035599741107669926,0.04546326198883908
1.034,-0.0186,-1.234,0.028878828869147076,1.2654741152818383,0.03416916186050465,0.05002308944070414
1.0350000000000001,0.0003,1.766,0.027730416533197803,1.2635156220048214,0.0325338701495968,0.049859095614659885
1.036,0.0025,0.766,0.02756198878600205,1.2516252267567918,0.03229403599747718,0.048863457062929494
1.0370000000000001,0.0004,1.766,0.027543439286249784,1.2536022964449733,0.03226762227634514,0.0490290063789909
1.038,0.0023,-0.234,0.02754866154596764,1.2416169694619472,0.03227505855838556,0.04802541874792601
1.0390000000000001,0.0115,0.766,0.02751913969067726,1.2315273807178424,0.032233020656374456,0.04718057016928852
1.04,0.0329,0.766,0.027516615700281022,1.2274223838002916,0.03222942659834827,0.04683683952782601
1.0410000000000001,0.0181,-0.234,0.027586895211085156,1.2395449677402717,0.03232950171759511,0.047851920327535505
1.042,0.0207,-0.234,0.027517389495007455,1.2274223838002916,0.03223052845006344,0.04683683952782601
1.0430000000000001,0.0276,-1.234,0.02752378494279734,1.2274223838002916,0.032239635303439144,0.04683683952782601
1.044,0.0569,-3.234,0.02740922745673285,1.2172151407437675,0.03207651017710649,0.04598213920189346
1.0450000000000002,0.0688,-0.234,0.027248933731193574,1.2172151407437677,0.03184825853570607,0.04598213920189348
1.046,0.0362,-1.234,0.02724158586471778,1.2172151407437675,0.03183779547747813,0.04598213920189346
1.0470000000000002,-0.0033,0.766,0.027201727208988866,1.2274223838002916,0.031781038398786925,0.04683683952782601
1.048,-0.0083,0.766,0.027125425229958967,1.2212774941233098,0.03167238753365117,0.04632229909995024
1.0490000000000002,-0.0613,1.766,0.0271851157029305,1.217137928276147,0.031757384300591884,0.045975673839907284
1.05,-0.0824,1.766,0.02709566221561478,1.2191709256074277,0.031630006231112784,0.0461459062397868
1.0510000000000002,-0.0762,-0.234,0.026901803995888984,1.2005152119156313,0.031353960136965855,0.04458377585016203
1.052,-0.0589,0.766,0.02657171518053263,1.1794671647981956,0.030883927304055325,0.04282132416444289
1.0530000000000002,0.0103,0.766,0.026476190606110103,1.1920775191376332,0.03074790425740977,0.04387724826699997
1.054,0.0574,-1.234,0.026407397727037263,1.2230731130344157,0.030649946040316678,0.04647265469157024
1.0550000000000002,0.049,-0.234,0.026669237740823044,1.251324841367715,0.031022795400014604,0.04883830438570533
1.056,0.0102,2.766,0.026655152679210155,1.2632180640808532,0.031002738854310447,0.0498341796943481
1.0570000000000002,-0.025,1.766,0.026667112734312985,1.2730565135995728,0.03101976947855526,0.05065799920797728
1.058,-0.044,0.766,0.02667240344670405,1.2632180640808535,0.031027303234373683,0.04983417969434811
1.0590000000000002,-0.0498,1.766,0.026676820025249317,1.253302384910385,0.03103359225971725,0.04900389337982511
1.06,-0.0448,0.766,0.026654572819582684,1.2533023849103913,0.031001913158162288,0.04900389337982563
1.0610000000000002,-0.0402,-0.234,0.026574511265403847,1.255276813065626,0.030887908813370196,0.04916922150794647
1.062,-0.0098,-0.234,0.026517121564710963,1.2372416368770034,0.03080618825108019,0.047659051633348035
1.0630000000000002,0.0101,-0.234,0.026471987081910977,1.2271160738185962,0.03074191861265113,0.046811190756679714
1.064,0.0064,-1.234,0.026470900645967323,1.2372416368770034,0.03074037157276182,0.047659051633348035
1.0650000000000002,0.0096,-0.234,0.026557221506815103,1.2472850024834767,0.030863288911599115,0.04850002973191755
1.066,0.0183,-0.234,0.026556167402685415,1.2472850024834763,0.030861787910876855,0.04850002973191751
1.0670000000000002,0.0103,1.766,0.02656843997686568,1.2432320363538123,0.030879263549373807,0.04816065587231266
1.068,0.0172,0.766,0.026592239064982415,1.237165674279143,0.03091315246740976,0.04765269092881789
1.0690000000000002,0.0237,-1.234,0.02641523434807539,1.2330794477286562,0.03066110506484473,0.0473105320182095
1.07,0.0334,-0.234,0.02629450914891925,1.239165814172053,0.030489197369936046,0.047820172021304286
1.0710000000000002,0.0316,-1.234,0.026209866804340964,1.2452224321841325,0.030368670168905713,0.048327321048745604
1.072,0.0236,-1.234,0.026193956910882037,1.2269628901515106,0.03034601513805975,0.04679836396991069
1.0730000000000002,0.0192,-1.234,0.02619640060321192,1.2289796349846764,0.03034949485495757,0.04696723547191023
1.074,0.0044,0.766,0.02582115650237709,1.2228425706546202,0.029815162761463433,0.04645335029702793
1.0750000000000002,0.0026,0.766,0.025539676546684233,1.2208156876478446,0.02941434693606501,0.04628362987821112
1.076,-0.0213,-0.234,0.025511697300357055,1.2249428249558583,0.029374505645472757,0.04662921443838998
1.0770000000000002,-0.0246,-0.234,0.025517766096732702,1.2208156876478418,0.029383147360732706,0.04628362987821088
1.078,-0.0039,-1.234,0.025516511022040746,1.2269628901515124,0.02938136018623442,0.04679836396991084
1.0790000000000002,0.0204,0.766,0.025512507385560025,1.2289796349846756,0.02937565917332689,0.04696723547191016
1.08,0.0106,-0.234,0.02551629483965894,1.222919422943599,0.029381052351455966,0.04645978549956744
1.0810000000000002,0.0076,-0.234,0.025447629805393113,1.2330794477286602,0.02928327618008517,0.04731053201820983
1.082,-0.0058,0.766,0.025172136941253847,1.235086205011188,0.02889098572565635,0.04747856721575985
1.0830000000000002,-0.008,3.766,0.02484269731456111,1.2330794477286606,0.028421877310576587,0.047310532018209873
1.084,-0.0059,-0.234,0.024856281935047075,1.2270394843754855,0.028441221248795577,0.04680477756345729
1.0850000000000002,-0.0077,-0.234,0.02482604343543978,1.2412384488156647,0.028398162874890852,0.047993723439216464
1.086,-0.0023,0.766,0.02503869963214984,1.229132567310002,0.028700976511480448,0.04698004121265507
1.0870000000000002,-0.007,-0.234,0.02511053877226428,1.2271160738185911,0.02880327247841708,0.046811190756679284
1.088,0.0035,0.766,0.02511159048864688,1.2271160738185911,0.028804770079086158,0.046811190756679284
1.0890000000000002,0.0071,0.766,0.02511394575112872,1.2271160738185911,0.028808123875534525,0.046811190756679284
1.09,0.0234,1.766,0.025125127428119017,1.2250962612080054,0.028824046121511765,0.04664206237529065
1.0910000000000002,0.0169,-0.234,0.024907204920935625,1.2250962612080027,0.028513733476426245,0.04664206237529043
1.092,0.0151,1.766,0.02484482858752231,1.231222091999533,0.028424912155203413,0.047155006913314534
1.0930000000000002,0.006,0.766,0.024779864152399873,1.231222091999533,0.0283324054840941,0.047155006913314534
1.094,-0.0088,0.766,0.024639996708549192,1.2250962612080027,0.028133240023749385,0.04664206237529043
1.0950000000000002,-0.003,1.766,0.023981560444153904,1.1835002690402334,0.02719565399160639,0.04315903489505848
1.096,-0.0012,1.766,0.022977290935293687,1.1835002690402334,0.025765615710104377,0.04315903489505848
1.0970000000000002,0.0169,-0.234,0.022741010109419396,1.1897612848856103,0.02542916157781808,0.04368329911156424
1.098,0.0237,0.766,0.022782943055409264,1.1897612848856103,0.025488872360125637,0.04368329911156424
1.0990000000000002,0.0124,0.766,0.022784405996504532,1.1897612848856076,0.025490955527792642,0.04368329911156402
1.1,0.0105,0.766,0.022277748351899218,1.1835002690402274,0.024769495978330117,0.04315903489505798
1.1010000000000002,-0.002300000000004019,-0.234,0.020868756009628283,1.1707975350256123,0.02276314910628635,0.04209537540910241
1.102,-0.0204,1.766,0.01949398626666084,1.1707975350256123,0.020805533801480987,0.04209537540910241
1.1030000000000002,-0.037100000000000466,2.766,0.018644384971531806,1.1707975350256123,0.019595736665025936,0.04209537540910241
1.104,-0.0392,2.766,0.018623200177947424,1.1707975350256123,0.019565570394374378,0.04209537540910241
1.1050000000000002,-0.016999999999998048,1.766,0.01828456013572662,1.1771261173792769,0.019083360967768543,0.04262529728618662
1.106,-0.0082,1.766,0.017861997452532447,1.1792280973647684,0.018481649168325686,0.04280130592718347
1.1070000000000002,-0.005500000000000222,0.766,0.018163185334752644,1.1470483326434726,0.018910528266714556,0.0401067433265462
1.108,-0.0065,0.766,0.017997145869081237,1.1470483326434726,0.0186740949287954,0.0401067433265462
1.1090000000000002,0.005399999999999534,1.766,0.017617620642795435,1.1578742966394455,0.018133666689566688,0.041013252058105985
1.11,0.0033,0.766,0.01712734433705548,1.1578742966394455,0.01743553348972749,0.041013252058105985
1.1110000000000002,0.005099999999997979,1.766,0.016715606584990376,1.1685999727094003,0.016849235944897185,0.04191136321134025
1.112,-0.004,0.766,0.016306530606992622,1.1813263372212828,0.016266728656347127,0.04297700138964248
1.1130000000000002,-0.008600000000003043,1.766,0.01628051843550348,1.1813263372212828,0.01622968839903942,0.04297700138964248
1.114,-0.0223,1.766,0.016361544201545973,1.1813263372212826,0.016345065741681528,0.04297700138964246
1.1150000000000002,-0.001900000000001732,-0.234,0.01662920310194428,1.1749403918543153,0.016726200955463663,0.04244227623846211
1.116,-0.0097,0.766,0.01662089652950723,1.1770462751348787,0.016714372739563194,0.04261861172065904
1.1170000000000002,-0.011799999999997491,-0.234,0.01651808225843954,1.1770462751348787,0.016567969466124786,0.04261861172065904
1.118,-0.0005,0.766,0.016487926775037746,1.1707172611756143,0.01652502930386624,0.042088653703214025
1.1190000000000002,0.005399999999999623,-1.234,0.016514931282140526,1.189840273910818,0.016563482606081797,0.043689913233048
1.12,0.0037,-1.234,0.016632384031916695,1.189840273910818,0.016730730468299804,0.043689913233048
1.1210000000000002,0.002200000000000333,0.766,0.016381397658534053,1.1898402739108178,0.016373336244034357,0.04368991323304799
1.122,0.0037,0.766,0.016144688907157444,1.1898402739108178,0.016036272763515793,0.04368991323304799
1.1230000000000002,0.0025999999999980904,-0.234,0.01598718359802611,1.1898402739108178,0.015811991711855423,0.04368991323304799
1.124,-0.006,-0.234,0.015974231150597012,1.1855909480998963,0.015793547961946323,0.043334097256542276
1.1250000000000002,0.0014999999999975797,-1.234,0.016429211658680686,1.1835002690402274,0.016441421404440184,0.04315903489505798
1.1260000000000001,-0.0094,0.7659999999995559,0.01681389266254489,1.1835002690402274,0.01698919125788996,0.04315903489505798
1.1270000000000002,-0.0019000000000008216,-1.234,0.016832522835269658,1.1855909480998965,0.017015719854001226,0.043334097256542296
