time_sec,bts_raw,diy_raw,bts_rms,diy_rms,bts_norm_rms,diy_norm_rms
0.0,0.004199999999999322,-1.479,0.006057513762771183,0.7025206432247565,0.01688065672955916,0.0
0.0010000000000000009,-0.001900000000000233,1.521,0.006048507054905439,0.7049329431520731,0.016831753151326845,0.000263998244715251
0.0020000000000000018,-0.004000000000000078,-0.479,0.00604857918512503,0.7061671085932957,0.016832144795631207,0.00039906333611680497
0.0030000000000000027,-0.0046999999999992785,0.521,0.00602825357400707,0.7073991208483279,0.016721783148707203,0.0005338927862664734
0.0040000000000000036,0.0017999999999999223,0.521,0.006035690932093356,0.7086289911476659,0.016762165653439905,0.000668487824211781
0.0050000000000000044,0.0011000000000002555,-2.479,0.0061017963713129696,0.7260880914498073,0.017121097303788402,0.0025791838292479317
0.005999999999999894,0.0034,-0.479,0.006124374801350587,0.7284223477690276,0.0172436910457157,0.0028346411063515774
0.006999999999999895,0.0056,0.521,0.006043125729872092,0.7307491477336532,0.016802534256511487,0.0030892823719374713
0.007999999999999896,-0.0035,-0.479,0.0059745691598165,0.7319397842933748,0.016430293740106523,0.003219583732187464
0.008999999999999897,-0.0023,-1.4789999999999965,0.005970192819356798,0.7342554378522166,0.016406531594022455,0.003473005152957012
0.009999999999999898,0.0013,0.521,0.00597464070170388,0.7365638113562658,0.016430682189952847,0.0037256298561770943
0.010999999999999899,0.0137,1.521,0.005979074626903456,0.7388649730389085,0.016454757002981754,0.0039774653092003185
0.0119999999999999,0.009,-0.479,0.005989152199764598,0.7400425523588211,0.01650947503982196,0.004106337706015301
0.0129999999999999,-0.0047,1.5209999999999964,0.005936208583455458,0.7412182608515053,0.016222007929678033,0.004235005362491464
0.013999999999999901,-0.0065,-0.479,0.0057126300503656845,0.7435050170670326,0.015008047129904722,0.004485264304240238
0.014999999999999902,-0.005,-0.479,0.005651803261326298,0.7446752589698546,0.014677776882357087,0.0046133337058676315
0.015999999999999903,0.0027,0.521,0.005668829570115908,0.7458436647446914,0.01477022435998287,0.004741202164585862
0.016999999999999904,-0.0009,0.521,0.005738533644327801,0.7591907756892311,0.015148695461426906,0.006201888632913109
0.017999999999999905,0.0002,-0.47899999999999654,0.005724185468772247,0.7614235576049212,0.01507078940116255,0.0064462407136387555
0.018999999999999906,0.0013,0.521,0.005713378055318843,0.7636498112746791,0.015012108560484044,0.006689878353573832
0.019999999999999907,-0.0077,-0.479,0.005708905196362199,0.764789229250664,0.01498782234945456,0.00681457443396198
0.020999999999999908,-0.0066,-1.479,0.005720640960081369,0.767005714034741,0.015051543838783564,0.007057142982676949
0.02199999999999991,-0.012,-0.479,0.0057079545681171275,0.8093208906721445,0.014982660738414689,0.011688048215724316
0.02299999999999991,-0.0054,-1.479,0.005701864020660042,0.8114157407041545,0.014949590989902242,0.011917305251771029
0.02399999999999991,0.0029,-0.479,0.005689740975675911,0.8135051963242705,0.014883766685657817,0.012145971932010358
0.02499999999999991,0.004,0.521,0.005704992551507581,0.8287578499760078,0.01496657792401129,0.013815197945621136
0.025999999999999912,0.0048,-0.479,0.005714826717572209,0.8407897689367301,0.015019974338845653,0.015131951907355981
0.026999999999999913,0.0168,-0.479,0.005826482743519234,0.8418247837089684,0.015626231284380464,0.015245222268156108
0.027999999999999914,0.0182,0.521,0.0060942313124545565,0.880551818567802,0.017080021424207406,0.019483447005463617
0.028999999999999915,0.0106,-1.479,0.006138521378297641,0.8815401500221274,0.017320502489226713,0.0195916084186379
0.029999999999999916,-0.0017,-0.479,0.006138113810652993,0.8825273746570168,0.017318289525678647,0.019699648703263854
0.030999999999999917,-0.0064,0.521,0.006257703809654596,0.8835134961827001,0.017967625438329,0.019807568265383112
0.03199999999999992,-0.0078,-0.479,0.0062725845691647755,0.8975772765546391,0.018048423261208348,0.02134668588927772
0.03299999999999992,0.0012,-0.479,0.006260238508517292,0.8994666016986742,0.017981388052368995,0.0215534506103945
0.03399999999999992,0.0049,0.521,0.0062558256329512205,0.913284751335325,0.017957427532199838,0.023065686799592755
0.03499999999999992,0.006,-0.479,0.006274202863826147,0.9142376977239552,0.01805721008995366,0.023169975727788325
0.03599999999999992,0.0034,0.5209999999999931,0.006407538598446474,0.9151896518523195,0.018781181004339523,0.023274156064607865
0.03699999999999992,0.0009,-0.479,0.006406121418021596,0.9260993254016516,0.018773486162360593,0.024468093283950186
0.03799999999999992,0.0016,-2.479,0.006354045517768277,0.9270390991901936,0.018490730476263255,0.02457094062386635
0.038999999999999924,-0.0068,-0.479,0.0063121167936815055,0.9404522108420132,0.01826307075096479,0.026038850104006757
0.039999999999999925,-0.0079,-0.479,0.00629822540340635,0.9422555709900308,0.01818764489046136,0.026236206953490913
0.040999999999999925,-0.0053,0.521,0.006310861607254141,0.9440554863173389,0.018256255485213778,0.026433186807307846
0.041999999999999926,0.003,-0.479,0.006308876094618126,0.9458519764899715,0.018245474778880902,0.026629791817676843
0.04299999999999993,0.0059,2.5209999999999724,0.006299522726639123,0.9476450609875534,0.018194688945753507,0.02682602411641687
0.04399999999999993,0.0004,-1.479,0.006288357328681383,0.9607705402771095,0.01813406436231408,0.02826245557100124
0.04499999999999993,-0.0061,0.521,0.006277117088359219,0.9616764331012487,0.018073033408480692,0.02836159503237781
0.04599999999999993,-0.0087,-0.479,0.0063466233002516,0.9634400667226056,0.018450430180040184,0.02855460427434091
0.04699999999999993,-0.0047,0.521,0.00636782141009446,0.9652004778027087,0.018565529219392897,0.028747260846544786
0.04799999999999993,-0.0055,-0.479,0.006368428556897116,0.975551036082891,0.01856882583471614,0.029880009385334746
0.04899999999999993,-0.0092,1.521,0.006294050924909222,0.9772896316786136,0.018164978791060056,0.030070278505829648
0.04999999999999993,-0.0088,0.521,0.006290835100327129,0.9875134864083351,0.01814751787955099,0.0311891608107645
0.050999999999999934,-0.0005,-0.479,0.0062793270205646675,0.9875134864083351,0.018085032642174984,0.0311891608107645
0.051999999999999935,-0.0042,-0.479,0.006276868410708537,0.9756410955397745,0.01807168316740193,0.029889865348214004
0.052999999999999936,-0.0032,-0.479,0.00626801171557508,0.9756410955397745,0.018023594110912578,0.029889865348214004
0.05399999999999994,-0.0097,1.521,0.006291644062068284,0.9747932488686535,0.018151910286231126,0.029797078364958318
0.05499999999999994,-0.0054,0.521,0.006292488780899677,0.9858374852408738,0.018156496842614556,0.031005741924356504
0.05599999999999994,0.0022,0.521,0.006349823140054993,0.9661931569682104,0.01846780429925097,0.028855898066274494
0.05699999999999994,0.0014,-0.479,0.00635444481343433,0.967048543682448,0.018492898525580913,0.028949510219785878
0.05799999999999994,0.0021,0.521,0.0063484319530973336,0.9661931569682104,0.018460250593586944,0.028855898066274494
0.05899999999999994,0.0028,0.521,0.006352009418761015,0.967048543682448,0.0184796751019162,0.028949510219785878
0.05999999999999994,0.0064,0.521,0.006412593711528746,0.9575158249890653,0.018808628671320306,0.027906264736950452
0.06099999999999994,0.0042,-0.479,0.006412168095178391,0.9575158249890653,0.018806317709002353,0.027906264736950452
0.061999999999999944,0.0038,-0.479,0.0062784521554652434,0.9461410496529277,0.018080282401080217,0.026661427522155594
0.06299999999999994,-0.0024,0.521,0.0062503621347404165,0.9583789565566625,0.017927762462991763,0.028000724474822873
0.06399999999999995,0.0052,-0.479,0.006301568441887647,0.9470145485178624,0.018205796533252567,0.026757021840462455
0.06499999999999995,-0.0057,-0.479,0.006268125174413752,0.9470145485178624,0.01802421015656165,0.026757021840462455
0.06599999999999995,-0.0101,-1.479,0.006277133979656652,0.9470145485178623,0.018073125122889305,0.026757021840462445
0.06699999999999995,-0.0036,0.521,0.006311483036270974,0.9461410496529277,0.01825962964844784,0.026661427522155594
0.06799999999999995,0.0076,0.521,0.0063216176688225545,0.9452667436084891,0.018314657501380328,0.026565744867415194
0.06899999999999995,-0.0062,-0.479,0.006321984429222756,0.9461410496529278,0.01831664889448324,0.026661427522155605
0.06999999999999995,-0.0044,0.521,0.006374704182162308,0.9575158249890651,0.01860290049725519,0.027906264736950428
0.07099999999999995,0.0002,2.5209999999999724,0.0063688688621012695,0.9575158249890651,0.018571216552869585,0.027906264736950428
0.07199999999999995,0.0046,0.521,0.0063873978763212555,0.9478872424347933,0.018671823246234346,0.026852528066547584
0.07299999999999995,-0.002,0.521,0.006309744993609688,0.9575158249890651,0.01825019262589484,0.027906264736950428
0.07399999999999995,0.0042,1.521,0.006349590933261403,0.9487591336249592,0.018466543489722594,0.0269479464434998
0.07499999999999996,-0.0034,-1.479,0.006383790778512291,0.9496302242994006,0.018652237844717857,0.027043277213291826
0.07599999999999996,0.0114,-0.479,0.0063941198602311105,0.9496302242994007,0.018708321495196353,0.027043277213291837
0.07699999999999996,0.0179,2.521,0.00638859525333208,0.9618237371968024,0.018678324625117204,0.028377715756929992
0.07799999999999996,0.0081,-0.479,0.006220534125924946,0.9950205571914902,0.017765805798651654,0.032010722627047704
0.07899999999999996,-0.001,-0.479,0.0059482003264293756,0.9950205571914902,0.01628711930548909,0.032010722627047704
0.07999999999999996,-0.0122,-0.479,0.0058548902733302054,0.9865968010114147,0.01578047519649641,0.031088840227489308
0.08099999999999996,0.0044,1.521,0.005852663438716924,0.987434512781533,0.015768384188067544,0.03118051806339364
0.08199999999999996,0.0022,0.521,0.005952888532837009,0.9983389135450198,0.016312574785142978,0.03237387823748873
0.08299999999999996,0.0004,1.521,0.006075209654513135,1.030359934244675,0.01697673983107561,0.03587820751386654
0.08399999999999996,-0.0051,-0.479,0.006082492995191326,1.061415376699966,0.017016286069940892,0.0392768654519664
0.08499999999999996,0.013,-0.479,0.006065325264703083,1.060636098117061,0.016923070717170724,0.03919158245058607
0.08599999999999997,0.001,-1.4789999999999863,0.006042468046811626,1.069249860118222,0.016798963245274197,0.040134258783222285
0.08699999999999997,0.0075,-0.4789999999999722,0.006089458946302793,1.0684762955240001,0.01705410898373138,0.040049601111621876
0.08799999999999997,0.0017,1.521,0.006219532069611498,1.069249860118222,0.01776036494944811,0.040134258783222285
0.08899999999999997,-0.0001,0.521,0.006282043545418764,1.0424023224720533,0.018099782513904213,0.037196107215394916
0.08999999999999997,0.0046,0.521,0.00629487643460088,1.043195221979701,0.01816946104788345,0.03728288086898757
0.09099999999999997,0.0003,0.521,0.0062628385921491385,1.0700228654701656,0.017995505685048544,0.04021885525224244
0.09199999999999997,0.0014,0.521,0.006243123823995686,1.0700228654701656,0.017888460722438913,0.04021885525224244
0.09299999999999997,0.0025,1.521,0.006236223216399323,1.0707953127909788,0.01785099260329154,0.04030339065122848
0.09399999999999997,0.0036,-0.479,0.006216957994664062,1.0400199969696213,0.017746388535708014,0.0369353893237843
0.09499999999999997,0.0101,0.521,0.006247796244210996,1.062194083565368,0.0179138304880558,0.03936208588549786
0.09599999999999997,0.0057,0.521,0.006231021488889271,1.0700228654701631,0.017822748866287638,0.040218855252242176
0.09699999999999998,0.0018,-1.479,0.006179071203390647,1.0707953127909766,0.017540675228622977,0.04030339065122824
0.09799999999999998,-0.0019,0.521,0.006179279875584427,1.0700228654701631,0.01754180825270964,0.040218855252242176
0.09899999999999998,-0.0011,-1.479,0.006156670947949597,1.0707953127909766,0.017419048918464547,0.04030339065122824
0.09999999999999998,0.0018,-1.479,0.006092939110097769,1.059856246555556,0.017073005173654027,0.039106236743344444
0.10099999999999998,-0.0007,-0.479,0.006030422209294669,1.0590758207497162,0.01673355815318446,0.03902082819172151
0.10199999999999998,-0.0022,-0.479,0.006099795506385023,1.0700228654701631,0.017110233239360565,0.040218855252242176
0.10299999999999998,-0.0072,-0.4789999999999722,0.006091339486304418,1.0707953127909766,0.0170643197218234,0.04030339065122824
0.10399999999999998,-0.0021,1.5209999999999584,0.00609298239238159,1.0793280004840877,0.017073240182781054,0.04123719434129861
0.10499999999999998,-0.0086,-1.479,0.0060797211958111275,1.0692498601182194,0.017001236074997747,0.04013425878322199
0.10599999999999998,-0.0042,0.521,0.006065428596228601,1.0692498601182194,0.016923631774708875,0.04013425878322199
0.10699999999999998,-0.0049,-0.479,0.006169259722823584,1.0684762955239977,0.017487401988873393,0.040049601111621605
0.10799999999999998,-0.0041,0.521,0.006170225897261315,1.0692498601182194,0.017492648010827914,0.04013425878322199
0.10899999999999999,-0.0091,-0.479,0.006177023867202365,1.0684762955239977,0.01752955883993313,0.040049601111621605
0.10999999999999999,-0.0011,0.521,0.006278445132841541,1.0684762955239977,0.018080244270452166,0.040049601111621605
0.11099999999999999,-0.0043,0.521,0.006249175433770318,1.067702170471962,0.01792131905163718,0.03996488210441472
0.11199999999999999,-0.0068,1.521,0.006235031969126353,1.067702170471962,0.01784452450694867,0.03996488210441472
0.11299999999999999,-0.0093,0.521,0.006224488085808566,1.0939289676657462,0.017787274551649798,0.04283510083022788
0.11399999999999999,-0.0002,-0.479,0.00622770108696565,1.0931728669483607,0.017804720132853072,0.04275235437736878
0.11499999999999999,0.006000000000000122,-0.479,0.0062201275295175554,1.0939289676657462,0.017763598108615053,0.04283510083022788
0.11599999999999999,0.007099999999998802,-0.479,0.006215985589219926,1.0946845461430392,0.01774110868135727,0.04291779012996677
0.11699999999999999,-0.003699999999999512,-0.479,0.006174406844449327,1.0870333914359231,0.017515349233177067,0.042080459999558666
0.118,0.0006999999999990008,0.5210000000000139,0.006168600254104643,1.0862724910585457,0.017483821282074725,0.041997188279588815
0.119,-0.008299999999999879,1.5209999999999722,0.006122227513480162,1.0862724910585457,0.017232031950969437,0.041997188279588815
0.12,-0.007200000000000111,-0.479,0.006108134631704105,1.0862724910585457,0.017155512055273082,0.041997188279588815
0.121,-0.008199999999998346,-0.479,0.006093163501209233,1.0961941406962024,0.017074223546497656,0.043082997742732436
0.122,0.006700000000000245,-1.479,0.006154729870660669,1.0669274837421676,0.01740850948202794,0.03988010162809251
0.123,0.00889999999999981,0.521,0.006150344739335863,1.0770273556556205,0.01738469960432365,0.04098541545196946
0.124,0.0071999999999998,0.521,0.0062027342388942626,1.076259381173698,0.01766915803557251,0.04090136955331574
0.125,0.005399999999999845,0.521,0.006188785643986178,1.0653764203473333,0.01759342157198487,0.03971035573163848
0.126,0.004000000000000488,1.521,0.006202944386091776,1.067702170471961,0.01767029906846345,0.039964882104414595
0.127,0.008399999999999,2.521,0.006097998830994502,1.0677021704719607,0.017100477859611586,0.039964882104414574
0.128,-0.000600000000000111,0.521,0.005829071043220652,1.037632201841405,0.01564028493404067,0.03667407284507846
0.129,-0.001599999999999878,0.521,0.00577247405965631,1.037632201841405,0.015332981193905037,0.03667407284507846
0.13,-0.0004999999999985457,0.521,0.005771760682537312,1.064600041220152,0.015329107781525278,0.03962539004205385
0.131,0.0126000000000002,1.521,0.005653207587693287,1.064600041220152,0.014685401930862653,0.03962539004205385
0.132,0.014399999999998756,2.521,0.005649523772583621,1.0543811353110422,0.014665399978640564,0.038507049328129345
0.133,0.003199999999999845,2.521,0.005681502539516951,1.0543811353110422,0.014839034580074151,0.038507049328129345
0.134,0.001800000000000122,-0.479,0.005682870578955273,1.0543811353110422,0.014846462602021143,0.038507049328129345
0.1349999999999999,0.0029,-1.479,0.0056962858939980906,1.0543811353110422,0.01491930352441887,0.038507049328129345
0.1359999999999999,-0.0083,-0.479,0.0056407297625668965,1.0543811353110422,0.014617651282531034,0.038507049328129345
0.1369999999999999,-0.0127,0.521,0.005783551636049728,1.0464353381992106,0.01539312893399556,0.037637474004334336
0.1379999999999999,-0.009,-0.479,0.005754704926840286,1.0464353381992106,0.015236500416495352,0.037637474004334336
0.1389999999999999,-0.0079,0.521,0.005764128510474225,1.0352388992400754,0.015287667498445897,0.03641215363732626
0.1399999999999999,-0.0047,-2.479,0.00582520466755247,1.0456448956342443,0.015619291735661981,0.03755096923461797
0.1409999999999999,0.0018,0.521,0.005806916123536288,1.0448538550916118,0.015519990719532405,0.037464399023182486
0.1419999999999999,-0.0007,0.5209999999999723,0.00580766891421295,1.0440622152121282,0.015524078135078407,0.037377763221280884
0.1429999999999999,0.0033,-0.4789999999999167,0.0058170135371563795,1.0432699746314515,0.015574816485425443,0.03729106167960174
0.1439999999999999,0.0062,2.520999999999889,0.005812149353271809,1.032840050879788,0.015548405503668145,0.03614962751058612
0.1449999999999999,0.004,-1.479,0.005802560501975231,1.032840050879788,0.01549634107052229,0.03614962751058612
0.1459999999999999,0.0033,0.521,0.0057974068406093215,1.0320391956874584,0.015468358317495599,0.036061983199589816
0.1469999999999999,0.0047,-0.479,0.005791801228328297,1.0320391956874584,0.015437921613784163,0.036061983199589816
0.1479999999999999,-0.0015,0.521,0.005866615201798536,1.0231121984911344,0.015844137853836524,0.035085026908325885
0.1489999999999999,0.0025,-0.479,0.005871321675493129,1.0231121984911344,0.01586969251908744,0.035085026908325885
0.1499999999999999,-0.0012,-0.479,0.0058734352173586074,1.0416836858832033,0.015881168383688183,0.03711746077682555
0.1509999999999999,-0.0092,1.521,0.0058711980810885085,1.0336402855769067,0.015869021440517387,0.036237203915579254
0.1519999999999999,-0.0027,0.521,0.0058992429808585965,1.034439901218846,0.01602129638607662,0.036324712572163964
0.1529999999999999,-0.0035,-1.479,0.00589682009419604,1.034439901218846,0.016008140876958687,0.036324712572163964
0.15399999999999991,0.0088,0.521,0.0058932393067695375,1.0352388992400754,0.015988698332506754,0.03641215363732626
0.15499999999999992,0.0034,0.521,0.005938203484946701,1.023920035924442,0.016232839614528594,0.03517343534460425
0.15599999999999992,-0.0115,-0.479,0.005885135965777828,1.026339733112749,0.015944699751000803,0.03543824313372775
0.15699999999999992,-0.0018,0.521,0.005885855749266935,1.0255338017343956,0.015948607947946298,0.03535004329305415
0.15799999999999992,-0.0036,-0.479,0.0058659398352462425,1.0255338017343956,0.015840470826825333,0.03535004329305415
0.15899999999999992,-0.0116,0.521,0.005867366980316003,1.0247272365042588,0.01584821977367786,0.03526177408465546
0.15999999999999992,0.0021,-0.479,0.005805334953125036,1.0360372810695322,0.015511405463736626,0.03649952726744679
0.16099999999999992,0.0003,-0.479,0.005814348499278715,1.036037281069532,0.01556034617171202,0.03649952726744676
0.16199999999999992,-0.0012,-2.479,0.0057990988637229325,1.036037281069532,0.015477545468443626,0.03649952726744676
0.16299999999999992,0.0031,-0.479,0.005761514742698554,1.0255338017343951,0.015273475565188597,0.0353500432930541
0.16399999999999992,0.0042,0.521,0.005686919240737354,1.0247272365042588,0.014868445556408866,0.03526177408465546
0.16499999999999992,0.0052,0.521,0.005688343227252084,1.0255338017343951,0.014876177353305457,0.0353500432930541
0.16599999999999993,-0.0071,0.521,0.005657159683942191,1.0255338017343951,0.014706860564913063,0.0353500432930541
0.16699999999999993,-0.0024,-0.479,0.005622461655337977,1.0255338017343951,0.014518461231699727,0.0353500432930541
0.16799999999999993,-0.001,0.521,0.005610915314512038,1.0255338017343951,0.014455768248836817,0.0353500432930541
0.16899999999999993,-0.0046,-0.479,0.005641255178483005,1.0247272365042588,0.014620504124961468,0.03526177408465546
0.16999999999999993,-0.001,1.521,0.005636926670828762,1.0223037226945892,0.014597001695899283,0.03499654861059609
0.17099999999999993,-0.0087,0.521,0.005614019809109659,1.0223037226945892,0.014472624673702555,0.03499654861059609
0.17199999999999993,-0.004,1.5209999999999444,0.005621528372650131,1.0223037226945892,0.01451339380155563,0.03499654861059609
0.17299999999999993,-0.0083,-0.479,0.005588751875978487,1.0247272365042592,0.014335427779668817,0.03526177408465551
0.17399999999999993,-0.0007,-0.47899999999994447,0.0055406052647178775,1.024727236504259,0.014074006891426225,0.03526177408465548
0.17499999999999993,-0.0054,1.5209999999999444,0.005493444403511924,1.0239200359244414,0.013817938314553553,0.03517343534460418
0.17599999999999993,-0.0011,-0.479,0.005474317706334682,1.0239200359244414,0.013714086391556173,0.03517343534460418
0.17699999999999994,-0.0004,0.521,0.005459658841523543,1.0124746423665214,0.013634493386789681,0.03392086978459638
0.17799999999999994,0.0004,-0.479,0.005394450630160525,0.9807127830832646,0.013280433400242354,0.030444902719008505
0.17899999999999994,-0.0004,-2.479,0.005439538824591169,0.9798693247758987,0.01352524805134028,0.030352595991261437
0.17999999999999994,0.0036,-0.479,0.005521562757924751,0.9908569840814174,0.013970612095616423,0.03155506784699491
0.18099999999999994,0.0039,0.521,0.0056168512724760755,1.0017241297727977,0.01448799862524129,0.03274435088560138
0.18199999999999994,0.0064,0.521,0.0055571751080673295,0.9908569840814175,0.014163975905922542,0.03155506784699492
0.18299999999999994,0.0013,1.521,0.005369644143247747,0.9575158249890611,0.013145742013390332,0.02790626473694999
0.18399999999999994,0.0064,-0.479,0.005360050881444086,0.9229710435902321,0.013093653632584423,0.02412573912730596
0.18499999999999994,0.0103,-0.479,0.005358356170001293,0.9238664495327172,0.01308445188485826,0.024223730921131798
0.18599999999999994,0.0128,0.521,0.005376479444256897,0.9265474755082046,0.013182855538401374,0.02451713811463612
0.18699999999999994,0.0048,-0.479,0.005314916922434572,0.9265474755082044,0.01284859049428158,0.024517138114636097
0.18799999999999994,0.0037,-0.479,0.005163813031835517,0.9601028918313472,0.01202814410640393,0.02818938919323777
0.18899999999999995,0.0084,1.521,0.005090281438951514,0.960102891831347,0.011628890787793835,0.028189389193237747
0.18999999999999995,0.0001,-0.479,0.005043814281697751,0.9601028918313469,0.01137658880422048,0.028189389193237737
0.19099999999999995,-0.001,-0.479,0.005024826916785403,0.9301101555381537,0.011273493411402396,0.024907032117342024
0.19199999999999995,-0.0036,-0.479,0.005025197804879344,0.9592413114731706,0.011275507216578252,0.02809509921724263
0.19299999999999995,0.0008,0.521,0.0050348214581389834,0.9583789565566545,0.01132776061338859,0.028000724474822
0.19399999999999995,-0.0014,-0.479,0.005045714256107745,0.9583789565566548,0.011386905065010057,0.028000724474822034
0.19499999999999995,0.0098,-0.479,0.005008485762666479,0.9238664495327169,0.01118476610717832,0.02422373092113176
0.19599999999999995,0.0051,0.521,0.004998701643140583,0.9147877104030648,0.011131641429238132,0.023230168235449503
0.19699999999999995,0.0095,-0.479,0.005003037349872068,0.9147877104030648,0.011155182947015346,0.023230168235449503
0.19799999999999995,0.003,0.521,0.004981813690537848,0.9147877104030648,0.011039945181996373,0.023230168235449503
0.19899999999999995,0.0019,-2.479,0.005035964332023115,0.9147877104030648,0.011333966057512617,0.023230168235449503
0.19999999999999996,0.0008,0.521,0.005039315564686106,0.9147877104030648,0.011352162192121646,0.023230168235449503
0.20099999999999996,-0.0058,0.521,0.005109350497691255,0.9147877104030648,0.011732429752285228,0.023230168235449503
0.20199999999999996,-0.0014,-0.479,0.005033807536755469,0.9028747896792416,0.0113222553406031,0.021926437250380963
0.20299999999999996,-0.0069,0.521,0.005141059824738005,0.9019585448190999,0.011904601380258518,0.02182616487874604
0.20399999999999996,-0.0076,-0.47899999999994447,0.005168829705132028,0.891730276394345,0.012055383057492267,0.020706799546088006
0.20499999999999996,0.0033,1.5209999999999444,0.0050931312847307085,0.8908025687952343,0.01164436455002642,0.02060527271063905
0.20599999999999996,-0.0043,-0.479,0.0051191945235793965,0.9028747896792417,0.011785879702846265,0.021926437250380976
0.20699999999999996,-0.0007,-0.479,0.004997010300006563,0.9156911184294781,0.011122457970364458,0.02332903576453826
0.20799999999999996,-0.0043,-0.47899999999994447,0.00502278053431563,0.9452667436084844,0.011262382201102745,0.026565744867414684
0.20899999999999996,-0.0032,1.521,0.005078473097591292,0.946141049652923,0.011564775224803286,0.026661427522155084
0.20999999999999996,0.0034,0.521,0.004950924890291224,0.9575158249890608,0.010872228755319697,0.027906264736949966
0.21099999999999997,0.0008,0.521,0.004990067180576383,0.9575158249890607,0.011084759025390172,0.027906264736949953
0.21199999999999997,0.0016,0.521,0.005012182916179507,0.9583789565566578,0.011204840482716683,0.028000724474822363
0.21299999999999997,0.0009,-0.479,0.0050452342030005036,0.958378956556658,0.011384298528300352,0.028000724474822374
0.21399999999999997,-0.0013,0.521,0.00503612249005242,0.959241311473174,0.011334824805645061,0.028095099217243007
0.21499999999999997,-0.0009,-0.479,0.005048362961103465,0.9583789565566578,0.011401286696334549,0.028000724474822363
0.21599999999999997,-0.0034,-0.479,0.005025815169416334,0.9583789565566578,0.011278859310970852,0.028000724474822363
0.21699999999999997,-0.0008,-0.479,0.004982853122028745,0.958378956556658,0.01104558896660557,0.028000724474822374
0.21799999999999997,-0.0059,-0.479,0.0049771433804455395,0.9592413114731742,0.011014586873680735,0.028095099217243017
0.21899999999999997,-0.008,-1.479,0.004976955260400273,0.958378956556658,0.011013565441267486,0.028000724474822374
0.21999999999999997,-0.0051,-0.479,0.004957519773061797,0.9583789565566578,0.010908036885250319,0.028000724474822363
0.22099999999999997,-0.0087,-0.479,0.004983598102851854,0.9470145485178576,0.011049633977114134,0.026757021840461935
0.22199999999999998,-0.0029,1.521,0.004939319101467481,0.9557872234823963,0.010809212988610047,0.02771708935357249
0.22299999999999998,-0.0051,0.521,0.004941206615412425,0.9435157010033783,0.010819461593011021,0.026374113566126272
0.22399999999999998,0.0,-0.479,0.004881173050680401,0.9443916281427124,0.010493498302849938,0.02646997363089851
0.22499999999999998,-0.0029,0.521,0.0049472234836036464,0.9540554900213597,0.010852131286387231,0.02752757121411921
0.22599999999999998,-0.0003,-0.479,0.004918054949658571,0.9426389599277932,0.010693755362246246,0.0262781644254729
0.22699999999999998,0.0001,0.521,0.004919413310070184,0.9426389599277932,0.01070113083013609,0.0262781644254729
0.22799999999999998,0.007,-0.479,0.0050142495152433846,0.9426389599277933,0.011216061462735318,0.02627816442547291
0.22899999999999998,0.0096,1.521,0.005206229854213101,0.9426389599277935,0.012258454051217189,0.026278164425472924
0.22999999999999998,0.0103,1.521,0.0052600281958782745,0.9426389599277933,0.012550562050011994,0.02627816442547291
0.23099999999999998,0.0096,0.521,0.00531782552807906,0.9426389599277933,0.012864383304018774,0.02627816442547291
0.23199999999999998,-0.0017,-0.479,0.005330964252814474,0.9417614026427316,0.012935722428430153,0.026182125960160226
0.23299999999999998,-0.0002,-0.479,0.005299716239791927,0.9417614026427316,0.012766055589865887,0.026182125960160226
0.23399999999999999,0.0012,0.521,0.005310397651411382,0.93019399602527,0.012824052280393662,0.024916207486119404
0.235,-0.0053,1.5209999999999444,0.0052734193357309115,0.9644801076434347,0.01262327170876468,0.028668424688801698
0.236,-0.0017,-0.4789999999999167,0.005217224621789625,0.9644801076434351,0.01231815216559367,0.028668424688801736
0.237,0.0016,2.520999999999917,0.005090415497262654,0.9730953393720458,0.011629618682070438,0.0296112618660587
0.238,0.0023,-0.4789999999999722,0.005078248491282295,0.9730953393720455,0.01156355568350504,0.029611261866058666
0.239,-0.0039,0.5209999999999723,0.005065875486218584,0.9739446641230407,0.01149637417499809,0.029704210608011067
0.24,-0.0016999999999996003,-0.479,0.005013871783233693,0.9619048135036278,0.011214010497259123,0.028386588618238624
0.241,0.0018999999999994338,-2.479,0.005061301789618718,0.9619048135036278,0.011471540447423432,0.028386588618238624
0.242,-0.0032000000000001667,-0.479,0.0050613017896187175,0.9627640102889159,0.011471540447423429,0.028480617739830218
0.243,-0.0046999999999996,-0.479,0.0050488415127269174,0.963622440986999,0.011403885080461642,0.028574563022063727
0.244,-0.0010999999999996004,-0.479,0.005050454698561933,0.9636224409869991,0.011412644169893866,0.028574563022063737
0.245,0.0025000000000001553,0.521,0.005048813119731721,0.9636224409869991,0.011403730915467892,0.028574563022063737
0.246,0.003899999999999678,0.521,0.004960348492729607,0.963622440986999,0.010923395939372431,0.028574563022063727
0.247,0.0010000000000007217,-0.479,0.004938327842942575,0.963622440986999,0.010803830767986952,0.028574563022063727
0.248,0.007499999999999511,0.521,0.004847527097084385,0.963622440986999,0.010310811404550292,0.028574563022063727
0.249,0.0031000000000005992,-0.479,0.004842225442016562,0.9722452726763184,0.01028202509247769,0.029518231926861812
0.25,0.008499999999998746,-0.479,0.004870584117211219,0.9435157010033745,0.010436003739461632,0.02637411356612585
0.251,-0.002800000000000888,0.521,0.004870761447386156,0.9426389599277882,0.010436966586287826,0.02627816442547235
0.252,-0.010799999999999511,-0.479,0.004845480909436132,0.9540554900213557,0.01029970125206995,0.027527571214118772
0.253,-0.00639999999999929,-0.479,0.004912648873771396,0.9540554900213557,0.010664402078114109,0.027527571214118772
0.254,-6.883382752675964e-16,-0.479,0.004873303694925887,0.9540554900213557,0.010450770187259274,0.027527571214118772
0.255,-0.006199999999999634,1.521,0.004999236968448841,0.954055490021356,0.011134548076537274,0.02752757121411881
0.256,-0.0029000000000002774,1.521,0.005007490170654061,0.9417614026427278,0.011179360357087113,0.02618212596015981
0.257,-0.005399999999998479,-2.479,0.004999923214843205,0.9426389599277896,0.01113827417765365,0.026278164425472497
0.258,0.008299999999999357,0.521,0.005004230274141219,0.9426389599277895,0.01116166014891767,0.026278164425472483
0.259,0.0024999999999989896,1.521,0.004992172491363066,0.9523206075201768,0.011096190197833491,0.027337708448750324
0.26,-0.006599999999998746,-0.479,0.004994885028253364,0.9408830268643663,0.011110918416179207,0.02608599792024988
0.261,0.004699999999998823,0.521,0.004999344062229383,0.9408830268643663,0.011135129561931608,0.02608599792024988
0.2619999999999999,-0.0059,-2.479,0.005004861208227044,0.9400038302982096,0.011165085921673432,0.02598978005463677
0.2629999999999999,0.0007,0.521,0.00506138412086208,0.9400038302982096,0.011471987480064075,0.02598978005463677
0.2639999999999999,-0.0055,-0.479,0.005103594124356009,0.9696906013997515,0.011701174463679131,0.02923865278945813
0.2649999999999999,0.0021,0.521,0.005102231551722926,0.9696906013997515,0.011693776124757464,0.02923865278945813
0.2659999999999999,-0.0027,0.521,0.005101798615286204,0.9705429056508313,0.011691425416683169,0.029331927603133027
0.2669999999999999,-0.0001,0.521,0.00509989523563725,0.9705429056508313,0.011681090666521851,0.029331927603133027
0.2679999999999999,-0.0009,-0.479,0.005099626092519108,0.9713944620880361,0.011679629304420411,0.029425120577253834
0.2689999999999999,0.0013,-0.479,0.005068110483403457,0.9722452726763199,0.011508509503611907,0.029518231926861968
0.2699999999999999,-0.0052,0.521,0.005005625389863859,0.9636224409870005,0.011169235186534324,0.028574563022063883
0.2709999999999999,0.0056,-1.479,0.005015897803444914,0.9636224409870005,0.01122501114692786,0.028574563022063883
0.2719999999999999,0.0042,-0.479,0.004949744145643986,0.9636224409870005,0.010865817684916469,0.028574563022063883
0.2729999999999999,0.0031,0.521,0.00494158880126445,0.9523206075201768,0.010821536741443987,0.027337708448750324
0.2739999999999999,-0.0081,-1.479,0.004946985214068933,0.9523206075201768,0.010850837558089951,0.027337708448750324
0.2749999999999999,-0.0005,0.521,0.00495226531139189,0.9619048135036292,0.010879506818418642,0.02838658861823878
0.2759999999999999,-0.0016,-0.479,0.004946391448630574,0.9619048135036293,0.010847613599347283,0.028386588618238794
0.2769999999999999,0.0097,0.521,0.004947102561702868,0.9627640102889173,0.01085147471866872,0.028480617739830377
0.2779999999999999,0.014,-0.479,0.005047419119986345,0.9713944620880361,0.011396161937255204,0.029425120577253834
0.2789999999999999,0.0075,-2.479,0.005031002198780423,0.9713944620880361,0.011307023241685744,0.029425120577253834
0.2799999999999999,0.0086,-0.479,0.004959799532085807,0.9593226060314702,0.010920415256509091,0.028103995963643432
0.2809999999999999,0.0054,-0.479,0.0048685583932610455,0.9470968925673434,0.010425004698396786,0.026766033441499117
0.2819999999999999,0.0028,0.521,0.004800791655618286,0.9462234697176832,0.010057052722462672,0.026670447442182284
0.2829999999999999,0.0036,0.521000000000111,0.004805343502344363,0.9462234697176832,0.010081767812125665,0.026670447442182284
0.2839999999999999,0.0014,2.5209999999998334,0.004931534833456576,0.9462234697176832,0.010766946872585507,0.026670447442182284
0.2849999999999999,-0.0069,-0.4790000000000555,0.004941845745557395,0.9453492398994271,0.010822931867778567,0.026574773129513344
0.2859999999999999,-0.0058,-1.4789999999999446,0.0049192819571319095,0.9427216861725343,0.010700417625179438,0.026287217853347356
0.2869999999999999,-0.0033,-0.47899999999994447,0.004916740460244736,0.9524024928116475,0.010686618100014221,0.027346669844044276
0.2879999999999999,0.0011,0.5209999999999445,0.004918518239919723,0.9276075847303414,0.010696270881997552,0.02463315477188566
0.2889999999999999,-0.0043,-0.479,0.004954405602469739,0.9276075847303416,0.010891127922791712,0.02463315477188567
0.2899999999999999,0.0069,-0.479,0.004946992687828396,0.9267157935327915,0.010850878138242658,0.024535558569962472
0.2909999999999999,-0.001,0.521,0.004955889003357076,0.936562060259204,0.010899182320960843,0.02561311824790126
0.2919999999999999,0.0005,0.521,0.005030012802667537,0.9185658222367908,0.011301651133371527,0.02364363875010109
0.2929999999999999,0.0015,0.521,0.005036738182043557,0.9311662087478503,0.011338167818642086,0.025022604891079134
0.29399999999999993,0.0005,-0.479,0.00511984830746186,0.9311662087478503,0.011789429542778868,0.025022604891079134
0.29499999999999993,-0.0028,-0.479,0.00518260269233761,0.9320537417874523,0.012130166026734855,0.02511973508700894
0.29599999999999993,-0.0021,0.521,0.005186299923777883,0.9409659074842673,0.012150240825393541,0.026095068242694867
0.29699999999999993,-0.0013,-0.479,0.0051715911139443745,0.9740247315032501,0.012070376634934656,0.029712973054004978
0.29799999999999993,-0.002,-1.479,0.005236573616412773,0.9748732465536863,0.012423211093492146,0.02980583318362361
0.29899999999999993,-0.0056,0.521,0.005272132823047773,0.97402473150325,0.012616286351341682,0.029712973054004964
0.29999999999999993,0.0009,-0.479,0.005288691769108187,0.983397431516796,0.012706196197001291,0.03073870634852577
0.30099999999999993,-0.003,1.521,0.005220044452678639,0.9926816403297097,0.01233346295645514,0.03175475530762246
0.30199999999999994,0.0082,-0.479,0.005218529140618099,0.9918483602756709,0.012325235290697177,0.03166356247163578
0.30300000000000005,-0.0030000000000023315,0.521,0.005106793022412786,1.0010541945945737,0.011718543469503313,0.03267103425149574
0.30399999999999994,-0.0135,-0.479,0.005077528544630198,1.00187981803285,0.011559646600636058,0.03276138915970287
0.30500000000000005,-0.004399999999999756,-0.479,0.005082797174325934,1.0337911672963631,0.011588253595371894,0.036253716169567685
0.30599999999999994,-0.0033,0.521,0.005059956334706553,1.0224562773281232,0.011464235052318372,0.03501324394562474
0.30700000000000005,-0.0021999999999989567,-0.479,0.005053985083843565,1.0109943128007153,0.01143181304662264,0.03375886488522733
0.30799999999999994,0.0025,-1.479,0.005025859744115971,0.9825562778017775,0.011279101337507449,0.030646651831678175
0.30900000000000005,-0.0035999999999983124,0.521,0.005005997355058759,0.9935142214955106,0.011171254840028106,0.03184587165839851
0.30999999999999994,0.004,0.521,0.0050147635746879545,0.9825562778017775,0.011218852643113134,0.030646651831678175
0.31100000000000005,-0.0024999999999977354,-0.479,0.005000418274922053,0.9825562778017776,0.011140962197478049,0.030646651831678185
0.31199999999999994,0.0077,0.521,0.005018947867155102,0.9910143795704432,0.011241572029271127,0.031572292957503925
0.31300000000000006,0.006599999999998645,-2.479,0.004992092563557568,0.9628450074201094,0.011095756215101133,0.02848948193628436
0.31399999999999995,0.0005,0.521,0.004991846681750209,0.9628450074201094,0.011094421154568325,0.02848948193628436
0.31500000000000006,-0.0006000000000005551,0.521,0.005010934304921363,0.9628450074201094,0.011198060918057256,0.02848948193628436
0.31599999999999995,-0.0031,-0.479,0.00506708262962864,0.9619858829773354,0.01150292858234329,0.028395460731741783
0.31700000000000006,-0.0005999999999995114,0.521,0.005091002203895749,0.9731754766298987,0.011632804313730606,0.029620031959350115
0.31799999999999995,0.0016,0.521,0.005091254074110814,0.9723254799950909,0.011634171889425345,0.029527009687508182
0.31900000000000006,0.0009000000000011324,0.521,0.005099829848912787,0.9731754766298987,0.011680735637265566,0.029620031959350115
0.31999999999999995,0.006,-0.479,0.005103848182254825,0.9731754766298987,0.011702553917805487,0.029620031959350115
0.32100000000000006,-0.0030999999999992006,-0.479,0.005132723492520248,0.9731754766298987,0.011859337730003774,0.029620031959350115
0.32199999999999995,0.0005,0.521,0.005105417990937368,0.9637033659689984,0.011711077483003875,0.028583419322625498
0.32300000000000006,-0.005599999999999267,0.521,0.005088771335206465,0.9645609606686992,0.011620691401543525,0.028677273114533525
0.32399999999999995,-0.0023,-1.479,0.0050956470067181825,0.9731754766298987,0.011658024125629302,0.029620031959350115
0.32500000000000007,-0.0015999999999998446,0.521,0.005075313044557876,0.9645609606686992,0.011547617135183694,0.028677273114533525
0.32599999999999996,-0.0009,0.521,0.005157549388771752,0.9645609606686992,0.011994134503433106,0.028677273114533525
0.32699999999999985,0.01,-1.479,0.005155116605404414,0.976568064897894,0.01198092525833486,0.029991311391749976
0.32799999999999996,0.0057,-0.479,0.00507495086434384,0.976568064897894,0.01154565061104465,0.029991311391749976
0.32899999999999985,0.0046,-0.479,0.004924992486345668,0.9774143720268105,0.01073142399468934,0.030083929889969833
0.32999999999999996,-0.0041,-0.479,0.004924992486345668,0.9488413262727359,0.01073142399468934,0.02695694147537615
0.33099999999999985,-0.0052,-0.479,0.005226991615880869,0.9497123415588276,0.012371183857834117,0.027052263994787797
0.33199999999999996,-0.0027,-0.479,0.0053248488107915165,0.9505825587371661,0.01290251751028993,0.027147499170563805
0.33299999999999985,-0.0111,-0.479,0.005318375789331935,0.9619048135036254,0.012867371048778494,0.028386588618238368
0.33399999999999996,0.0034,-0.479,0.005312383654889775,0.9705429056508269,0.012834835651845582,0.02933192760313254
0.33499999999999985,-0.0024,-1.479,0.0054890548017155144,0.9488413262727398,0.013794104163600806,0.026956941475376577
0.33599999999999997,-0.0006,-1.479,0.005455594400127969,0.9488413262727395,0.013612424754085929,0.026956941475376552
0.33699999999999986,-0.0021,-1.479,0.005429226270950507,0.9514519799976523,0.013469254143104485,0.027242647242363395
0.33799999999999997,-0.0064,-0.479,0.005483775956493043,0.9514519799976525,0.013765441701782179,0.02724264724236342
0.33899999999999986,-0.0028,-0.479,0.0056058083380842345,0.9514519799976529,0.014428038980274926,0.027242647242363454
0.33999999999999997,0.0034,-1.479,0.005613407183940681,0.9636224409870017,0.014469298312580958,0.028574563022064018
0.34099999999999986,0.0088,1.521,0.0056234450983187025,0.9644801076434362,0.014523801016387077,0.028668424688801857
0.34199999999999997,0.0041,1.521,0.0056243571367863,0.9636224409870017,0.014528753097126888,0.028574563022064018
0.34299999999999986,0.0103,-0.479,0.005628767630285714,0.9636224409870017,0.014552700683426659,0.028574563022064018
0.344,0.0081,0.520999999999889,0.005635902006110017,0.9636224409870017,0.014591438090197624,0.028574563022064018
0.34499999999999986,-0.0032,-1.478999999999778,0.0056360020277664916,0.9644801076434361,0.014591981176192556,0.028668424688801843
0.346,-0.0003,2.520999999999889,0.005638276769348402,0.9653370122946913,0.014604332304325885,0.02876220296291196
0.34699999999999986,-0.0083,0.5209999999999445,0.005652247915604862,0.9644801076434361,0.014680191214610585,0.028668424688801843
0.348,-0.0097,-0.4790000000000555,0.005674534038443042,0.9653370122946913,0.014801197820793213,0.02876220296291196
0.34899999999999987,0.0052,-1.479,0.0056923044134034526,0.9566519146682007,0.014897685342654487,0.027811719773566338
0.35,-0.0006,-1.4789999999999446,0.005696657962206589,0.9679031744469491,0.01492132373724394,0.02904303964336751
0.35099999999999987,-0.0025,-0.4790000000000555,0.005702256070705718,0.9679031744469491,0.014951719697790352,0.02904303964336751
0.352,-0.001,-1.479,0.005743788377001318,0.9566519146682007,0.015177226999722562,0.027811719773566338
0.35299999999999987,0.0033,0.521,0.005697534361563706,0.9661931569682056,0.014926082308873264,0.02885589806627397
0.354,0.0023,2.521,0.005710881291686398,0.9661931569682055,0.014998551922759479,0.02885589806627396
0.35499999999999987,-0.0039,-0.479,0.005551703138606333,0.995098928770348,0.014134264840502234,0.03201929948725474
0.356,0.0015,-0.479,0.00558475221198805,0.9959294891236231,0.014313710867809902,0.03211019468354097
0.3569999999999999,0.0008,-0.479,0.0055874303293394385,1.0067418818009846,0.014328252198933467,0.03329348563989011
0.358,0.007,1.521,0.005583573157299789,1.00756284460987,0.014307308973350016,0.033383330496273005
0.3589999999999999,-0.0039,0.521,0.0055807714089412,1.0075628446098683,0.014292096364915956,0.03338333049627284
0.36,-0.0054,-0.479,0.00559522257802314,1.0075628446098683,0.014370561647489963,0.03338333049627284
0.3609999999999999,-0.0064,-1.479,0.005584809257429575,1.0075628446098681,0.014314020606535085,0.03338333049627281
0.362,-0.0028,0.521,0.00568448677918869,1.0075628446098681,0.01485523805868435,0.03338333049627281
0.3629999999999999,0.0005,0.521,0.005635064882458201,1.006741881800982,0.014586892773239756,0.03329348563988982
0.364,0.007,-0.479,0.005606354678238267,0.979025139805216,0.014431005434706715,0.030260209738643528
0.3649999999999999,0.0078,-0.479,0.005609291786838136,0.9900221682552213,0.014446953006486725,0.031463706938560335
0.366,0.0056,1.521,0.005611602742861525,1.0008983779100227,0.014459500767596096,0.032653981922822595
0.3669999999999999,0.0005,-0.479,0.005603445406236738,1.0017241297727937,0.014415209006861312,0.032744350885600945
0.368,-0.0031,0.521,0.005609574341775012,1.0008983779100222,0.01444848719052671,0.032653981922822546
0.3689999999999999,0.0024,-0.479,0.00560728369842875,1.0008983779100222,0.014436049720836779,0.032653981922822546
0.37,0.0075,0.521,0.005606774539484568,1.0000719442303974,0.01443328514862786,0.03256353834309852
0.3709999999999999,-0.0019,-0.479,0.005655031471580932,1.0008983779100222,0.014695305044155066,0.032653981922822546
0.372,-0.0009,0.521,0.005656318303756347,1.0017241297727935,0.014702292136320187,0.032744350885600924
0.3729999999999999,-0.0041,-1.479,0.005673280065307888,1.0008983779100222,0.014794389142835587,0.032653981922822546
0.374,-0.0067,0.521,0.005682847859022982,1.0000719442303974,0.014846339239966682,0.03256353834309852
0.3749999999999999,-0.0092,0.521,0.005691718609402096,0.9908569840814131,0.014894504611999492,0.03155506784699443
0.376,-0.0001,1.521,0.005712197521152059,1.0017241297727935,0.01500569863292318,0.032744350885600924
0.3769999999999999,0.0035,0.521,0.005712409454547579,1.0124746423665174,0.015006849364304988,0.03392086978459594
0.378,0.0068,0.521,0.005641820962420329,1.003373594779808,0.01462357615299368,0.03292486569706363
0.3789999999999999,0.0075,0.521,0.005612854431907627,1.003373594779808,0.014466297043671777,0.03292486569706363
0.38,0.0195,0.521,0.005594071479130127,1.00419731127279,0.014364311544166227,0.03301501191222857
0.3809999999999999,0.0115,0.521,0.0055901807427499554,1.005020352646476,0.014343186074817684,0.033105084243417855
0.382,0.001,1.521,0.005568330843177689,1.0058427205581366,0.014224548023153464,0.03319508287200051
0.3829999999999999,-0.0026,-1.479,0.0055620847066098385,1.0058427205581366,0.014190633474924648,0.03319508287200051
0.384,-0.0139,1.521,0.005517696271663608,1.0149216271385921,0.013949618296752892,0.0341886638832308
0.3849999999999999,-0.0033,-0.479,0.005519633543077839,1.0157359787364992,0.013960137068492277,0.03427778521926122
0.386,-0.0022,1.521,0.00582014739483636,1.006664416658273,0.01559183234255175,0.03328500797860476
0.3869999999999999,-0.0084,-0.479,0.005886212240639232,0.9975103593607876,0.015950543583471966,0.03228320259313298
0.388,-0.0117,0.521,0.00589533720160394,0.9882715144626169,0.0160000892386721,0.031272118188290066
0.3889999999999999,-0.0052,1.521,0.005861209431982308,0.9882715144626169,0.015814786231572932,0.031272118188290066
0.39,-0.0077,0.521,0.005854985237413791,0.9891078078573544,0.015780990821468388,0.03136364079946191
0.3909999999999999,0.0014,-0.479,0.00585228288429121,0.9797897350097764,0.01576631789776403,0.030343885814589102
0.392,-0.0023,0.521,0.005794859392744837,0.9772547861392583,0.01545452648040367,0.030066465065750416
0.3929999999999999,0.0032,0.521,0.005796109978475464,0.9652562242740494,0.015461316765824887,0.028753361651182044
0.394,0.0006,0.521,0.00570640616382133,0.9747132446179477,0.014974253392274062,0.029788322827756286
0.3949999999999999,0.0032,0.521,0.00564947319059867,1.0025492015034516,0.014665125334442584,0.03283464541580896
0.396,-0.0045,-0.479,0.00564947319059867,0.9933572221015768,0.014665125334442584,0.03182868989590267
0.3969999999999999,-0.0052,0.521,0.005662751953672495,0.960963699714549,0.014737224822789385,0.028283594630807513
0.398,0.0049,0.521,0.0056427538672635825,0.9609636997145493,0.014628641531561013,0.028283594630807547
0.3989999999999999,0.006,1.521,0.0055615524781814155,0.9618237371968009,0.014187743642704614,0.028377715756929833
0.4,-0.0027,-0.479,0.0055729406732182175,0.952238715187199,0.014249577943895328,0.027328746282845106
0.4009999999999999,0.0075,0.521,0.00565325911603499,0.9434330443829401,0.01468568171347881,0.026365067757824122
0.402,0.0038,-1.479,0.0057161471930849295,0.9443090481933384,0.015027144103703441,0.026460936213354973
0.4029999999999999,0.0049,0.521,0.005715527119234865,0.9354287343416933,0.015023777298596795,0.02548908887264611
0.404,0.0016,-2.479,0.005737516098675701,0.9345444065243532,0.015143170510008009,0.02539230945111276
0.4049999999999999,-0.0075,0.521,0.005773198899713401,0.900036615496093,0.015336916846417173,0.021615832008444552
0.406,0.0037,1.521,0.005760430547167582,0.9101715442527937,0.01526758872598404,0.022724982397160667
0.4069999999999999,-0.0007,0.520999999999889,0.005760176442977099,0.9110795295876546,0.01526620902050856,0.0228243508595629
0.40800000000000003,-0.0018,-1.478999999999889,0.005763749614516178,0.9119866109213495,0.015285610213097857,0.022923620389523794
0.4089999999999999,-0.0054,0.521,0.005722663128832758,0.9000366154960932,0.0150625235762422,0.021615832008444563
0.41000000000000003,0.0021,0.5209999999999445,0.005746177859130485,0.8991174784017467,0.01519020113277765,0.021515243115325433
0.4109999999999999,-0.0109,-0.479,0.00577095801660983,0.8991174784017466,0.015324749559124358,0.021515243115325423
0.41200000000000003,-0.0019,-0.47899999999994447,0.005742276906588951,0.9246766553947938,0.015169020192900486,0.0243123985544655
0.4129999999999999,-0.0034,0.5210000000000555,0.005735584532963681,0.9246766553947938,0.015132682718429035,0.0243123985544655
0.41400000000000003,-0.0019,1.521,0.005759003330168144,0.9363122269298041,0.01525983938857609,0.02558577688802886
0.4149999999999999,0.0017,1.5209999999999444,0.005716174753276631,0.9363122269298041,0.015027293746837322,0.02558577688802886
0.41600000000000004,0.0006,0.5209999999999445,0.005703365626090105,0.9363122269298041,0.01495774423298704,0.02558577688802886
0.4169999999999999,-0.0027,-0.479,0.005682641225565754,0.9246766553947938,0.014845217285575403,0.0243123985544655
0.41800000000000004,-0.0002,0.521,0.005723982979056652,0.9255704113130718,0.015069689945979205,0.024410209772281904
0.41899999999999993,0.0005,-0.479,0.005719941885519853,0.9345444065243532,0.015047748084772338,0.02539230945111276
0.42000000000000004,0.0095,0.521,0.005744342255399631,0.9354287343416933,0.015180234384439247,0.02548908887264611
0.42099999999999993,0.0033,0.521,0.00579623562592765,0.9354287343416929,0.015461998991794608,0.025489088872646073
0.42200000000000004,0.0044,-0.479,0.005806186247530383,0.9354287343416932,0.015516027723409214,0.025489088872646098
0.42299999999999993,-0.0065,-0.479,0.005811848792207387,0.9443090481933375,0.015546773552044238,0.026460936213354876
0.42400000000000004,0.0039,-0.479,0.0058056748727958775,0.9345444065243519,0.015513251120158871,0.025392309451112614
0.42499999999999993,-0.0051,1.521,0.005772092971297785,0.934544406524352,0.015330912004515045,0.025392309451112628
0.42600000000000005,0.001,1.521,0.0057031088233268894,0.934544406524352,0.014956349875114175,0.025392309451112628
0.42699999999999994,-0.0045,-0.479,0.005741007490620238,0.9228865469275227,0.015162127665235477,0.02411649194772146
0.42800000000000005,0.0001999999999998446,-0.479,0.0057357556313206645,0.9228865469275227,0.015133611728452552,0.02411649194772146
0.42899999999999994,-0.0005,0.521,0.0057614159646718404,0.9228865469275224,0.015272939231710367,0.024116491947721426
0.43000000000000005,0.0034999999999988677,0.521,0.005721814543344224,0.9219901893369898,0.01505791602513208,0.024018396007055787
0.43099999999999994,-0.0016,0.521,0.005379256824131301,0.9336592411044862,0.013197935833665016,0.0252954383636989
0.43200000000000005,0.0004999999999979794,-0.479,0.005266817005410903,0.9336592411044862,0.01258742314099352,0.0252954383636989
0.43299999999999994,-0.0086,-1.479,0.0052660038702423,0.9210929594603965,0.012583008073920848,0.02392020460479918
0.43400000000000005,0.0037000000000033087,0.521,0.005318443638153245,0.9119866109213474,0.012867739446442806,0.022923620389523565
0.43499999999999994,0.0186,-0.479,0.005153764709668326,0.8991174784017445,0.011973584891590741,0.02151524311532519
0.43600000000000005,0.00879999999999718,-0.479,0.005143310330179256,0.9000366154960909,0.011916820913804964,0.02161583200844432
0.43699999999999994,-0.0039,-0.479,0.0051411093899670374,0.8869941210072166,0.01190487050379308,0.02018848227768291
0.43800000000000006,0.000799999999999667,-0.479,0.005072481945373677,0.887925807693138,0.011532245161039343,0.02029044457802647
0.43899999999999995,-0.0007,0.521,0.004967848554143712,0.8869941210072166,0.010964118903365403,0.02018848227768291
0.44000000000000006,0.0028999999999986233,-0.479,0.004944693838988101,0.8737569640174957,0.010838396115312482,0.018739828994260632
0.44099999999999995,-0.0033,-1.479,0.004886282121425769,0.8737569640174958,0.01052123894289455,0.018739828994260643
0.44200000000000006,-0.004299999999999445,-0.479,0.004898890320826141,0.9101715442527917,0.010589697482344897,0.022724982397160448
0.44299999999999995,-0.0018,-1.479,0.004943559222382403,0.909262652208571,0.010832235505601633,0.022625514705936493
0.44400000000000006,-0.0011000000000004663,-2.479,0.004945405915880372,0.909262652208571,0.010842262467871894,0.022625514705936493
0.44499999999999995,-0.0032,-0.479,0.004950779396966872,0.909262652208571,0.010871438772534003,0.022625514705936493
0.44600000000000006,-0.003900000000000644,0.521,0.004941828401226586,0.9083528507332479,0.010822837693541853,0.022525947488027633
0.44699999999999995,-0.0068,0.521,0.0049626854314394,0.9083528507332479,0.0109360847782603,0.022525947488027633
0.44800000000000006,-0.0016999999999982235,0.521,0.004938391124584937,0.9083528507332479,0.010804174367312482,0.022525947488027633
0.44899999999999995,0.0063,-0.479,0.004914874185887827,0.9074421370914354,0.01067648481986608,0.022426280444077514
0.45000000000000007,0.009499999999999844,0.521,0.004879454007005073,0.8954314953713236,0.010484164438788362,0.021111855029514584
0.45099999999999996,0.0088,0.521,0.004877894393077525,0.8954314953713236,0.01047569622788878,0.021111855029514584
0.45200000000000007,0.0005000000000012213,0.521,0.004930318745494325,0.8945076263715016,0.010760343899147729,0.021010748284230572
0.45299999999999996,0.006,-0.479,0.004948326651851965,0.8851278055563905,0.010858121141452948,0.01998423570057874
0.45400000000000007,0.006799999999998623,0.521,0.004924137440694786,0.8851278055563905,0.01072678136693862,0.01998423570057874
0.45499999999999996,0.0006,-1.479,0.004946687665194536,0.8660634556622617,0.010849221961706242,0.01789786374836221
0.45599999999999985,0.0014,0.521,0.004891402641042731,0.8660634556622617,0.010549041746694883,0.01789786374836221
0.45699999999999996,-0.0022,0.521,0.004921921921127927,0.8534707024658267,0.010714751795637079,0.016519732985124456
0.45799999999999985,0.0014,0.521,0.004964002840039475,0.8660634556622625,0.01094323789075135,0.017897863748362292
0.45899999999999996,-0.0065,-0.479,0.004961768200150502,0.8554060898192212,0.01093110450214139,0.016731538680740673
0.45999999999999985,-0.0076,-0.479,0.0049464067981431345,0.8869941210072192,0.010847696942351132,0.02018848227768319
0.46099999999999997,-0.0028,2.521,0.004968275681572988,0.8869941210072194,0.0109664380703645,0.020188482277683214
0.46199999999999986,-0.0003,0.521,0.004863903394344223,0.9000366154960938,0.010399729524926798,0.021615832008444635
0.46299999999999997,0.0052,1.521,0.004865283244020871,0.9354287343416943,0.010407221672736703,0.02548908887264622
0.46399999999999986,0.0002,-0.479,0.004864783567326276,0.9354287343416939,0.010404508586147327,0.025489088872646185
0.46499999999999997,0.0068,-0.479,0.004872220753798458,0.9228865469275246,0.010444890159069659,0.02411649194772167
0.46599999999999986,0.0028,0.521,0.004870479490426566,0.9772547861392673,0.010435435649075585,0.0300664650657514
0.46699999999999997,-0.0069,0.521,0.004871304145702994,0.9882715144626261,0.01043991326669421,0.03127211818829107
0.46799999999999986,0.0022,-1.479,0.004864045134838328,0.9999939623970467,0.010400499131029878,0.03255500413601626
0.469,0.0058,0.521,0.004902281453371435,0.9991667806549612,0.010608110260709307,0.032464478689533324
0.46999999999999986,-0.0108,0.5209999999999445,0.004949140513502792,0.9999939623970466,0.010862540153094579,0.032555004136016245
0.471,-0.0039,-0.4790000000000555,0.004914615257793099,0.9991667806549611,0.010675078922114556,0.03246447868953332
0.47199999999999986,0.0027,-1.4789999999999446,0.00491902508015677,1.0099445157188318,0.010699022864359272,0.03364397677210919
0.473,-0.0031,-0.47899999999994447,0.004900035462244422,1.0107628772846242,0.010595915238462974,0.03373353695260961
0.47399999999999987,0.0024,0.521,0.0048974281414104585,1.0222274368402493,0.01058175831006237,0.034988200008743434
0.475,-0.0023,0.521,0.004913623522568131,1.0311620936413632,0.010669694113160726,0.03596599455490132
0.47599999999999987,-0.0066,0.521,0.0048953205664256086,1.0206084430851494,0.010570314843738332,0.03481101992234068
0.477,0.0025,0.521,0.0049091070078412695,1.0099445157188318,0.01064517086509108,0.03364397677210919
0.47799999999999987,0.0087,0.5209999999999445,0.004890329520205761,1.0214182607349642,0.010543215039579949,0.034899645070345535
0.479,0.0033,-0.47899999999988896,0.0049051310337918,1.0222274368402493,0.010623582582127285,0.034988200008743434
0.47999999999999987,0.0007,1.521,0.004904897572500348,1.0222274368402493,0.010622314961071855,0.034988200008743434
0.481,-0.0036,0.521,0.004897635041013187,1.0214182607349642,0.010582881709539636,0.034899645070345535
0.4819999999999999,0.0004,-0.479,0.004897635041013187,1.0214182607349642,0.010582881709539636,0.034899645070345535
0.483,-0.0079,0.521,0.004917871213167889,1.0222274368402493,0.010692757731149494,0.034988200008743434
0.4839999999999999,0.0045,-0.479,0.004877980934890893,1.0140297190720198,0.010476166122594312,0.03409105489134877
0.485,-0.0002,0.521,0.004867990510922975,1.0140297190720198,0.010421921276711465,0.03409105489134877
0.4859999999999999,-0.0016,-0.479,0.004529346843000012,1.0455703127765819,0.008583193147187243,0.03754280700599715
0.487,-0.0005,0.521,0.004597151929139127,1.0455703127765819,0.00895135334334117,0.03754280700599715
0.4879999999999999,0.0056,-0.479,0.004748547685317644,1.0463608116829808,0.00977338446910655,0.03762931794162976
0.489,-0.002,-0.479,0.004890214257234869,1.0463608116829808,0.010542589198062901,0.03762931794162976
0.4899999999999999,-0.0013,0.521,0.004890002525134354,1.0463608116829806,0.010541439559649377,0.03762931794162974
0.491,-0.0038,2.521,0.004885064006816027,1.0574394955543127,0.01051462496540117,0.03884175138021972
0.4919999999999999,0.007,-0.479,0.004885249331257707,1.0487287332882163,0.010515631218570163,0.03788845949377534
0.493,-0.0035,0.521,0.004900688677202161,1.0495168532665178,0.01059946198931406,0.03797471008332291
0.4939999999999999,-0.0024,0.521,0.004986568408019895,1.0407397823455198,0.01106576179577156,0.03701416148377034
0.495,0.0012,-0.479,0.0050554289401005285,1.013952810714108,0.011439652729942134,0.034082638163701134
0.4959999999999999,-0.0064,-0.479,0.005048902694356093,1.013952810714108,0.011404217277379024,0.034082638163701134
0.497,-0.0017,0.521,0.005052372516664834,1.013952810714108,0.011423057316298587,0.034082638163701134
0.4979999999999999,-0.001,-0.479,0.0050079940475088024,1.013952810714108,0.011182096249219132,0.034082638163701134
0.499,0.0012,0.521,0.005008707369257808,1.0447045711048333,0.011185969360957327,0.03744806162250219
0.4999999999999999,-0.0024,-0.479,0.005017628993918892,1.0447045711048333,0.011234410964268584,0.03744806162250219
0.501,-0.0104,-0.479,0.005011523766946171,1.0439128180174755,0.011201261510623915,0.037361413431311954
0.5019999999999999,-0.0057,0.521,0.0049334472086450445,1.0738069240573374,0.010777330465684439,0.04063297657007719
0.503,0.0005,0.521,0.004934856384865907,1.0730366447085269,0.010784981847364329,0.0405486784304787
0.5039999999999999,-0.005,1.521,0.004898112554794936,1.0738069240573374,0.010585474458514165,0.04063297657007719
0.505,-0.0013,0.521,0.00485219377229301,1.0730366447085269,0.010336149976595894,0.0405486784304787
0.5059999999999999,0.0066,0.521,0.004863800218989852,1.0644535265353203,0.01039916931534863,0.039609355709348135
0.507,-0.0065,1.521,0.004862745535387535,1.0722658120173314,0.010393442716593003,0.04046431973397486
0.5079999999999999,-0.001,-0.479,0.0048607541919435645,1.0722658120173314,0.010382630350815047,0.04046431973397486
0.509,0.0037,-2.479,0.004933982961379904,1.0722658120173312,0.010780239433774989,0.04046431973397483
0.5099999999999999,0.0051,0.521,0.0049099074759587176,1.0730366447085269,0.010649517154077866,0.0405486784304787
0.511,-0.004,1.521,0.004855869941234275,1.0730366447085269,0.010356110412539213,0.0405486784304787
0.5119999999999999,0.0022,2.521,0.004882279165593614,1.0423275075948506,0.010499504157375097,0.03718791959492681
0.513,0.0033,0.521,0.004882716886726124,1.0423275075948506,0.010501880844835897,0.03718791959492681
0.5139999999999999,-0.0033,-0.479,0.004876675054670145,1.0318880577963607,0.01046907560556086,0.03604544291058681
0.515,0.0011,3.521,0.00508517996630423,1.0318880577963607,0.01160119140302136,0.03604544291058681
0.5159999999999999,-0.0011,1.521,0.0050506887618785214,1.0318880577963607,0.01141391505975559,0.03604544291058681
0.517,-0.0004,1.521,0.005073692193094277,1.031086463181724,0.011538816423810055,0.03595771767839619
0.5179999999999999,0.0061,-0.479,0.005027573208048531,1.0415339475133476,0.011288404905328597,0.03710107364918824
0.519,0.0068,0.521,0.0050234790626000805,1.0326890301968359,0.011266174989002087,0.036133100048655054
0.5199999999999999,0.0075,-0.479,0.004996950065666865,1.0431204639709746,0.011122130916929665,0.037274699472114536
0.521,0.0039,1.521,0.0048808417550164785,1.0423275075948413,0.010491699472060691,0.03718791959492579
0.5219999999999999,0.0009,0.521,0.004945831023382959,1.0431204639709741,0.010844570667307225,0.03727469947211449
0.523,-0.0063,1.521,0.004966593374820365,1.0350882285521916,0.01095730367618696,0.03639566447829552
0.5239999999999999,-0.0056,-1.479,0.004992145716722214,1.035088228552192,0.011096044819992544,0.03639566447829557
0.525,0.0028,0.521,0.0050482861549380215,1.0431204639709732,0.011400869663121474,0.03727469947211439
0.5259999999999999,0.0038,0.521,0.005080907709861281,1.04232750759484,0.011577994400265123,0.03718791959492564
0.527,0.0013,1.521,0.005063924663160008,1.0423275075948393,0.011485781822111268,0.03718791959492557
0.5279999999999999,0.0038,0.521,0.005058185363638271,1.0415339475133412,0.011454619238918416,0.037101073649187535
0.529,-0.0001,0.521,0.004991505718206886,1.0415339475133414,0.011092569830248294,0.03710107364918756
0.5299999999999999,-0.0023,-0.479,0.004997229150331489,1.0415339475133418,0.011123646258487682,0.03710107364918761
0.531,-0.0016,0.521,0.004997338057728966,1.0415339475133418,0.011124237591248996,0.03710107364918761
0.5319999999999999,-0.0045,0.521,0.005017094684470737,1.0495168532665071,0.011231509832768858,0.03797471008332174
0.533,-0.0059,0.521,0.0051541407244503545,1.0503043818610764,0.011975626533063246,0.03806089595277979
0.5339999999999999,0.002,0.521,0.005100673942316441,1.0495168532665071,0.011685318797773969,0.03797471008332174
0.535,0.0053,2.521,0.005207289856271654,1.0503043818610764,0.012264209527509921,0.03806089595277979
0.5359999999999999,0.0118,-0.479,0.005308412971039921,1.0495168532665071,0.012813276092994376,0.03797471008332174
0.537,0.0125,0.521,0.005390657984148011,1.0582211281316796,0.013259840530600616,0.0389272919989879
0.5379999999999999,0.0117,-0.479,0.0053907574669563455,1.0574394955543025,0.013260380690820387,0.0388417513802186
0.539,0.0005,0.521,0.0053616944063773,1.0574394955543027,0.013102577453734866,0.03884175138021863
0.5399999999999999,0.0019,1.521,0.005373782691240554,1.0582211281316796,0.013168213021504654,0.0389272919989879
0.541,0.0033,-0.479,0.005372859251595152,1.0574394955543025,0.013163199035971325,0.0388417513802186
0.5419999999999999,-0.0058,0.521,0.005409173852669687,1.0270691058667105,0.01336037584697666,0.03551806452103059
0.543,-0.0094,-0.479,0.005423046755610391,1.0359620065232593,0.0134357013270947,0.03649128934153105
0.5439999999999999,-0.0084,0.521,0.0054287767164833385,1.0621940835653612,0.013466813204374975,0.039362085885497104
0.545,-0.0019,-0.479,0.005443975063119001,1.0614153766999566,0.013549335425010765,0.039276865451965355
0.5459999999999999,0.0043,0.521,0.005442622095433814,1.072338538161995,0.013541989237921697,0.04047227876689555
0.547,-0.0012,0.521,0.005406801919745094,1.0731093186127643,0.013347497000558107,0.04055663174629072
0.5479999999999999,-0.0019,2.521,0.005428054368363854,1.073109318612764,0.01346289108229677,0.0405566317462907
0.549,-0.007,-0.479,0.005428928484320044,1.073109318612764,0.01346763725578045,0.0405566317462907
0.5499999999999999,-0.0092,-0.479,0.00542770905038691,1.0723385381619948,0.013461016114777869,0.04047227876689552
0.551,-0.0002,2.521,0.0054226187125796235,1.0808590431509826,0.013433377188668764,0.041404749201317204
0.5519999999999999,-0.0013,-0.479,0.005381807515169325,1.0808590431509826,0.013211785280164656,0.041404749201317204
0.553,-0.00020000000000024425,0.521,0.005428270383546468,1.0800937931009098,0.013464063976492939,0.04132100146012642
0.5539999999999999,-0.0013,-0.479,0.005466644212034555,1.0793280004840808,0.013672421741784554,0.04123719434129786
0.555,0.0033999999999990227,-0.479,0.005443931333428673,1.0684762955239908,0.013549097986607753,0.040049601111620856
0.5559999999999999,-0.001,-1.479,0.005472036297806348,1.0677021704719551,0.013701699064010043,0.039964882104413964
0.557,-0.001700000000001532,0.521,0.005459833281783073,1.0677021704719551,0.013635440542288225,0.039964882104413964
0.5579999999999999,-0.0086,0.521,0.005421937810306877,1.056731085138613,0.013429680104444409,0.03876422407767953
0.559,-0.004299999999999533,0.521,0.005614560481718807,1.056731085138613,0.014475560355156167,0.03876422407767953
0.5599999999999999,-0.0022,-0.479,0.005630320653268992,1.030359934244665,0.014561133107581125,0.035878207513865445
0.561,-0.005799999999998556,-0.479,0.005611709232012843,1.040814711350112,0.014460078970044761,0.03702236159415737
0.5619999999999999,0.0007,0.521,0.005598085244891978,1.0384287436143018,0.014386105024188762,0.03676124510235289
0.5630000000000001,0.004600000000002176,0.520999999999889,0.005596886062270725,1.007485442590653,0.014379593841411718,0.033374859743121925
0.564,0.0144,-0.479,0.005643858032769808,1.006664416658271,0.014634636801422104,0.03328500797860454
0.5650000000000001,-0.003400000000000488,-0.479,0.0056343550233769624,1.0074854425906528,0.014583038462693581,0.0333748597431219
0.566,-0.0056,-0.47899999999977794,0.0056739835391829,0.942556226422327,0.014798208783729228,0.026269110202996288
0.5670000000000001,0.0008999999999996003,1.5209999999997779,0.005688368723369864,0.9399208648439807,0.014876315789170045,0.025980700448058672
0.568,-0.0009,-0.47899999999977794,0.0056917044706136085,0.9372780934016417,0.014894427842844856,0.02569147976946039
0.5690000000000001,-0.002699999999999689,1.5209999999997779,0.00566136844430979,0.9372780934016417,0.014729712804040392,0.02569147976946039
0.57,-0.0013,-0.47899999999988896,0.0056204261353362305,0.9661931569681999,0.014507409001169695,0.02885589806627334
0.5710000000000001,-0.0088999999999992,0.521,0.005603428045365372,0.9670485436824374,0.014415114742814593,0.028949510219784723
0.572,-0.0053,0.520999999999889,0.005594017550409388,0.9557872234823902,0.014364018728250251,0.02771708935357182
0.5730000000000001,0.0058999999999969355,-0.479000000000111,0.0055941407828673205,0.9557872234823902,0.014364687841564139,0.02771708935357182
0.574,-0.0079,-1.478999999999889,0.005585986785795764,0.9443916281427053,0.014320414213548334,0.026469973630897734
0.5750000000000001,-0.0061999999999974905,-0.47899999999988896,0.005564471580659273,0.9355120981784913,0.014203593446930753,0.025498212077575234
0.576,0.0051,0.520999999999889,0.005557692004121546,0.9355120981784913,0.014166782488194574,0.025498212077575234
0.5770000000000001,0.0006999999999991784,-0.479,0.005590039870305826,0.9355120981784913,0.014342421181951729,0.025498212077575234
0.578,-0.003,0.521,0.005608954648266452,0.9238664495327107,0.014445122450554274,0.02422373092113108
0.5790000000000001,-0.004099999999999267,-0.479,0.005595974422280014,0.9575158249890547,0.014374643924275513,0.027906264736949297
0.58,-0.0008,1.521,0.005647156111382954,0.9575158249890547,0.014652544326333368,0.027906264736949297
0.5810000000000001,0.005700000000001355,-1.479,0.00564338805993351,0.9575158249890546,0.014632084997398969,0.027906264736949286
0.582,0.0118,0.521,0.005641169664326961,0.9575158249890546,0.014620039810110537,0.027906264736949286
0.5829999999999999,0.0027,-0.479,0.0056512534952473685,0.9566519146681949,0.014674791826235455,0.027811719773565707
0.584,0.0114,0.521,0.005858089398300388,0.9566519146681949,0.015797845434388696,0.027811719773565707
0.5849999999999999,0.0103,-0.479,0.005923608006476814,0.9566519146681949,0.01615359077756953,0.027811719773565707
0.586,0.0095,-1.479,0.005929018396744044,0.9523206075201721,0.016182967487422324,0.027337708448749814
0.5869999999999999,-0.0006,-0.479,0.00582378953052563,0.9619048135036247,0.015611607988688821,0.028386588618238284
0.588,0.0005,-0.479,0.0056897721131359226,0.9705429056508267,0.014883935752228458,0.029331927603132517
0.5889999999999999,0.0041,0.521,0.005576999099602555,0.9713944620880316,0.014271613916988387,0.029425120577253334
0.59,0.0008,-0.479,0.005578083093550991,0.9713944620880316,0.014277499661663452,0.029425120577253334
0.5909999999999999,0.0073,0.521,0.00559980675681013,0.9593226060314657,0.014395452290029082,0.028103995963642932
0.592,0.008,-1.479,0.0055907403163894176,0.9593226060314657,0.01434622438289452,0.028103995963642932
0.5929999999999999,-0.0043,-2.479,0.005576658563746913,0.9593226060314657,0.014269764914877341,0.028103995963642932
0.594,0.0047,-0.479,0.005501851378130975,0.960184113443432,0.013863585530729352,0.028198277956521522
0.5949999999999999,-0.0,1.521,0.00545858555209252,0.9593226060314657,0.013628665764262303,0.028103995963642932
0.596,-0.0014,0.521,0.005461935257160087,0.9593226060314657,0.013646853604510789,0.028103995963642932
0.5969999999999999,-0.0051,0.521,0.0054502216007846485,0.9705429056508267,0.013583252151073902,0.029331927603132517
0.598,-0.0014,-0.479,0.0054831212112368705,0.9705429056508267,0.013761886641894061,0.029331927603132517
0.5989999999999999,-0.0004,-0.479,0.005489291154355328,0.9364787898883291,0.013795387483764382,0.025604005271733243
0.6,0.0004,-1.479,0.005496252849140292,0.9462234697176786,0.013833187287046654,0.026670447442181774
0.6009999999999999,-0.008,-0.479,0.005419511037057029,0.9558688118033853,0.013416503492385363,0.02772601824889204
0.602,-0.0091,-0.479,0.005422760689359277,0.9212622740457658,0.013434148077727723,0.023938734122143195
0.6029999999999999,-0.0065,-0.479,0.005469980568820556,0.9212622740457658,0.013690537105081245,0.023938734122143195
0.604,-0.0003,-0.479,0.00549084924539656,0.9212622740457658,0.01380384742587239,0.023938734122143195
0.6049999999999999,-0.0057,-0.479,0.005503797298576533,0.9212622740457658,0.013874151263976366,0.023938734122143195
0.606,0.0055,0.521,0.005527924654928019,0.9212622740457658,0.014005155186437496,0.023938734122143195
0.6069999999999999,0.0009,-0.479,0.005538845816428143,0.9121576158275877,0.014064453643073403,0.02294233489287944
0.608,0.0146,-0.479,0.005543796872541988,0.9121576158275877,0.01409133631359022,0.02294233489287944
0.6089999999999999,0.0056,0.521,0.0054773657148052815,0.9121576158275877,0.013730636114597782,0.02294233489287944
0.61,-0.0023,1.521,0.005480640969418816,0.9239508565818941,0.01374841971240192,0.02423296829355467
0.6109999999999999,-0.0008,-1.479,0.005556136260993697,0.923950856581894,0.014158335294514457,0.024232968293554657
0.612,-0.0019,0.521,0.005535687492403868,0.9248453139009586,0.0140473049414272,0.024330856271551005
0.6129999999999999,-0.008,-0.479,0.005608138111543233,0.9338262772658891,0.014440688914114689,0.025313718533969184
0.614,-0.0003,0.521,0.005589134428158614,0.9329404304917456,0.014337504917147647,0.025216772880233374
0.6149999999999999,-0.0068,-0.479,0.005421250430436988,0.9338262772658897,0.01342594784891403,0.025313718533969257
0.616,-0.0042,-1.479,0.005488093022877213,0.9435983503833205,0.01378888200836249,0.026383158582040114
0.6169999999999999,-0.002,-1.479,0.0054596196288258765,0.9435983503833215,0.013634280474229776,0.026383158582040225
0.618,0.0017,-0.479,0.005471970126868862,0.9311662087478471,0.013701339776724804,0.02502260489107878
0.6189999999999999,-0.0005,-2.479,0.005507561379983725,0.9320537417874506,0.013894589036835589,0.025119735087008755
0.62,0.0061,0.521,0.005508058180500199,0.9203643345511864,0.013897286506686434,0.023840465060429486
0.6209999999999999,-0.0022,0.521,0.005516517643167439,0.9203643345511868,0.013943218716381415,0.023840465060429535
0.622,-0.001,0.521,0.005487851637721243,0.9194655181395887,0.013787571363226106,0.023742100030320228
0.6229999999999999,0.0055,0.521,0.005466815634912342,0.931166208747853,0.013673352513853508,0.02502260489107944
0.624,-0.0027,0.521,0.005497957040068314,0.9409659074842737,0.013842440505382768,0.026095068242695557
0.6249999999999999,0.0006,0.521,0.005464153243332977,0.9311662087478543,0.01365889656870381,0.02502260489107957
0.626,0.0071,0.521,0.005459004980185051,0.9320537417874573,0.01363094312629532,0.025119735087009484
0.6269999999999999,-0.0048,0.521,0.0054368391825306535,0.9409659074842764,0.013510589847846439,0.026095068242695862
0.628,-0.0,2.521,0.005436939284101317,0.9418442059671306,0.013511133367750169,0.026191187823509137
0.6289999999999999,-0.0076,0.521,0.00543032121177627,0.9506645937351202,0.013475199325865005,0.027156476949495793
0.63,-0.001,-0.479,0.00542814616297375,0.9515339400398222,0.013463389498027941,0.027251616818254276
0.6309999999999999,0.0001,0.521,0.0054276187330852205,0.939206846501565,0.013460525720363534,0.02590255942299057
0.632,0.0056,-0.479,0.005398992933484971,0.9302778289563328,0.013305096672249526,0.024925382027974383
0.6329999999999999,0.0165,0.521,0.005269334797004195,0.9418442059671307,0.012601093953902145,0.026191187823509147
0.634,0.009,0.521,0.005277626914778034,0.9418442059671306,0.012646117533695034,0.026191187823509137
0.6349999999999999,-0.0059,-2.479,0.005159215543060378,0.9409659074842766,0.012003181194834173,0.026095068242695876
0.636,-0.004,-1.479,0.005087262823184321,0.9748732465536984,0.011612500657845718,0.029805833183624935
0.6369999999999999,0.0015,-1.479,0.005017609211598653,0.9654177935548396,0.011234303552519488,0.028771043534784282
0.638,-0.0032,0.521,0.005028681142601202,0.9748732465536984,0.011294420639921133,0.029805833183624935
0.6389999999999999,0.0012,0.521,0.005173978145565486,0.9757210237113353,0.012083337462505186,0.029898612559436124
0.64,-0.0053,-0.479,0.005202053391581219,0.9867548760347911,0.012235777178591017,0.031106139705150495
0.6409999999999999,0.0009,-0.479,0.005201495718465755,0.9867548760347915,0.012232749189759064,0.031106139705150544
0.642,0.0042,0.521,0.005154576466505237,0.9951772941773426,0.011977992474757783,0.03202787567202293
0.6429999999999999,-0.0023,0.521,0.005091901784991717,0.9867548760347876,0.011637688754878108,0.031106139705150117
0.644,-0.0048,-0.479,0.00508668173906492,0.9575972660313539,0.0116093455546586,0.027915177514324648
0.6449999999999999,-0.0027,-0.479,0.005083131060329263,0.9671291819837584,0.011590066490885755,0.028958335146471698
0.646,0.0024,1.521,0.005090912446983431,0.9550034115710164,0.011632316962053513,0.02763131023197654
0.6469999999999999,0.0061,0.521,0.005094745533817024,0.9541372264229777,0.011653129412577288,0.02753651631514589
0.648,0.0032,-0.479,0.005071860621776395,0.9541372264229769,0.011528871570200138,0.027536516315145802
0.6489999999999999,0.0075,-1.479,0.00508354889097114,0.9541372264229769,0.011592335179266403,0.027536516315145802
0.65,-0.0008,-1.479,0.0050915894830658205,0.9541372264229765,0.011635993054085672,0.027536516315145754
0.6509999999999999,-0.0019,-0.479,0.005091567930211841,0.9453492398994247,0.01163587602889773,0.026574773129513077
0.652,-0.0073,-0.479,0.005028642068446388,0.9748732465536791,0.011294208479605147,0.029805833183622822
0.6529999999999999,-0.0048,0.521,0.004968975823709751,0.975721023711314,0.01097023962097204,0.029898612559433792
0.654,-0.004,-0.479,0.004975749547962247,0.9850775841760392,0.011007018803648324,0.03092257956755258
0.6549999999999999,-0.0062,-0.479,0.004992418357123999,0.9859165867923352,0.011097525171239275,0.031014398671597422
0.656,0.0036,0.521,0.004969693681677097,0.9867548760347703,0.010974137362942699,0.031106139705148222
0.6569999999999999,-0.0029,0.521,0.0049537146570002,0.9867548760347703,0.010887376307181704,0.031106139705148222
0.658,0.0007,0.521,0.004973396881956045,0.9867548760347703,0.010994244570509662,0.031106139705148222
0.6589999999999999,-0.0047,1.521,0.004801021684903692,0.9867548760347703,0.010058301708809544,0.031106139705148222
0.66,-0.0094,-0.479,0.004850692173066407,0.9951772941773247,0.010327996767193924,0.03202787567202097
0.6609999999999999,-0.0033,0.521,0.004845545209683164,1.011811825282505,0.010300050382097027,0.0338483321433329
0.662,0.009,-1.479,0.00487732141527721,1.0035290271406243,0.010472585139453273,0.03294187596596212
0.6629999999999999,-0.0001,-0.479,0.004954515830566717,1.0035290271406243,0.010891726426534064,0.03294187596596212
0.664,-0.0048,0.521,0.004895679759205898,1.0035290271406243,0.010572265147055948,0.03294187596596212
0.6649999999999999,-0.0092,-1.479,0.004899228648725099,1.0027047616560227,0.010591534495948702,0.03285166967003264
0.666,-0.0002,-0.479,0.004864706271434874,1.0142604091553384,0.01040408889387701,0.03411630124499646
0.6669999999999999,-0.0038,-0.479,0.004898588287182114,1.0142604091553384,0.010588057535078963,0.03411630124499646
0.668,0.0063,0.521,0.004907155602336058,1.0059977714250903,0.010634575349703034,0.033212051390821
0.6689999999999999,-0.0028,0.521,0.004913246043444453,1.0059977714250903,0.010667644520775696,0.033212051390821
0.67,0.0033,-0.479,0.004966741500876803,0.9782599470031922,0.010958107953876127,0.03017646826258763
0.6709999999999999,-0.0069,-0.479,0.00493991318671703,0.9782599470031922,0.010812438683826437,0.03017646826258763
0.672,0.0022,1.521,0.004936498418659908,0.9774143720267989,0.01079389757209994,0.03008392988996857
0.6729999999999999,0.0083,-1.479,0.005078976160703165,0.9859165867923352,0.011567506698568618,0.031014398671597422
0.674,0.005,-0.479,0.00515670527749022,0.9850775841760392,0.01198955124585348,0.03092257956755258
0.6749999999999999,0.0057,0.521,0.0052784342041205575,0.9960077891825185,0.01265050085977896,0.032118763716717735
0.676,0.0014,-1.479,0.005285963246114318,1.006819340983473,0.012691381179163656,0.033301962648898176
0.6769999999999999,-0.0008,0.521,0.005240922224914786,1.0150752912203613,0.012446822663807285,0.03420548063449936
0.678,0.0012999999999988676,-1.479,0.005241173483187052,1.0150752912203613,0.012448186916845959,0.03420548063449936
0.6789999999999999,-0.0038,0.521,0.005245846265394292,1.0109943128007042,0.01247355864796466,0.033758864885226114
0.68,0.00019999999999966694,-0.479,0.005392494181921652,1.010176138724936,0.013269810504403673,0.03366932522333398
0.6809999999999999,-0.0013,0.521,0.005419711869224247,1.0192164451102006,0.013417593947604688,0.034658681890957305
0.682,0.001100000000000644,1.521,0.005464894301522574,1.027372777257983,0.013662920280551674,0.03555129783226124
0.6829999999999999,0.004,-0.479,0.005442754277563344,1.027372777257983,0.0135427069451249,0.03555129783226124
0.684,-0.0025999999999981567,-0.479,0.005200191337130847,1.0265676568958495,0.012225666811202183,0.03546318674790524
0.6849999999999999,0.0057,2.521,0.005121520839127587,1.0346660406393655,0.011798510861322793,0.03634946090855531
0.686,-0.004499999999999755,-0.479,0.005113948352027993,1.0068967942071494,0.011757394648738978,0.03331043900578339
0.6869999999999999,-0.0034,-1.479,0.005118088566510386,1.0093573014463582,0.01177987470536526,0.033579712981587406
0.6880000000000001,-0.012199999999998802,0.521000000000111,0.005118719121388723,1.0002278896577625,0.011783298419144165,0.03258060476117928
0.689,-0.0068,1.5209999999997779,0.005123761635175904,1.0002278896577625,0.011810677675933082,0.03258060476117928
0.6900000000000001,-0.00029999999999944486,-0.479000000000111,0.005173886485079391,1.0002278896577625,0.012082839775023878,0.03258060476117928
0.691,0.0022,-1.478999999999778,0.005147304870635992,1.0010541945945624,0.01193851000649455,0.03267103425149451
0.6920000000000001,7.993605777300232e-16,0.520999999999889,0.005158974014102381,1.001879818032839,0.01200186976889821,0.03276138915970165
0.693,0.0036,-0.479000000000111,0.005147271335408617,1.0010541945945624,0.011938327920804646,0.03267103425149451
0.6940000000000001,0.004299999999999667,-1.478999999999889,0.005156314158933506,1.0010541945945624,0.011987427595656146,0.03267103425149451
0.695,0.0028,-0.479,0.0052160729037707835,1.001879818032839,0.012311898700612283,0.03276138915970165
0.6960000000000001,0.002399999999999822,-0.47899999999988896,0.005216214911327852,1.0027047616560227,0.012312669756782885,0.03285166967003264
0.697,0.0016,0.520999999999889,0.005414385694265786,1.0027047616560227,0.013388674500272464,0.03285166967003264
0.6980000000000001,0.0036999999999985348,-0.479,0.005391220562073998,1.0027047616560227,0.013262895151004142,0.03285166967003264
0.699,-0.0029,-0.47899999999988896,0.0053971248298953925,1.0345906663246587,0.013294953459945896,0.03634121206414177
0.7000000000000001,-0.0003999999999998446,0.520999999999667,0.005345528335545705,1.034590666324659,0.013014800796447136,0.036341212064141794
0.701,0.0003,-2.478999999999667,0.005519882851965192,1.0256858759446035,0.013961490736986739,0.03536668605132261
0.7020000000000001,-0.004800000000000488,0.520999999999778,0.005531042449181197,1.034590666324659,0.014022083824231167,0.036341212064141794
0.703,-0.007,-1.478999999999778,0.005513287775215511,1.034590666324659,0.013925681553810847,0.036341212064141794
0.7040000000000001,-0.004099999999998402,0.521,0.005493546866035221,1.0426267348930816,0.013818494653684192,0.037220666551724894
0.705,0.0031,0.521,0.005484703153956634,1.0426267348930816,0.013770476091081068,0.037220666551724894
0.7060000000000001,0.0038000000000001553,0.521,0.005461490820679129,1.0426267348930816,0.013644440454829486,0.037220666551724894
0.707,0.0045,-0.479,0.005496700742895494,1.0418334027317715,0.01383561920863485,0.0371338455492076
0.7080000000000001,0.0067000000000004886,-0.479,0.005521663570613648,1.0410394660057392,0.013971159476667497,0.037046958384094324
0.709,0.0089,-1.479,0.005521441271807178,1.0410394660057392,0.013969952464378965,0.037046958384094324
0.7099999999999999,-0.0005,-2.479,0.005514531768757302,1.0386540145703353,0.013932436045729349,0.036785898395380316
0.711,0.0056,0.521,0.005452550313364867,1.0394497733172205,0.013595896324677047,0.036872984959540764
0.7119999999999999,0.0089,0.521,0.005502380217973549,1.0655959944795124,0.013866456963998781,0.03973438557337738
0.713,0.0024,-0.479,0.0054598718227349555,1.0577344477623267,0.013635649807480749,0.03887403047798399
0.7139999999999999,-0.0019,-0.479,0.005468736437707914,1.0585158625401987,0.013683781866196487,0.0389595472611239
0.715,0.0035,1.521,0.005451471706980131,1.0585158625401987,0.013590039832770785,0.0389595472611239
0.7159999999999999,0.0071,-1.479,0.005382528979681934,1.0506013372262164,0.01321570260453668,0.03809339427285516
0.717,0.0035,0.521,0.005490048817046762,1.0616357700802135,0.01379950135281138,0.03930098495090321
0.7179999999999999,-0.003,-0.479,0.005538224278153443,1.062414315406167,0.014061078886603646,0.03938618770581586
0.719,-0.0073,0.521,0.005502124348493953,1.0616357700802135,0.013865067673561118,0.03930098495090321
0.7199999999999999,-0.0033,0.521,0.005520696925375536,1.0608566533927482,0.013965910898415647,0.03921571966710079
0.721,-0.0012,-0.479,0.005517921471830258,1.069468638989248,0.013950841062510579,0.040158201592852875
0.7219999999999999,-0.012,-1.479,0.00548463718141473,1.069468638989248,0.013770117881021155,0.040158201592852875
0.723,-0.0105,-0.479,0.005480632581560312,1.0671467387304685,0.013748374168980209,0.039904096543235956
0.7239999999999999,-0.0116,1.521,0.005419053470178785,1.058515862540199,0.013414019048795068,0.038959547261123925
0.725,-0.0029,1.521,0.005399948602697706,1.059296700889495,0.01331028565415122,0.03904500096084268
0.7259999999999999,-0.0018,-1.479,0.005423344555486564,1.0671467387304685,0.013437318286338751,0.039904096543235956
0.727,0.0048,0.521,0.0054273260402494545,1.058515862540199,0.01345893649073543,0.038959547261123925
0.7279999999999999,0.0022,-2.479,0.005447189811764428,1.058515862540199,0.01356679049452366,0.038959547261123925
0.729,0.0146,-0.479,0.0054555123368743045,1.0506013372262166,0.013611979176544676,0.038093394272855186
0.7299999999999999,0.0055,-1.479,0.005442357703172903,1.058515862540199,0.013540553671474087,0.038959547261123925
0.731,0.007,-1.479,0.005462690904890631,1.059296700889495,0.013650956532956744,0.03904500096084268
0.7319999999999999,0.0027,-0.479,0.005465661179613426,1.058515862540199,0.013667084186306102,0.038959547261123925
0.733,0.0038,-0.479,0.005558655595587229,1.0482376457574278,0.014172014485426907,0.03783471566007473
0.7339999999999999,0.0002,-1.479,0.0055639163570019405,1.0482376457574276,0.014200578757882599,0.03783471566007471
0.735,-0.0052,-0.479,0.0055671856830425085,1.0490261346836032,0.014218330165408535,0.03792100662668735
0.7359999999999999,-0.0045,1.521,0.00558551608562457,1.0184048766168234,0.014317858460326507,0.03456986513343408
0.737,0.0017,-0.479,0.0057356201524379905,1.0184048766168234,0.015132876120921316,0.03456986513343408
0.7379999999999999,0.0039,0.521,0.005776976618352338,1.0101761387249357,0.015357428665136372,0.03366932522333396
0.739,-0.0073,0.521,0.005685261223701454,1.0101761387249353,0.014859443047719308,0.033669325223333914
0.7399999999999999,0.0007,0.521,0.00564776411271444,0.999400901532053,0.01465584558147819,0.032490100503762775
0.741,-0.0036,0.521,0.005648937294947365,1.0313889517449368,0.014662215590360883,0.035990821542816326
0.7419999999999999,-0.0024,-0.479,0.005752967428546151,1.0498140313957416,0.015227066349684,0.03800723278234323
0.743,0.0038,0.521,0.0058961235813119175,1.0577344477623327,0.0160043590320464,0.03887403047798464
0.7439999999999999,0.0092,0.521,0.005905516906653705,1.0577344477623323,0.01605536182103003,0.03887403047798459
0.745,0.0027,0.521,0.005889964976404789,1.0498140313957434,0.015970919753081528,0.03800723278234342
0.7459999999999999,0.0147,1.521,0.005883532497558738,1.060856653392755,0.015935993425152978,0.03921571966710154
0.747,0.0035,0.521,0.0058812925790407405,1.0717855091294948,0.015923831375255087,0.04041175615434503
0.7479999999999999,-0.0041,2.521,0.005879478837999031,1.0717855091294952,0.01591398333441169,0.04041175615434508
0.749,0.001,-1.479,0.0058705408737806854,1.097914768571622,0.015865453012466644,0.043271300504663116
0.7499999999999999,-0.0138,-0.479,0.0058639684749753505,1.123436469283148,0.015829766963363932,0.04606435459951014
0.751,-0.004,-1.479,0.005865545166200708,1.1308413513765299,0.015838327898595413,0.04687473304907165
0.7519999999999999,-0.0058,-0.479,0.005869915399679962,1.113757528032587,0.015862056885705012,0.04500510675395203
0.753,-0.0011,-1.479,0.0058518441798033945,1.121226334295163,0.01576393587099459,0.04582248096232073
0.7539999999999999,-0.0025,-0.479,0.005816325425255133,1.1130148974668403,0.015571080255196061,0.04492383445293798
0.755,-0.0036,-0.479,0.005806565013956846,1.1122717710690022,0.015518084305441673,0.04484250788885311
0.7559999999999999,-0.0072,-0.479,0.005826026349421621,1.1219635297027801,0.015623753208618477,0.04590315844832454
0.757,-0.006,-0.479,0.005818844786538808,1.1212263342951656,0.015584759591027557,0.04582248096232102
0.7579999999999999,0.0005,0.521,0.005837765269355351,1.1212263342951656,0.015687491835195407,0.04582248096232102
0.759,-0.0038,-1.479,0.005803151012030087,1.1219635297027801,0.015499547353561008,0.04590315844832454
0.7599999999999999,-0.0045,0.521,0.005735511379345612,1.12196352970278,0.015132285517394255,0.045903158448324516
0.761,-0.0081,-2.479,0.005747139538777869,1.0971614146430602,0.015195422749440617,0.04318885465597842
0.7619999999999999,-0.0059,0.521,0.005720886935720128,1.0971614146430602,0.015052879408791226,0.04318885465597842
0.763,0.0031,0.521,0.005686179212261314,1.0971614146430602,0.014864427435580299,0.04318885465597842
0.7639999999999999,0.002,0.521,0.0056995362634196705,1.0979147685716348,0.014936952003492644,0.043271300504664524
0.765,0.0031,0.521,0.005705318305700883,1.0979147685716348,0.014968346666365779,0.043271300504664524
0.7659999999999999,0.0108,1.521,0.0056983085768175235,1.0872485918663737,0.014930286053104576,0.042104011190377676
0.767,0.0082,0.521,0.005662702083085699,1.0795447369366882,0.01473695404125864,0.041260913631924294
0.7679999999999999,-0.0001,-0.479,0.0056517903954255684,1.0872485918663695,0.014677707024580836,0.04210401119037721
0.769,0.0053,-0.479,0.005716569003215632,1.0880088096065894,0.015029434399451175,0.04218720820362867
0.7699999999999999,0.0028,-1.479,0.005760717452509357,1.0956531528039541,0.015269146531348211,0.04302379289330702
0.771,-0.0033,-0.479,0.005824237884167606,1.105490615299553,0.01561404240731691,0.04410038905031106
0.7719999999999999,0.0007,-1.479,0.005829222539385219,1.1054906152995527,0.015641107510352262,0.04410038905031103
0.773,0.0014,-0.479,0.005704688658132199,1.0979147685716213,0.014964927878991646,0.043271300504663046
0.7739999999999999,0.0021,0.521,0.00561255689341168,1.0986676059272094,0.014464681503639772,0.04335368982042794
0.775,0.0076,-1.479,0.005510182559443166,1.1174632779559048,0.013908821213194195,0.0454106580968971
0.7759999999999999,0.0025,-0.479,0.005693365689834361,1.1069854737292908,0.014903447738386501,0.04426398396530472
0.777,0.0047,0.521,0.00571721222254686,1.0986676059272018,0.01503292687720821,0.043353689820427116
0.7779999999999999,-0.0033,0.521,0.005713219619888046,1.0979147685716144,0.015011248306149133,0.04327130050466229
0.779,-0.0,-1.479,0.005717967538400745,1.0725566870082446,0.015037028003668755,0.040496152627622566
0.7799999999999999,0.0047,0.521,0.005530066528858035,1.0733273108014387,0.014016784885197758,0.04058048846266334
0.781,0.0022,-0.479,0.005509700089999667,1.0655228081296717,0.013906201556542,0.03972637617633837
0.7819999999999999,-0.0102,0.521,0.005465220880522953,1.0576607174216284,0.01366469350134801,0.03886596154745582
0.783,-0.0047,-0.479,0.005495711303572288,1.0576607174216281,0.013830246865702252,0.03886596154745579
0.7839999999999999,0.0032,0.521,0.005485801807982439,1.058442186632307,0.013776441435344707,0.03895148428763501
0.785,-0.0073,0.521,0.005510480305936885,1.050527106254414,0.013910437882588389,0.03808527055405989
0.7859999999999999,-0.0138,-0.479,0.005486176221636681,1.0513138780789586,0.013778474383199174,0.038171373603817164
0.787,-0.0077,0.521,0.005469149230190952,1.048951792239748,0.013686023198966333,0.037912870708568976
0.7879999999999999,-0.0066,0.521,0.005467353342362704,1.0497397447506338,0.013676272095431685,0.037999102970750494
0.789,-0.0019,0.521,0.005459587523025376,1.049739744750634,0.013634106149876205,0.03799910297075052
0.7899999999999999,-0.0012,2.521,0.0054640537757260285,1.049739744750634,0.013658356491022764,0.03799910297075052
0.791,0.0111,-2.479,0.005512322046278708,1.0497397447506338,0.01392043795078562,0.037999102970750494
0.7919999999999999,0.0129,-1.479,0.005501716114515336,1.0600033966810072,0.01386285109203011,0.03912234061765493
0.793,0.0049,-0.479,0.005502749488244271,1.060783140062765,0.013868461984905675,0.0392076744858781
0.7939999999999999,0.0005,0.521,0.005502065475424615,1.0600033966810072,0.013864748011394312,0.03912234061765493
0.795,-0.0006,1.521,0.005425267382859905,1.0600033966810072,0.013447758631499395,0.03912234061765493
0.7959999999999999,-0.0018,1.521,0.005428599338927321,1.0592230792940296,0.013465850100284485,0.039036943931218836
0.797,-0.0007,0.521,0.0053021023003142894,1.048951792239748,0.012779011144677008,0.037912870708568976
0.7979999999999999,0.0018,-2.479,0.0052904589620894685,1.0481632473888944,0.012715791496582442,0.03782657362164904
0.799,-0.0008,-2.479,0.0052945555863535216,1.0256858759446021,0.012738034872094543,0.03536668605132246
0.7999999999999999,0.0014,-1.479,0.005293662456968428,1.0256858759446021,0.012733185461698803,0.03536668605132246
0.801,-0.0023,-1.479,0.0051176714889161245,1.0345906663246578,0.011777610105795255,0.036341212064141676
0.8019999999999999,0.0013,-1.479,0.005103075984527166,1.0369854650112218,0.011698361128103822,0.03660329500106841
0.803,0.0026999999999999112,-0.479,0.005070177821352092,1.0377825031819945,0.011519734495541339,0.03669052158333221
0.8039999999999999,0.0023,-0.479,0.005128883388399108,1.0289053373254669,0.01183848717782558,0.03571901875417267
0.805,-0.00569999999999929,1.521,0.0051702717780313,1.0297086298769083,0.01206321305774291,0.03580692980585075
0.8059999999999999,-0.0025,-0.479,0.005179978865260916,1.029708629876908,0.012115919474651024,0.03580692980585073
0.807,0.006499999999998068,-0.479,0.005208476306528766,1.05687867038307,0.0122706515775722,0.03878037557071791
0.8079999999999999,-0.0022,0.521,0.005173960910797198,1.057660717421628,0.012083243883158344,0.03886596154745577
0.809,-0.001200000000000555,-1.479,0.005175562795552627,1.0678482394249567,0.012091941611298748,0.039980867656941296
0.8099999999999999,-0.0037,0.521,0.005169911833202386,1.0592230792940296,0.012061258671038855,0.039036943931218836
0.811,-0.0011999999999983346,0.521,0.005150743471489999,1.0848928628720378,0.011957180522778667,0.04184620397806254
0.8119999999999999,0.0063,0.521,0.005095792729306271,1.0848928628720378,0.011658815353244655,0.04184620397806254
0.8130000000000001,-0.004599999999999689,0.520999999999889,0.005111044347869962,1.084130460158988,0.011741626823619506,0.04176276784488023
0.814,-0.0032,-0.479,0.005101782696609292,1.083367520917252,0.011691338983296704,0.041679272994856846
0.8150000000000001,-0.002100000000000244,-0.47899999999988896,0.005128623043848464,1.083367520917252,0.011837073589165931,0.041679272994856846
0.816,-0.0032,0.520999999999778,0.005164309189318363,1.1122016561355617,0.012030838084785334,0.04483483462271111
0.8170000000000001,-2.020605904817559e-15,-1.478999999999778,0.005112585619274829,1.101673810789016,0.011749995440415861,0.04368268407101196
0.818,-0.0091,0.520999999999778,0.0050563979262673656,1.100923029149743,0.011444914018697393,0.04360051972955173
0.8190000000000001,-0.010199999999999779,-1.478999999999667,0.005058655843301704,1.101673810789016,0.011457173794852766,0.04368268407101196
0.82,-0.0092,1.5209999999997779,0.0050875494974281,1.101673810789016,0.011614057208420781,0.04368268407101196
0.8210000000000001,-0.002699999999999445,-0.47899999999988896,0.005080022528983477,1.09331553297506,0.011573188147752805,0.04276796751908577
0.822,-0.0002,0.521,0.005073379832436542,1.0940715350975392,0.011537120404122289,0.042850703181876074
0.8230000000000001,-0.0023999999999984676,0.5210000000002221,0.00510495393219456,1.0856547301867352,0.011708557790639965,0.04192958151810573
0.824,0.0045,2.520999999999667,0.005124720479085754,1.111457986000613,0.011815883895437133,0.04475344855290678
0.8250000000000001,0.01459999999999798,-0.479,0.005122596546838559,1.1211567793625858,0.011804351614346292,0.0458148689817773
0.826,0.0055,-0.479,0.0050666592557183044,1.1129448293499695,0.011500629795766194,0.04491616631032647
0.8270000000000001,0.004299999999999755,-0.47899999999988896,0.005062992109705297,1.113687506638635,0.011480718351472708,0.04499744372462198
0.828,0.0032,0.521,0.005041236208337893,1.1129448293499695,0.01136259068036415,0.04491616631032647
0.8290000000000001,-0.0014999999999990453,0.521,0.005030611309843817,1.1122016561355614,0.011304900838253057,0.04483483462271109
0.83,0.0028,0.521,0.005053328931912097,1.1046718347287485,0.011428250348932079,0.04401078301457247
0.8310000000000001,0.0005999999999984456,0.520999999999889,0.005031764286052418,1.1039230920570657,0.011311161134807337,0.04392884181446327
0.832,-0.0064,-0.47899999999988896,0.005035918119518761,1.1046718347287485,0.011333715138213834,0.04401078301457247
0.8330000000000001,0.0019000000000007327,0.521,0.00493968637268264,1.1046718347287485,0.010811207155276795,0.04401078301457247
0.834,0.0052,0.521,0.004917756223675953,1.1054200702489194,0.010692133374536781,0.04409266871283158
0.8350000000000001,0.00040000000000017767,0.521,0.005005839825073093,1.1054200702489194,0.011170399501974203,0.04409266871283158
0.836,0.0012,-1.479,0.004953948512004011,1.1054200702489194,0.010888646065970863,0.04409266871283158
0.8370000000000001,-0.0009999999999992007,0.521,0.0047632749514494805,1.1054200702489194,0.009853348871434476,0.04409266871283158
0.838,0.0026,0.521,0.004700955543732979,1.1054200702489194,0.009514974176031381,0.04409266871283158
0.8389999999999999,0.0076,0.521,0.004655920476303513,1.1129448293499695,0.009270447987765499,0.04491616631032647
0.84,0.0073,0.521,0.004697098412217894,1.1122016561355617,0.00949403117048351,0.04483483462271111
0.8409999999999999,-0.0011,1.521,0.004698627067718225,1.083367520917252,0.009502331286903963,0.041679272994856846
0.842,0.0026,0.521,0.004631221350628683,1.057660717421628,0.009136339538517023,0.03886596154745577
0.8429999999999999,0.0037,-0.479,0.00447038104633361,1.0497397447506338,0.008263027500283777,0.037999102970750494
0.844,-0.001,0.521,0.004647170483429487,1.050527106254414,0.00922293829083454,0.03808527055405989
0.8449999999999999,0.0033,-0.479,0.004680672244691592,1.060783140062765,0.009404842270315563,0.0392076744858781
0.846,-0.009,0.521,0.004684517966562073,1.050527106254414,0.009425723325097866,0.03808527055405989
0.8469999999999999,0.0001,-0.479,0.004681949966590921,1.0481632473888944,0.009411779896559738,0.03782657362164904
0.848,-0.0046,-1.479,0.0047028941066287085,1.0481632473888944,0.009525499960107285,0.03782657362164904
0.8489999999999999,-0.0003,-1.479,0.004711580030465574,1.021570947597509,0.009572661782407715,0.03491635487630558
0.85,0.0026,-1.479,0.004718017863705713,1.005097944500863,0.009607617183004558,0.03311357577182624
0.8509999999999999,-0.001,1.521,0.004715907234514878,0.9959294891236059,0.00959615713330693,0.03211019468353908
0.852,0.0001,0.521,0.0047280532170560444,0.9866758416887247,0.009662105981239422,0.03109749031276049
0.8529999999999999,0.0078,-0.479,0.004788321012331488,0.9781802262898421,0.009989341069251092,0.030167743755260188
0.854,-0.007,0.521,0.004831403209147919,0.9781802262898421,0.01022326378705632,0.030167743755260188
0.8549999999999999,-0.0048,-0.479,0.004830486735344443,0.9790251398052011,0.010218287623843938,0.0302602097386419
0.856,0.009,-2.479,0.004799523613378278,0.9679031744469314,0.010050167653710529,0.02904303964336558
0.8569999999999999,-0.0,0.521,0.004793326152645742,0.9679031744469314,0.01001651739988937,0.02904303964336558
0.858,-0.0014,1.521,0.004801847583245065,0.9679031744469314,0.010062786075878103,0.02904303964336558
0.8589999999999999,0.0029,-0.479,0.004800575227642596,0.9679031744469314,0.010055877586930514,0.02904303964336558
0.86,-0.0006,-2.479,0.0048886504415974535,0.9592413114731559,0.010534098173206177,0.028095099217241026
0.8609999999999999,0.003,-2.479,0.0049369583864093056,0.9583789565566397,0.010796395051662097,0.028000724474820382
0.862,-0.0071,-0.479,0.004936958386409309,0.9575158249890426,0.010796395051662114,0.027906264736947975
0.8629999999999999,-0.0005,-0.479,0.004921013516132002,0.9566519146681828,0.010709819443500532,0.02781171977356438
0.864,0.0056,0.521,0.0048998366137036516,0.9566519146681834,0.010594835553708578,0.027811719773564454
0.8649999999999999,0.0068,2.521,0.004889512410704791,0.9566519146681834,0.010538778393138128,0.027811719773564454
0.866,-0.008,-0.479,0.004885913901188711,0.9661931569681891,0.010519239623338712,0.02885589806627216
0.8669999999999999,0.0032,-0.479,0.004875560216352004,0.9661931569681904,0.010463022385702922,0.028855898066272305
0.868,0.0015,0.521,0.004881531097062553,0.9566519146681886,0.01049544238158785,0.027811719773565013
0.8689999999999999,-0.0076,-0.479,0.0048135971556875845,0.9566519146681899,0.010126582542212322,0.02781171977356516
0.87,0.0005,-0.479,0.004746397320416238,0.9478872424347827,0.00976170866705418,0.02685252806654643
0.8709999999999999,0.002,0.521,0.004793838124505906,0.9355120981784951,0.010019297245343393,0.025498212077575647
0.872,0.0057,-0.479,0.004798269680038279,0.9478872424347871,0.010043359191828027,0.0268525280665469
0.8729999999999999,0.0047,-2.479,0.00481646079002526,0.9478872424347871,0.010142131171961258,0.0268525280665469
0.874,0.0015,1.521,0.004919291332632795,0.9470145485178543,0.010700468531187255,0.026757021840461567
0.8749999999999999,-0.001,-0.479,0.004902676957794456,0.9220747681397131,0.01061025772477506,0.024027652175911993
0.876,0.0016,0.521,0.004738171173305823,0.922074768139713,0.00971704328712165,0.024027652175911983
0.8769999999999999,-0.0005,-0.479,0.004787804445304601,0.922074768139713,0.00998653627349351,0.024027652175911983
0.878,0.0003,-0.479,0.004789647823744947,0.9319700686040082,0.009996545236048199,0.02511057802767779
0.8789999999999999,-0.0048,0.521,0.004800811013098,0.9310824558048622,0.010057157827461936,0.025013439102991086
0.88,-0.0007,-0.479,0.004799523263413624,0.9644801076434425,0.010050165753513023,0.02866842468880255
0.8809999999999999,0.003,0.521,0.004836699914977772,0.963622440987008,0.010252023226330351,0.028574563022064712
0.882,-0.0028,0.521,0.004842697140813164,0.9627640102889256,0.010284586267919992,0.028480617739831276
0.8829999999999999,-0.0006,0.521,0.00481304593771135,0.9636224409870092,0.010123589602747016,0.028574563022064844
0.884,-0.0099,0.521,0.004813045937711347,0.9636224409870092,0.010123589602747002,0.028574563022064844
0.8849999999999999,-0.0012,0.521,0.004792829690013183,0.962764010288926,0.010013821764641434,0.028480617739831324
0.886,-0.0022,-0.479,0.004795367102905577,0.9739446641230507,0.010027599115005252,0.02970421060801216
0.8869999999999999,0.0003,0.521,0.004794189381990793,0.9739446641230507,0.010021204462513962,0.02970421060801216
0.888,0.0011,-1.479,0.004802639816904572,0.9824769057038789,0.010067087654359774,0.03063796547626801
0.8889999999999999,-0.0065,-0.479,0.004823780934936567,0.9816349631993152,0.010181877246184844,0.030545824635554546
0.89,-0.0017,0.521,0.004779142971208467,0.9816349631993152,0.009939507205560872,0.030545824635554546
0.8909999999999999,-0.0078,0.521,0.004751539899282776,0.9816349631993153,0.00978963124561056,0.03054582463555456
0.892,0.0045,0.521,0.0047527091970597886,0.9705429056508394,0.009795980163124862,0.029331927603133915
0.8929999999999999,0.0136,0.521,0.004752709197059795,0.9705429056508394,0.009795980163124895,0.029331927603133915
0.894,0.0056,1.521,0.0047942916425983365,0.9713944620880443,0.010021759705305848,0.029425120577254722
0.8949999999999999,-0.002,0.521,0.004794813438870837,0.9713944620880443,0.01002459289421504,0.029425120577254722
0.896,-0.0009,-1.479,0.004791457232228776,0.9722452726763275,0.010006369752471085,0.029518231926862808
0.8969999999999999,-0.0045,0.521,0.004772050312802782,0.9713944620880427,0.009900996311193266,0.029425120577254552
0.898,-0.0034,0.521,0.004781543661706014,0.983318127315674,0.009952542196515214,0.030730027423630204
0.8989999999999999,-0.0026,1.521,0.004876405421495639,0.9739446641230454,0.010467611582608187,0.029704210608011577
0.9,-0.0001,-0.479,0.00516791093577192,0.9739446641230454,0.01205039443013261,0.029704210608011577
0.9009999999999999,-0.0041,-0.479,0.005161938552407929,0.9739446641230438,0.01201796627531422,0.029704210608011407
0.902,-0.0077,0.521,0.005169214598451689,0.9619048135036307,0.012057472906619132,0.02838658861823894
0.9029999999999999,-0.007,-0.479,0.005181627590618733,0.9619048135036299,0.0121248715324641,0.028386588618238857
0.904,0.0021,0.521,0.0051599249544592935,0.9619048135036294,0.012007033074606772,0.028386588618238805
0.9049999999999999,-0.0016,0.521,0.005120551762328813,0.9619048135036294,0.011793249080464748,0.028386588618238805
0.906,-0.0005,-0.479,0.0051000179533148724,0.9627640102889161,0.011681756984741288,0.028480617739830242
0.9069999999999999,0.0071,-0.479,0.005028770928700977,0.9426389599277852,0.011294908150076896,0.026278164425472022
0.908,-0.0019,0.521,0.005040840886736029,0.9426389599277853,0.011360444208959517,0.026278164425472036
0.9089999999999999,0.0093,0.521,0.005059762735639937,0.9310824558048498,0.01146318387055017,0.025013439102989737
0.91,0.0078,-0.479,0.005063382578092664,0.9319700686039959,0.011482838471455892,0.02511057802767644
0.9109999999999999,-0.0012,-0.479,0.005128796945594248,0.9019585448190937,0.011838017820704963,0.02182616487874536
0.912,0.0049,-0.479,0.005174377014217428,0.8699635366522382,0.012085503193271127,0.018324682372340875
0.9129999999999999,-0.0005,0.521,0.0052163458654426835,0.8832575466061775,0.012313380796254238,0.019779557553210703
0.914,0.0002,-0.479,0.0052515071984324205,0.8832575466061775,0.012504295725909753,0.019779557553210703
0.9149999999999999,0.0009,-1.479,0.0052666306630568,0.8832575466061775,0.012586411360881664,0.019779557553210703
0.916,0.0002,0.521,0.0052235557596146676,0.8456848620132228,0.012352528243794689,0.015667663062207845
0.9169999999999999,0.0024,-0.479,0.005235171089610188,0.8564632021121379,0.012415595816052758,0.01684722735885101
0.918,-0.0041,0.521,0.005243675363187057,0.8699635366522382,0.01246177133482997,0.018324682372340875
0.9189999999999999,-0.0063,0.521,0.005242470232812909,0.8699635366522382,0.012455227857633769,0.018324682372340875
0.92,-0.0114,-0.479,0.0051875179028471165,0.8699635366522382,0.012156854066944776,0.018324682372340875
0.9209999999999999,-0.0034,1.521,0.0051882539611053,0.8709134425249258,0.012160850630744688,0.018428638551336064
0.922,-0.0042,0.521,0.005184378034599395,0.8699635366522382,0.012139805574334549,0.018324682372340875
0.9229999999999999,-0.0103,-0.479,0.005153606382816602,0.8699635366522382,0.011972725226805897,0.018324682372340875
0.924,0.002,-1.479,0.005135953467191305,0.8367460150109851,0.011876875472025497,0.01468940994714269
0.9249999999999999,0.0074,-0.479,0.0051340570597120695,0.823705180492764,0.011866578578543042,0.013262241880913848
0.926,0.0088,-0.479,0.005192239991519259,0.8247083688412309,0.012182493516590563,0.013372029208814097
0.9269999999999999,0.0045,-1.479,0.005189744175952747,0.8247083688412309,0.012168942026564494,0.013372029208814097
0.928,-0.0045999999999992,-0.479,0.005194999841779266,0.8247083688412309,0.01219747863158614,0.013372029208814097
0.9289999999999999,-0.001,2.521,0.005239043376958879,0.8247083688412309,0.012436621112988943,0.013372029208814097
0.93,0.006599999999997979,-0.479,0.0052525154789858945,0.823705180492764,0.012509770370770222,0.013262241880913848
0.9309999999999999,-0.0025,-0.479,0.005340641323924277,0.823705180492764,0.012988265867290641,0.013262241880913848
0.932,-0.003499999999998801,0.521,0.005385827855810037,0.8227007688731488,0.013233614459702208,0.01315232068017619
0.9329999999999999,0.0019,0.521,0.005390558618205961,0.8357572759902345,0.013259301004927854,0.014581203930550886
0.934,-0.002799999999999023,-0.479,0.005425623087128437,0.8357572759902345,0.013449689993300292,0.014581203930550886
0.9349999999999999,0.0016,1.521,0.00533787370791156,0.8357572759902345,0.012973238586711271,0.014581203930550886
0.936,-0.0005999999999992006,-1.479,0.005577424972771255,0.8357572759902346,0.014273926273748815,0.014581203930550898
0.9369999999999999,0.003,-1.479,0.005578362780825115,0.8367460150109851,0.014279018275200676,0.01468940994714269
0.9380000000000001,0.005199999999997979,-0.47899999999988896,0.005594166717260553,0.8357572759902345,0.014364828657125971,0.014581203930550886
0.939,-0.0039,0.521,0.005593269375624256,0.8257103383771517,0.01435995637553697,0.013481683151819222
0.9400000000000001,0.005199999999999178,0.521,0.005568607371968792,0.8367460150109851,0.014226049487125738,0.01468940994714269
0.941,0.0015,0.521,0.005615210112171854,0.8367460150109851,0.014479087643279221,0.01468940994714269
0.9420000000000001,0.0026000000000010433,0.521,0.00556245160403112,0.8367460150109851,0.014192625612008732,0.01468940994714269
0.943,0.0073,0.521,0.005563045146904392,0.8357572759902345,0.014195848362293297,0.014581203930550886
0.9440000000000001,0.0011999999999991117,0.521,0.00539729204958043,0.8456848620132227,0.013295861410006127,0.015667663062207834
0.945,-0.0028,0.520999999999889,0.005369173764684352,0.8327840155599631,0.013143188006397247,0.014255815065847763
0.9460000000000001,-0.00789999999999758,-0.47899999999977794,0.005389812127134364,0.8327840155599631,0.01325524779424713,0.014255815065847763
0.947,0.003,1.5209999999997779,0.005389090298177368,0.8227007688731488,0.01325132849105722,0.01315232068017619
0.9480000000000001,0.010600000000001443,-0.479000000000111,0.00539373715717161,0.8216951294965327,0.013276559467319232,0.01304226511567658
0.949,0.0171,-1.479,0.005456397618004452,0.8216951294965327,0.013616785973395547,0.01304226511567658
0.9500000000000001,0.0008000000000004664,-1.478999999999889,0.005476106490226369,0.8073881020339785,0.013723798922959631,0.011476526919345136
0.951,0.0029,-0.47899999999988896,0.005482684469761034,0.8073881020339786,0.01375951527365949,0.011476526919345148
0.9520000000000001,-0.0035999999999978237,0.520999999999889,0.005501207167949311,0.8084115391136972,0.013860087672967486,0.01158853023599855
0.953,0.0062,-0.47899999999988896,0.0054590388457798926,0.8084115391136972,0.01363112700577619,0.01158853023599855
0.9540000000000001,-0.0028999999999996667,0.521,0.00554309127009398,0.8227007688731404,0.014087505115217695,0.013152320680175265
0.955,-0.0014,0.520999999999778,0.005643103913308928,0.821695129496524,0.0146305421709976,0.013042265115675633
0.9560000000000001,0.0029999999999985568,-1.478999999999778,0.005674694686835588,0.821695129496524,0.014802070090811274,0.013042265115675633
0.957,-0.0035,0.521,0.005677297168559154,0.8227007688731404,0.014816200744371236,0.013152320680175265
0.9580000000000001,-0.004599999999999755,0.521,0.005644133497018951,0.8237051804927586,0.014636132485267852,0.013262241880913265
0.959,-0.0035,0.521,0.005642938301117935,0.8612767051899765,0.014629642949122177,0.01737400943478234
0.9600000000000001,-0.008199999999999845,0.521,0.0056429383011179345,0.8612767051899735,0.014629642949122173,0.017374009434782012
0.961,-0.0075,-0.479,0.005754378446582785,0.8718623134628252,0.015234727731841645,0.018532481468723792
0.9620000000000001,-0.0096999999999992,1.521,0.006008031848402564,0.8728101528413231,0.016611985567300827,0.01863621149390097
0.963,-0.0061,-0.479,0.006019034466222693,0.8728101528413231,0.016671726306019964,0.01863621149390097
0.9640000000000001,-0.0068999999999982235,0.521,0.006036495263457486,0.8728101528413217,0.016766532918635665,0.018636211493900812
0.965,0.0011,-0.479,0.006063438295551875,0.8728101528413217,0.016912825070827614,0.018636211493900812
0.9660000000000001,0.00869999999999709,-1.479,0.006062872859898577,0.8622361811992338,0.016909754933867635,0.017479012954212905
0.967,-0.0044,1.521,0.006115208719677585,0.8612767051899705,0.017193922118060753,0.017374009434781686
0.9679999999999999,0.001,0.521,0.006135023256572552,0.8612767051899705,0.01730150879341698,0.017374009434781686
0.969,-0.0005,-0.479,0.00612236338304735,0.8603161591163707,0.017232769679794153,0.01726888880922144
0.9699999999999999,0.001,0.521,0.006124449242589312,0.8699635366522199,0.017244095238123845,0.01832468237233887
0.971,-0.0002,-0.479,0.00602679113612527,0.8709134425249074,0.016713842573035317,0.01842863855133406
0.9719999999999999,0.0009,-0.479,0.006127802360422873,0.8583918424032456,0.01726230160861349,0.017058294666764885
0.973,0.002,-0.479,0.006115811281525254,0.8583918424032456,0.017197193838526935,0.017058294666764885
0.9739999999999999,-0.0006,0.521,0.0060286981032884445,0.869012592450926,0.016724196802265452,0.018220612560322168
0.975,0.0078,0.521,0.006026706852142509,0.8593545393902173,0.016713384937636664,0.01716365068484341
0.9759999999999999,0.0001,0.521,0.005980971509438785,0.8593545393902173,0.01646505647586871,0.01716365068484341
0.977,-0.0024,-0.479,0.005917132971992109,0.8593545393902173,0.01611843338596764,0.01716365068484341
0.9779999999999999,-0.0068,-0.479,0.005920318601755192,0.848612923326483,0.0161357303491489,0.01598810540785729
0.979,-0.0061,-0.479,0.0059027279423437455,0.8593545393902173,0.01604021862594118,0.01716365068484341
0.9799999999999999,-0.0097,-0.479,0.005905687735669034,0.8206882578495518,0.016056289368613454,0.012932074693479706
0.981,-0.0076,-0.479,0.005875279152494305,0.8206882578495518,0.01589118036892275,0.012932074693479706
0.9819999999999999,-0.0036,1.521,0.005870449984809794,0.8317905669734333,0.01586495951406915,0.014147093641911712
0.983,-0.0062,0.521,0.005892651550219117,0.8317905669734333,0.01598550700012721,0.014147093641911712
0.9839999999999999,0.0018,0.521,0.005938552522252062,0.8307959304425118,0.016234734776825754,0.014038242211241957
0.985,0.0162,0.521,0.0059631535885481075,0.8317905669734333,0.016368310794627215,0.014147093641911712
0.9859999999999999,0.0024,0.521,0.005961258018348646,0.8176602037360582,0.01635801844730941,0.012600689295746705
0.987,0.0042,-0.479,0.006022491378182143,0.8206882578495518,0.01669049624582163,0.012932074693479706
0.9879999999999999,-0.0005,0.521,0.006029496423030305,0.8104545361119437,0.016728531426251532,0.011812112558987533
0.989,0.0038,-1.479,0.006014835829076997,0.8104545361119443,0.01664892903278935,0.011812112558987594
0.9899999999999999,0.0074,0.521,0.0060103386316134625,0.8206882578495523,0.016624510671356688,0.012932074693479767
0.991,-0.0013,0.521,0.006021934878493991,0.819680149391204,0.016687474628329257,0.012821748916625561
0.9919999999999999,-0.0046,-0.479,0.006047086234739218,0.819680149391204,0.016824038546702315,0.012821748916625561
0.993,0.0019,-1.479,0.006247511562263364,0.8186707995524451,0.017912284755019395,0.012711287285085249
0.9939999999999999,0.0011,0.521,0.006215069238844392,0.8288030764346537,0.017736133188319625,0.013820147456899565
0.995,0.0051,0.521,0.006270586968424316,0.8288030764346538,0.018037576920287315,0.013820147456899577
0.9959999999999999,-0.0001,0.521,0.006277238762024547,0.8288030764346546,0.018073694058043203,0.013820147456899662
0.997,0.005,-0.479,0.006249289591359934,0.8298001016954001,0.01792193889128312,0.013929260306339728
0.9979999999999999,0.0089,0.521,0.006244104124171557,0.8298001016954044,0.01789378344268881,0.013929260306340202
0.999,0.0053,-0.479,0.006153451505267032,0.830795930442518,0.017401568361812978,0.014038242211242637
0.9999999999999999,-0.0027,-0.479,0.005910712246160124,0.820688257849558,0.016083570873192357,0.012932074693480386
1.001,-0.0061,0.521,0.0059162538019382534,0.8094336821743289,0.01611365977033037,0.011700391937273314
1.0019999999999998,-0.0036,0.521,0.006096150282851006,0.8206882578495605,0.01709044082720206,0.012932074693480655
1.0030000000000001,-0.0119,1.5209999999995558,0.006113993562092074,0.8196801493912129,0.01718732419627474,0.012821748916626532
1.004,-0.0108,-0.479,0.006096047204742945,0.8206882578495619,0.01708988114564063,0.012932074693480813
1.005,-0.0062,0.521,0.0060947004705722485,0.8196801493912135,0.0170825688045659,0.012821748916626593
1.0059999999999998,-0.0018,0.521,0.006094278357198642,0.8196801493912151,0.017080276862305,0.012821748916626775
1.0070000000000001,0.0036,0.5210000000004441,0.006086828256581078,0.8227007688731373,0.017039825169653192,0.013152320680174925
1.008,-0.0015,2.521,0.006108243404880008,0.8216951294965211,0.017156102659253655,0.013042265115675316
1.009,0.0093,0.5209999999995559,0.006097835999761129,0.8216951294965211,0.017099593737457456,0.013042265115675316
1.0099999999999998,0.0137,-1.479,0.006098415896400458,0.8347673658597653,0.017102742393002943,0.014472869749585079
1.0110000000000001,0.0173,0.520999999999778,0.006121947197849739,0.8337762804483614,0.01723050992565603,0.014364406947754059
1.012,0.0061,-0.479,0.006103491122299025,0.8347673658597653,0.017130299266221987,0.014472869749585079
1.013,0.0046,0.520999999999778,0.006098802028556301,0.8216951294965211,0.01710483896861889,0.013042265115675316
1.0139999999999998,0.0057,-0.479,0.0060702447402487736,0.8327840155599516,0.016949781915179672,0.014255815065846512
1.0150000000000001,-0.0004,-0.479,0.006059982081177682,0.8327840155599516,0.01689405891869351,0.014255815065846512
1.016,-0.008,-0.479,0.006078050501697001,0.8327840155599516,0.016992164733778476,0.014255815065846512
1.017,-0.0055,-0.479,0.006026717695024782,0.8357572759902231,0.016713443811061827,0.014581203930549635
1.0179999999999998,-0.0011,-0.479,0.006010877060143012,0.8357572759902232,0.016627434168167046,0.014581203930549647
1.0190000000000001,-0.0065,-1.478999999999556,0.006031738376885265,0.8357572759902232,0.016740704527386113,0.014581203930549647
1.02,0.0033,0.521,0.006093768802401059,0.8367460150109738,0.017077510140737173,0.01468940994714145
1.021,-0.0116,0.521,0.006131716797976057,0.8357572759902231,0.017283555767843607,0.014581203930549635
1.0219999999999998,-0.0017,0.521,0.006152747890125188,0.8357572759902231,0.017397747953885073,0.014581203930549635
1.0230000000000001,0.0001,-1.478999999999556,0.006163103488652244,0.8367460150109737,0.01745397558225487,0.014689409947141439
1.024,-0.0013,0.521,0.006197383437263338,0.8367460150109737,0.017640104873189087,0.014689409947141439
1.025,0.0002,-0.479,0.006197185520789564,0.8367460150109737,0.017639030249264012,0.014689409947141439
1.0259999999999998,0.0013,-0.479,0.006254616171762103,0.8357572759902232,0.017950860540046586,0.014581203930549647
1.0270000000000001,0.0049,-0.479,0.006266838594344498,0.8347673658597653,0.018017224433253338,0.014472869749585079
1.028,-0.0005,-1.479,0.0063072087316309935,0.8357572759902231,0.018236421524628805,0.014581203930549635
1.029,0.0021,-0.479,0.006282795355354467,0.8357572759902231,0.018103864604336647,0.014581203930549635
1.0299999999999998,0.0028,-0.479,0.006253547440424609,0.8357572759902231,0.017945057666527035,0.014581203930549635
1.0310000000000001,0.0007,-1.479,0.006206053343401012,0.8367460150109737,0.01768717972444336,0.014689409947141439
1.032,-0.0062,0.521,0.006159548521861036,0.8377335870686404,0.017434673235695107,0.01479748825316032
1.033,0.0076,-0.479,0.006160745338360796,0.8247083688412193,0.017441171571179963,0.013372029208812832
1.0339999999999998,-0.0061,0.521,0.0061368771397636215,0.8247083688412193,0.017311574793449344,0.013372029208812832
1.0350000000000001,-0.0006,-0.479,0.006137500785953475,0.8237051804927525,0.017314960995232435,0.013262241880912596
1.036,-0.0086,1.521,0.00602289106139327,0.8367460150109738,0.0166926663993866,0.01468940994714145
1.037,-0.0042,0.521,0.00601942702094031,0.8367460150109738,0.016673857754117272,0.01468940994714145
1.0379999999999998,-0.0031,-0.479,0.006034426512941416,0.8367460150109737,0.016755300256911333,0.014689409947141439
1.0390000000000001,0.0031,-1.479,0.006036586297397986,0.8357572759902231,0.016767027204172332,0.014581203930549635
1.04,0.0064,-0.479,0.006069972139013854,0.8247083688412193,0.01694830177659665,0.013372029208812832
1.041,0.0057,0.521,0.006025749814636547,0.8377335870686404,0.01670818852633503,0.01479748825316032
1.0419999999999998,0.0159,-0.479,0.006040523536568565,0.8377335870686404,0.016788405168981214,0.01479748825316032
1.0430000000000001,0.0036,-1.479,0.006026699798286475,0.8387199962854338,0.016713346637426917,0.014905439299734397
1.044,0.0084,0.521,0.0060410948689219295,0.8287089782917352,0.016791507323159625,0.013809849506681956
1.045,0.004,0.521,0.006045183171157294,0.8277106387108871,0.01681370551268512,0.01370059282015259
1.0459999999999998,0.0052,0.521,0.006054185899638073,0.8267110935320985,0.01686258748411428,0.013591204194913387
1.0470000000000002,0.0016,1.521,0.006067289094922514,0.8267110935320985,0.016933733694831653,0.013591204194913387
1.048,0.0005,0.521,0.006057764452232044,0.8277106387108872,0.016882017894131608,0.013700592820152601
1.049,-0.0002,0.521,0.0059961852450753465,0.8267110935320985,0.016547662253917555,0.013591204194913387
1.0499999999999998,-0.0027,-0.479,0.005977469522496913,0.8406893425643813,0.01644604179315298,0.015120961405833775
1.0510000000000002,-0.015,-1.479,0.005983596337966892,0.8416722877506888,0.016479308465517328,0.015228533354453422
1.052,-0.0059,-0.479,0.005998552224912186,0.8416722877506888,0.016560514206634423,0.015228533354453422
1.053,-0.004099999999999667,0.521,0.005988109203278766,0.8406893425643812,0.016503811898416553,0.015120961405833763
1.0539999999999998,-0.0026,-0.479,0.005871375490524157,0.8277106387108957,0.015869984717704202,0.013700592820153524
1.0550000000000002,-0.0011999999999997557,0.521,0.005779311041424854,0.8287089782917436,0.015370103844908585,0.013809849506682879
1.056,-0.0001,1.521,0.005750368737101596,0.8416722877506971,0.015212956276141613,0.015228533354454333
1.057,-0.006199999999999267,-0.479,0.005750368737101596,0.8416722877506971,0.015212956276141613,0.015228533354454333
1.0579999999999998,-0.0029,0.521,0.0058269616511816055,0.8406893425643865,0.015628831601686405,0.015120961405834346
1.0590000000000002,-0.0036000000000013764,1.521,0.005841016460009397,0.8124923960485745,0.015705144773302017,0.012035132690171842
