time_sec,bts_raw,diy_raw,bts_rms,diy_rms,bts_norm_rms,diy_norm_rms
0.0,-0.0112,2.542999999999778,0.006761278834384055,1.0904397445539915,0.011974455943906564,0.08236529647465377
0.001,-0.0021,0.543,0.006765181259994491,1.0820575209177004,0.011996285025174313,0.08101351039949484
0.002,0.0014,0.542999999999667,0.006769098285536163,1.0820575209177004,0.01201819577438843,0.08101351039949484
0.003,0.009,-2.457,0.0068643809869349025,1.0896188298810683,0.01255118065094357,0.08223290904717608
0.004,0.0024,-2.456999999999778,0.006868566617502959,1.0995721151898015,0.01257459390181568,0.08383805740234246
0.005,0.003,-0.457,0.006945329125585843,1.0987580236027352,0.01300398197849714,0.08370677032160465
0.006,-0.0046,-0.456999999999889,0.00695056564827418,1.0887972962676766,0.013033273627008886,0.08210042180428628
0.007,0.0102,0.542999999999778,0.006952638246688022,1.0779147778078895,0.013044867164907515,0.08034541769619864
0.008,0.0165,-1.456999999999667,0.00699622697231508,1.0779147778078895,0.013288690347987847,0.08034541769619864
0.009000000000000001,0.01459999999999999,1.5429999999996669,0.0070525775825508496,1.077084317101055,0.013603899956861462,0.08021149079706351
0.01,0.009,-1.456999999999889,0.007117582072206203,1.077084317101055,0.013967516955391968,0.08021149079706351
0.011,0.001,-0.457,0.007171745828133419,1.0762532155926228,0.014270493910734795,0.08007746055701145
0.012,-0.0005,-0.457,0.007171809615560991,1.0762532155926228,0.014270850719827227,0.08007746055701145
0.013000000000000001,-0.01819999999999999,-0.45700000000011104,0.007191384849301768,1.0762532155926225,0.014380349121800577,0.08007746055701143
0.014,-0.0113,-1.456999999999778,0.007246278870149565,1.0762532155926228,0.014687410975585985,0.08007746055701145
0.015,-0.0091,0.543,0.007346649410816299,1.07542147179693,0.015248855807037196,0.07994332673645226
0.016,-0.0148,0.543,0.007536344653763136,1.0863289677372348,0.016309958128454528,0.08170235891773639
0.017,-0.0058,0.543,0.007583040772570874,1.0863289677372348,0.01657116320296426,0.08170235891773639
0.018000000000000002,-0.004299999999999985,-1.457,0.007641110754773963,1.0887972962676769,0.016895990499438057,0.08210042180428632
0.019,0.0,-0.457,0.007655567039846692,1.0987580236027352,0.016976854929201552,0.08370677032160465
0.02,0.0011,-0.457,0.007664491064628043,1.0879751423117245,0.017026773436723278,0.08196783451987155
0.021,0.0022,-1.457,0.0077182946349239915,1.0804023298898373,0.017327735614027697,0.08074658073019966
0.022,-0.0054,-0.457,0.007720399043775098,1.079573782730853,0.01733950709064689,0.08061296242547222
0.023,0.0054,-0.457,0.007744479579423201,1.1053959780172133,0.017474206895872556,0.08477726124792424
0.024,0.0068,-0.457,0.007776979883422899,1.1053959780172133,0.017656004538687,0.08477726124792424
0.025,0.019,-1.457,0.007784862859031673,1.09467848433842,0.01770009970727534,0.08304887038838295
0.026000000000000002,0.01739999999999995,-1.457,0.00789427261787533,1.09467848433842,0.018312107405998975,0.08304887038838295
0.027,0.0036,0.543,0.00791856254431998,1.0938607507365254,0.018447978484983796,0.08291699596648791
0.028,0.0054,0.543,0.00792864644623903,1.0946784843384199,0.018504385021958718,0.0830488703883829
0.029,-0.0026,-0.457,0.00793092861852217,1.1045861786864102,0.01851715085767445,0.08464666637160606
0.03,-0.0069,2.543,0.00796447680774901,1.0938607507365254,0.01870481007840633,0.08291699596648791
0.031,-0.0105,-0.457,0.008054407859280226,1.0938607507365254,0.01920785931709503,0.08291699596648791
0.032,-0.0068,0.543,0.008165154654518987,1.0938607507365254,0.019827346024783914,0.08291699596648791
0.033,-0.0078,0.543,0.008257315577819517,1.0635611951303592,0.020342868544690036,0.0780306413272979
0.034,0.0031,-0.457,0.008279834727377134,1.0745890842225643,0.020468834391280232,0.07980908909486856
0.035,0.0074,-1.457,0.008281188851187782,1.0644022068084527,0.02047640898248581,0.0781662697625225
0.036000000000000004,0.000900000000000043,-2.457,0.008304347138216702,1.0905836848749997,0.020605949985964336,0.08238850947039757
0.037,0.0071,-0.457,0.008312135882502895,1.083029112193529,0.02064951805079621,0.08117019717073828
0.038,-0.0005,-0.457,0.008360691160420514,1.0524177552872942,0.020921122743223247,0.07623355889871554
0.039,-0.0012,0.543,0.008363077039059795,1.060190476990232,0.02093446868339251,0.07748705169728826
0.04,0.0013,0.543,0.008367426350408302,1.0593461216378668,0.020958797518933002,0.0773508840337495
0.041,0.0136,0.543,0.008368440013413084,1.0695811551727974,0.02096446766727621,0.07900146941677391
0.042,0.0154,1.543,0.008426766721451411,1.0695811551727974,0.021290731016523425,0.07900146941677391
0.043000000000000003,0.0073000000000000105,-0.457,0.008500837725208155,1.0610341604172606,0.021705063568120513,0.07762311100064088
0.044,0.0088,0.543,0.008555972245630903,1.0712530661071393,0.022013470709501517,0.07927109547520599
0.045,-0.0003,0.543,0.008556180887255512,1.072088043826407,0.02201463779260164,0.0794057508247826
0.046,-0.0115,-0.457,0.008557672118794034,1.0805476073010143,0.02202297932622534,0.08077000935606142
0.047,-0.0218,0.543,0.008559365423756807,1.0813754083182825,0.022032451202266896,0.08090350733186115
0.048,-0.0206,-1.457,0.008651645008546984,1.0805476073010147,0.02254863748147542,0.08077000935606149
0.049,-0.0068,0.543,0.008665523896845306,1.0805476073010143,0.022626272114602032,0.08077000935606142
0.05,0.0023,-0.457,0.008686288160587833,1.083029112193535,0.02274242161902525,0.08117019717073924
0.051000000000000004,-0.002299999999999905,-0.457,0.008617097284819691,1.0532676648010975,0.022355387143315968,0.07637062227184367
0.052000000000000005,0.011399999999999938,-1.457,0.008630197194065058,1.0524177552873057,0.02242866438472002,0.0762335588987174
0.053,0.0024,1.543,0.008630048522555929,1.0524177552873075,0.022427832757732354,0.07623355889871769
0.054,0.0103,-0.457,0.008583228621355533,1.0261345223014045,0.022165935279015964,0.07199490935867484
0.055,0.0027,0.543,0.00859328194290517,0.9991601393537971,0.022222170757927075,0.06764479931189563
0.056,0.0017,-0.457,0.008597351043209652,0.9991601393537971,0.022244932170981467,0.06764479931189563
0.057,0.0078,0.543,0.00858511485128581,0.9991601393537975,0.022176486323558002,0.0676447993118957
0.058,0.0089,-0.457,0.008544028043383806,0.9982641644384102,0.02194665817095291,0.06750030705460629
0.059000000000000004,0.009599999999999994,0.543,0.00845249063114513,0.9891010990154203,0.021434623398155703,0.06602259603399593
0.06,0.0088,-0.457,0.008449059580072363,0.9780242031779873,0.021415431054680682,0.06423624503708394
0.061,-0.0003,0.543,0.008448000517674036,0.9807651442708887,0.021409506954782692,0.06467827165949155
0.062,-0.0053,0.543,0.008455943110877181,0.9927132276543255,0.02145393560757865,0.06660511749937588
0.063,-0.0089,0.543,0.008475000398986276,1.0018432563471609,0.02156053676603863,0.06807750074614849
0.064,-0.0121,-0.457,0.008279887279576795,1.0135428922504728,0.02046912835363896,0.06996427990938307
0.065,-0.0168,1.543,0.008368721299573318,1.0161880340991112,0.020966041103662753,0.07039085716059462
0.066,-0.0084,0.543,0.00832041889180245,1.0161880340991112,0.0206958508963623,0.07039085716059462
0.067,-0.0094,1.543,0.008254771789559696,1.0161880340991112,0.02032863930211253,0.07039085716059462
0.068,-0.0047,1.543,0.008276103024546972,1.0153070858487252,0.020447960285665288,0.07024878822644551
0.069,0.0037,-0.457,0.00826626842356574,1.0062992202353218,0.020392948268656917,0.06879610599897759
0.07,0.0091,0.543,0.008266323761350305,1.0071880473465726,0.020393257812801262,0.06893944554279632
0.07100000000000001,-0.0018000000000000596,-0.457,0.008267560241008371,1.0071880473465726,0.02040017433540445,0.06893944554279632
0.07200000000000001,-0.006100000000000014,-2.457,0.00826872012482401,1.0098498348430616,0.02040666240221219,0.06936870720758984
0.073,-0.0071,-0.457,0.008259332977482114,1.010735539596855,0.02035415331615796,0.06951154321445754
0.074,-0.0035,-0.457,0.008300895016656614,1.0223334168202236,0.02058663978005553,0.07138191193906124
0.075,0.0131,0.543,0.008285232171444756,1.0232083156517544,0.02049902618913928,0.07152300529435132
0.076,0.0062,-0.457,0.008116770177696707,1.025828535104017,0.019556696746082323,0.07194556335568651
0.077,0.004,0.543,0.007956367810214901,1.017793430700368,0.018659450606159457,0.07064975657259441
0.078,-0.0019,1.543,0.007953152104888317,1.0177934307003673,0.018641462846772212,0.0706497565725943
0.079,-0.0073,-0.457,0.0079656539794612,1.0169138731993173,0.01871139484888927,0.07050791192208015
0.08,-0.012,-0.457,0.00796416412733444,1.0177934307003662,0.01870306103131053,0.07064975657259412
0.081,-0.0134,0.543,0.008060308446624063,0.9851571150644263,0.01924086555821635,0.06538655686146401
0.082,-0.0123,-0.457,0.008027672666687491,0.9860649995987328,0.019058310100767868,0.0655329697614986
0.083,-0.0061,1.543,0.00810865900004522,0.9860649995987328,0.019511325078866434,0.0655329697614986
0.084,0.0015,0.543,0.008071257258347305,0.9860649995987322,0.019302110159587563,0.06553296976149849
0.085,0.0062,-2.457,0.008065928208805,0.9860649995987317,0.019272300941641736,0.06553296976149842
0.08600000000000001,0.003600000000000075,0.543,0.008077817673202202,0.9777031592343445,0.019338807291913344,0.06418447085980579
0.08700000000000001,0.008999999999999902,-0.457,0.008080307784632418,0.949353671605883,0.019352736281265655,0.05961260016333256
0.088,0.002,-1.457,0.008070652600780784,0.9786179589852182,0.01929872787367711,0.06433199896433356
0.089,0.0027,-0.457,0.008070649528532859,0.9878782655655516,0.019298710688378448,0.06582539189085969
0.09,-0.0013,1.543,0.008071995944341463,0.9878782655655516,0.019306242163168796,0.06582539189085969
0.091,0.0099,-2.457,0.008071848765968673,0.9878782655655509,0.019305418888369685,0.06582539189085959
0.092,0.0112,-0.457,0.008034902707367824,0.9869720489989646,0.019098752933337966,0.06567924798096843
0.093,0.0097,1.543,0.007994014984602874,0.9758709870846807,0.01887003840750499,0.06388899976446462
0.094,0.0006,0.543,0.00797694080912198,0.9767875027380389,0.018774530228398246,0.06403680458948872
0.095,0.0016,-1.457,0.007931919066729931,0.9767875027380389,0.018522691148913032,0.06403680458948872
0.096,-0.0017,0.543,0.00793293071135982,0.9851571150644161,0.018528350007029598,0.06538655686146237
0.097,-0.0126,-0.457,0.008044053217796108,0.9860649995987226,0.01914993833844761,0.06553296976149695
0.098,-0.0049,-0.457,0.007822145585250807,0.9860649995987226,0.017908648887135253,0.06553296976149695
0.099,-0.006,1.543,0.007827437094916515,0.9777031592343354,0.01793824811747367,0.06418447085980432
0.1,-0.0024,0.543,0.007839804585701207,0.9767875027380389,0.01800742841413204,0.06403680458948872
0.101,0.0052,-0.457,0.007901224534168244,0.976787502738039,0.01835099448825848,0.06403680458948874
0.10200000000000001,-0.0012999999999999902,0.543,0.007899925591061046,0.9860649995987226,0.018343728562529263,0.06553296976149695
0.10300000000000001,-0.000599999999999925,0.543,0.007831982612266341,0.9777031592343354,0.01796367447470338,0.06418447085980432
0.10400000000000001,0.004799999999999988,0.543,0.007856910232495328,0.9655693571326862,0.018103112634993992,0.062227674497472824
0.105,0.004,-0.457,0.007790217244225455,0.9664956417414486,0.017730050645794537,0.062377054744301115
0.106,0.0004,-0.457,0.007886805041993622,0.9655693571326862,0.0182703358677129,0.062227674497472824
0.107,0.0058,-0.457,0.0078857487040005,0.9655693571326862,0.01826442700737834,0.062227674497472824
0.108,0.0108,-0.457,0.007887751435271598,0.9646421830720671,0.018275629727952273,0.06207815081034914
0.109,0.0144,0.543,0.007999010602258699,0.9655693571326862,0.018897982500404538,0.062227674497472824
0.11,0.0089,1.543,0.00802691512823419,0.9646421830720671,0.019054072641784322,0.06207815081034914
0.111,0.0038,1.543,0.008019544948993821,0.9655693571326862,0.019012845913165675,0.062227674497472824
0.112,-0.0057,-1.457,0.008021975263720508,0.964642183072067,0.019026440416423648,0.06207815081034912
0.113,-0.0021,1.543,0.008038541990790527,0.9731162608953116,0.019119110070544662,0.063444750044433
0.114,-0.0166,1.543,0.00802060272520432,0.9815171792055913,0.019018762818487415,0.06479955097592052
0.115,0.0015,0.543,0.008090628309092126,0.9815171792055913,0.019410466418786864,0.06479955097592052
0.116,-0.0105,0.543,0.007948773508479926,0.9703537143764203,0.018616970198768408,0.06299923915397572
0.117,-0.0083,-0.457,0.007904263015260007,0.9815171792055913,0.018367990904668115,0.06479955097592052
0.11800000000000001,0.001499999999999975,-0.457,0.007873405875804516,0.969431116135917,0.018195384666367793,0.06285045340110237
0.11900000000000001,-0.0003000000000000208,0.543,0.007908490589517647,0.958126842782804,0.01839163877685015,0.06102743364267348
0.12,-0.0018,-0.457,0.007900757330527936,0.958126842782804,0.018348381081303173,0.06102743364267348
0.121,0.0026,1.543,0.007866743282909023,0.958126842782804,0.0181581159785597,0.06102743364267348
0.122,0.0037,0.5430000000001111,0.007865310612236791,0.9675832805445527,0.01815010201810125,0.06255245629079208
0.123,0.0099,1.542999999999889,0.007842376111648482,0.9476323373866808,0.01802181281360274,0.059335003700964534
0.124,0.0045,0.5430000000001111,0.00783473793087433,0.948576137657136,0.01797908695909552,0.059487208666936665
0.125,0.0092,1.542999999999889,0.007831230670488973,0.9495189998120708,0.017959468321965225,0.05963926234471221
0.126,0.0067,0.543,0.00772219230648696,0.9495189998120708,0.017349538102478856,0.05963926234471221
0.127,0.0028,0.542999999999889,0.007699154315490457,0.9504609266433317,0.017220670001479445,0.05979116518452722
0.128,-0.007,-0.456999999999889,0.007706350199834521,0.9504609266433317,0.017260921773023748,0.05979116518452722
0.129,0.0021,0.542999999999889,0.007787926842765565,0.9675832805445527,0.017717238778357524,0.06255245629079208
0.13,-0.0142,-0.456999999999889,0.007809219147163971,0.9685076390307636,0.017836341995046013,0.06270152591531332
0.131,-0.0076,0.543,0.007916886152516006,0.9685076390307636,0.0184386012164389,0.06270152591531332
0.132,-0.0133,0.543,0.007899008279702554,0.9796921398748332,0.01833859737844242,0.06450523017740889
0.133,-0.0006,0.542999999999889,0.007839566233499413,0.9916531515987336,0.018006095138343416,0.06643416094742297
0.134,0.001,-0.456999999999889,0.007817036884653857,0.9796921398748332,0.017880072239779003,0.06450523017740889
0.135,0.0086,0.543,0.007815913595230211,0.9787783440907057,0.017873788871801306,0.06435786398078604
0.136,0.0022,0.542999999999667,0.007796689616457423,0.9495189998120708,0.017766255292224933,0.05963926234471221
0.137,0.0059,-2.456999999999889,0.007788697759357,0.9485761376571359,0.01772155107091733,0.05948720866693665
0.138,0.0005,-1.456999999999778,0.007797094207046326,0.948576137657134,0.01776851845922079,0.059487208666936346
0.139,-0.0019,0.543,0.007841807876951224,0.951401920928943,0.01801863426707198,0.059942917634388644
0.14,-0.0012,0.542999999999889,0.007853084535507416,0.9523419854332087,0.01808171275225655,0.06009452014009079
0.14100000000000001,0.011200000000000052,-0.456999999999889,0.007950839727896314,0.9398808291883044,0.01862852805433309,0.05808493196598014
0.14200000000000002,0.013099999999999778,0.543,0.008228650127000635,0.9093708029285216,0.020182522001804322,0.053164635104399796
0.14300000000000002,0.005099999999999792,0.543,0.00815918315245019,0.9103542713089502,0.019793943106454936,0.05332323727486286
0.14400000000000002,-0.0023999999999999694,0.543,0.008122786354296078,0.8973102112130901,0.019590349561284647,0.05121964524890231
0.145,-0.0013,-1.457,0.008130529465372634,0.9064139953708289,0.019633662366659674,0.052687796086873635
0.146,-0.0176,0.543,0.008130161087291508,0.9093708029285188,0.01963160176233998,0.05316463510439935
0.147,-0.0111,0.543,0.008172726382172996,0.9093708029285188,0.019869700159057386,0.05316463510439935
0.148,-0.0208,0.543,0.008141704208560155,0.9093708029285188,0.019696170765675484,0.05316463510439935
0.149,-0.0081,-0.457,0.008213628586091535,0.9093708029285187,0.020098495688427673,0.05316463510439933
0.15,0.0101,-0.457,0.00842062135571757,0.8973102112130861,0.021256355553307592,0.051219645248901664
0.151,-0.0018,-1.457,0.00851702939241352,0.8973102112130861,0.021795635241886973,0.051219645248901664
0.152,0.0048,0.543,0.008503066317618,0.8973102112130831,0.021717529692957614,0.051219645248901186
0.153,0.0067,-0.457,0.008524663031065301,0.9320648578776259,0.021838335689027526,0.05682446438123651
0.154,0.0013,0.543,0.008529039288626397,0.9408324054512905,0.021862815254171396,0.058238390952231385
0.155,0.0126,-0.457,0.00851722753695044,0.9398808291882944,0.021796743607204072,0.05808493196597853
0.156,-0.0011,-0.457,0.008537394871208234,0.9408324054512905,0.021909554054452572,0.058238390952231385
0.157,0.008,-0.457,0.008537447289906068,0.9417830202434354,0.021909847270039282,0.0583916948838156
0.158,0.016,0.543,0.008636902495236796,0.9417830202434354,0.02246617197072273,0.0583916948838156
0.159,0.0117,-0.457,0.008658360431865632,0.9417830202434354,0.022586201687946925,0.0583916948838156
0.16,0.0081,0.543,0.008602110134694635,0.9408324054512904,0.022271553202400627,0.05823839095223137
0.161,0.002,-0.457,0.008559615420446228,0.9282167478580046,0.022033849614074015,0.05620388662455602
0.162,0.0074,-1.457,0.008551769115111236,0.9154272482622084,0.021989959568777293,0.05414134711093625
0.163,-0.0071,-1.457,0.00857111859761415,0.9064139953708186,0.02209819518124239,0.05268779608687197
0.164,-0.0161,-0.457,0.008568747873589572,0.8943135294361283,0.02208493401176423,0.050736375788011163
0.165,-0.0074,0.543,0.00842065080128529,0.8810320112171484,0.021256520263607005,0.0485944893191683
0.166,0.0002,1.543,0.008452680416762746,0.8810320112171484,0.02143568500600784,0.0485944893191683
0.167,-0.0063,-0.457,0.00840208506755755,0.8800157741300708,0.021152668723361256,0.04843060259853443
0.168,-0.0088,0.543,0.008381040165893347,0.8810320112171482,0.021034949408617325,0.04859448931916829
0.169,-0.0012,-0.457,0.008380867450409044,0.882047077462943,0.02103398328633354,0.048758187220341954
0.17,0.0054,0.543,0.008395699875167719,0.8810320112171484,0.021116951736670952,0.0485944893191683
0.171,0.001,-1.457,0.008394928094130939,0.8810320112171484,0.0211126346086448,0.0485944893191683
0.17200000000000001,-0.0011000000000001417,-1.457,0.008418397081825292,0.8685780118778899,0.021243913585054203,0.04658605532631229
0.17300000000000001,-0.0061999999999999,0.543,0.008420741335075171,0.877979771164789,0.021257026684396045,0.048102260075491454
0.17400000000000002,-0.002599999999999889,0.543,0.0084552442719315,0.9778636943814489,0.02145002649728132,0.06421036007319898
0.17500000000000002,0.0014000000000000082,0.543,0.00847305297775349,0.9862241736269515,0.02154964343440423,0.06555863946970601
0.176,0.0017,0.543,0.008532034257283345,0.9741965081558215,0.02187956827414749,0.0636189595701922
0.177,-0.0052,0.543,0.008601442092344543,0.9825881906270929,0.022267816359676073,0.06497227105459437
0.178,-0.0114,-2.457,0.008661963938121481,0.9816770906404203,0.02260635869765325,0.06482533960436089
0.179,-0.0093,0.543,0.008633823132818526,1.0100052604541572,0.022448946875566138,0.06939377241533405
0.18,-0.0177,-0.457,0.008712955649487725,1.0091189147337818,0.022891592119763514,0.06925083304094266
0.181,-0.0123,1.543,0.008883535489241449,1.0100052604541583,0.02384576820313741,0.06939377241533423
0.182,-0.0076,1.543,0.009106035752825906,1.0207351606644388,0.025090372667317895,0.07112416405381358
0.183,-0.0014,-0.457,0.009097464337808336,1.0287472887320221,0.025042426560543233,0.07241626548466272
0.184,0.0007,-0.457,0.009111008482822043,1.0278771045226673,0.02511818873302789,0.07227593244798064
0.185,0.0029,-0.457,0.009111693079719829,1.0278771045226678,0.025122018177278525,0.07227593244798071
0.186,0.0007,-0.457,0.009075368648487446,1.0270061830049115,0.024918829432499897,0.07213548050690365
0.187,0.0097,-0.45699999999955593,0.009076425302392789,1.0270061830049133,0.02492474005995937,0.07213548050690394
0.188,0.0086,1.543,0.009057381743989748,1.0108908290298557,0.024818215701648626,0.06953658646100623
0.189,0.005,0.542999999999778,0.009057267732015883,1.0018432563471498,0.024817577950441698,0.0680775007461467
0.19,0.0125,-0.457,0.009077141187110834,1.0009496831592861,0.024928744519556695,0.0679333958111197
0.191,0.0234,-0.456999999999778,0.009119851493906896,1.000055311542862,0.02516765407250974,0.06778916211496001
0.192,0.0034,0.543,0.009086998679441413,1.0009496831592872,0.02498388458439355,0.06793339581111989
0.193,0.0059,-0.45700000000022206,0.009012091715564824,1.009118914733792,0.024564875904866203,0.06925083304094432
0.194,0.0036,-1.457,0.009048705649670743,1.035833991457487,0.024769684048035614,0.07355912524106419
0.195,0.0014,1.5429999999997779,0.009045652553748982,1.0349697656391534,0.024752605880340083,0.07341975310334667
0.196,-0.0085,0.543,0.009084590644147692,1.0261345223014133,0.02497041470607436,0.07199490935867627
0.197,-0.0104,-0.457,0.008915662252602978,1.0261345223014133,0.024025476363726855,0.07199490935867627
0.198,-0.0119,-0.457,0.008902633253897379,1.0261345223014133,0.02395259577611966,0.07199490935867627
0.199,-0.0195,0.543,0.008746002930237274,1.0524177552873157,0.023076449398075464,0.07623355889871901
0.2,-0.013,0.543,0.00871170388570753,1.0524177552873157,0.022884590102040782,0.07623355889871901
0.201,-0.0018,-0.4569999999993339,0.008653815686966144,1.0532676648011077,0.022560779651589126,0.07637062227184531
0.202,-0.0062,2.543,0.008708366422011771,1.0712530661071606,0.022865921260270157,0.07927109547520943
0.203,0.0028,-1.456999999999778,0.008720935501766133,1.0712530661071606,0.022936229189442478,0.07927109547520943
0.20400000000000001,0.0017000000000001497,-0.457,0.008706829011464686,1.0712530661071606,0.02285732141414254,0.07927109547520943
0.20500000000000002,0.007099999999999817,0.543,0.008708153462234445,1.0712530661071606,0.02286473002262719,0.07927109547520943
0.20600000000000002,0.0005000000000003831,0.543,0.008616574240313974,1.0712530661071609,0.022352461378122284,0.07927109547520945
0.20700000000000002,0.014299999999999948,-0.457,0.008618184142241808,1.0720880438264286,0.02236146672083063,0.07940575082478607
0.20800000000000002,0.012399999999999948,-0.457,0.008588120927476342,1.0729223717432514,0.022193301475981322,0.07954030138189534
0.209,0.0105,-0.457,0.008440415295890168,1.0720880438264286,0.02136707733810757,0.07940575082478607
0.21,0.0025,-0.457,0.008360500578026836,1.0805476073010356,0.020920056678427893,0.08077000935606486
0.211,0.001,-0.457,0.00833388525721791,1.0881194086591883,0.02077117799145136,0.08199110009331334
0.212,-0.0081,0.543,0.00833882900024644,1.088941453693635,0.02079883191214317,0.08212366981215351
0.213,0.0006,0.543,0.008311376831320046,1.0813754083183038,0.020645272130025167,0.08090350733186459
0.214,-0.0049,-0.457,0.008289699704146895,1.073756051372354,0.02052401632198397,0.07967474739081419
0.215,-0.0075,0.543,0.008165426489242301,1.073756051372354,0.019828866592466424,0.07967474739081419
0.216,-0.005,-0.457,0.008148428109337375,1.0813754083183038,0.019733782392687593,0.08090350733186459
0.217,0.0058,0.543,0.008160834131779962,1.0712530661071606,0.019803178224701547,0.07927109547520943
0.218,0.0014,0.543,0.008143974935105177,1.0712530661071606,0.01970887257712208,0.07927109547520943
0.219,0.005,-0.457,0.008118447746361864,1.0712530661071606,0.019566080597660688,0.07927109547520943
0.22,0.0014,-0.457,0.008117563628412027,1.0720880438264286,0.019561135088250938,0.07940575082478607
0.221,0.0068,0.543,0.008108971182982512,1.0712530661071609,0.019513071343212982,0.07927109547520945
0.222,0.0042,-1.457,0.008114271964093183,1.0627195178952809,0.01954272243543059,0.07789490555889975
0.223,0.0125,4.543,0.008150002257779426,1.0541168890531847,0.019742587740360883,0.0765075751340518
0.224,0.0071,-1.457,0.008131180141349219,1.0541168890531847,0.019637302066730797,0.0765075751340518
0.225,0.0136,-0.457,0.008136354721589946,1.0532676648011077,0.01966624722645383,0.07637062227184531
0.226,0.0128,-1.457,0.008169630692757104,1.052417755287316,0.019852383735226395,0.07623355889871905
0.227,0.0106,-0.457,0.008178645467364017,1.052417755287316,0.019902809871980547,0.07623355889871905
0.228,-0.0006,-2.457,0.008163645292899273,1.052417755287316,0.019818903076538844,0.07623355889871905
0.229,-0.0119,-0.457,0.008121142305039505,1.034104817567145,0.01958115320793612,0.07328026448908274
0.23,-0.0224,0.543,0.008080805607445153,1.034104817567145,0.01935552096333802,0.07328026448908274
0.231,-0.0214,1.543,0.007947712716353415,1.0349697656391532,0.018611036423253027,0.07341975310334664
0.232,-0.0127,-1.457,0.007898902071704803,1.03237274739912,0.01833800328050293,0.07300093665962741
0.233,-0.005,-0.457,0.007967397113600953,1.0217650647290801,0.01872114545545958,0.07129025482324905
0.234,0.0015,-0.457,0.00796639046832072,1.0332391454276173,0.018715514562311675,0.073140659105757
0.23500000000000001,-0.00279999999999985,-0.457,0.007977136298726768,1.0332391454276173,0.01877562374276493,0.073140659105757
0.23600000000000002,0.0025999999999999418,0.543,0.007979130024381147,1.0420141503705251,0.01878677608842878,0.07455578831322851
0.23700000000000002,0.0004999999999999806,1.543,0.0079848354353602,1.0420141503705251,0.018818690567360703,0.07455578831322851
0.23800000000000002,-0.0001999999999998196,-0.457,0.007936836251002968,1.042014150370527,0.018550196507328465,0.07455578831322879
0.23900000000000002,0.006300000000000072,-0.457,0.00792567500117971,1.0306377663511268,0.018487763586431775,0.07272113939781401
0.24,0.0089,-0.457,0.007914848913435135,1.0306377663511281,0.018427205468794346,0.07272113939781422
0.241,0.0081,0.543,0.007818372532653967,1.0420141503705282,0.017887543482449596,0.07455578831322901
0.242,0.006,-1.457,0.007472429071588694,1.0532676648011117,0.015952432174896232,0.07637062227184596
0.243,0.0096,-2.457,0.007465027134789614,1.0532676648011117,0.015911027803344916,0.07637062227184596
0.244,0.0005,-0.457,0.00744170193327018,1.0541168890531878,0.01578055312672514,0.0765075751340523
0.245,-0.0085,-0.457,0.007434314814548648,1.0462990489961947,0.015739231643369864,0.07524680617996378
0.246,-0.0024,0.543,0.00746498147080741,1.0349697656391599,0.015910772371754915,0.07341975310334771
0.247,-0.01,0.543,0.007416836692004665,1.0454434742532774,0.015641463896971314,0.07510882918556268
0.248,-0.0125,-2.457,0.007424014500989857,1.054116889053191,0.015681614559995647,0.0765075751340528
0.249,-0.0024,-0.457,0.00736427614885065,1.054965429698416,0.015347454867070067,0.07664441775221624
0.25,0.0012,0.543,0.007112587280983197,1.054965429698416,0.013939577485327282,0.07664441775221624
0.251,0.0099,-2.457,0.007042970722773842,1.0549654296984157,0.013550161860678572,0.07664441775221621
0.252,-0.0067,0.543,0.007041014277272793,1.0660822397929437,0.013539218049802562,0.07843720564932109
0.253,-0.0045,-0.457,0.007026221094770314,1.0358339914574963,0.013456469109709582,0.07355912524106568
0.254,0.002,0.543,0.007028865706395745,1.0278771045226884,0.013471262330095076,0.07227593244798404
0.255,0.0002,-0.457,0.007073318580554777,1.0278771045226884,0.013719919319227064,0.07227593244798404
0.256,0.002,0.543,0.007040453724827655,1.0278771045226884,0.013536082475649133,0.07227593244798404
0.257,0.0035,0.543,0.007127205833745126,1.0278771045226884,0.014021349595320531,0.07227593244798404
0.258,0.0021,-0.457,0.006999480633828571,1.0278771045226884,0.013306890423706344,0.07227593244798404
0.259,-0.0016,-1.457,0.0069374157596100265,1.028747288732044,0.012959716814665293,0.07241626548466623
0.26,0.0046,-1.457,0.006866446282631173,1.0296167375024152,0.012562733339475354,0.07255647991843098
0.261,0.0035,0.543,0.006862627699167603,1.030485452695333,0.012541373247810558,0.07269657604948397
0.262,-0.003,0.543,0.00689359382484967,1.0418634998692853,0.012714589124688142,0.07453149317883123
0.263,-0.0038,0.543,0.006884649312052134,1.0410042796685761,0.012664556012913837,0.07439292828803241
0.264,-0.0074,-0.457,0.006930744738095971,1.04014434970186,0.012922400979513995,0.07425424893455086
0.265,-0.0052,-1.457,0.0070872599245774956,1.051417877135377,0.013797903312269683,0.07607231035402563
0.266,-0.0045,0.543,0.0070477880236259035,1.0505664711422487,0.013577108499074354,0.07593500564637803
0.267,0.0035,-0.457,0.007054705911239043,1.0591979362785273,0.013615805234382914,0.07732698644833669
0.268,0.006,0.543,0.00703085045762875,1.0669212642334578,0.013482364475346908,0.0785725136063284
0.269,-0.0001,0.543,0.007032021996730201,1.0669212642334556,0.013488917738575176,0.07857251360632805
0.27,0.0039,-0.457,0.007083727152502112,1.0754214717969552,0.013778141969855428,0.07994332673645634
0.271,0.0031,-0.457,0.007082604715163741,1.0754214717969552,0.01377186336820528,0.07994332673645634
0.272,-0.0077,-0.457,0.00705671120526857,1.0745890842225896,0.013627022290313259,0.07980908909487264
0.273,0.0028,0.543,0.007044395368514484,1.0770843171010736,0.013558130931906238,0.08021149079706652
0.274,0.0039,-0.457,0.00693789536464422,0.9752755588997185,0.012962399591561752,0.06379297613587707
0.275,0.0075,-0.457,0.0069217975521463585,0.9658944341172816,0.01287235291487198,0.0622800990759854
0.276,0.0042,0.543,0.006883624444438518,0.9658944341172816,0.012658823189111513,0.0622800990759854
0.277,0.0016,0.543,0.00676409342906989,0.95735643414661,0.011990200002158072,0.06090319123257118
0.278,0.0078,-1.457,0.0067535528808077856,0.95735643414661,0.01193123911280638,0.06090319123257118
0.279,-0.0046,0.543,0.006986546673592431,0.9371878061912059,0.013234541454810301,0.0576506330083862
0.28,-0.01,0.543,0.0069230344725350265,0.9381421140451328,0.012879271902799326,0.0578045325133777
0.281,-0.0086,-1.457,0.006694384201194556,0.9381421140451328,0.011600266009224697,0.0578045325133777
0.28200000000000003,-0.012899999999999317,0.543,0.006363526657040648,0.9264561425526225,0.009749541116463211,0.0559199569850076
0.28300000000000003,-0.0005999999999997335,1.543,0.00623552939563283,0.9175512346548592,0.009033560108689812,0.05448387856249304
0.28400000000000003,0.004199999999999578,-0.457,0.006215561014858112,0.9185259442651807,0.008921862551777763,0.05464106822191129
0.28500000000000003,-0.003399999999999639,-1.457,0.006220531884476177,0.9312728893462964,0.008949668211051308,0.05669674504576325
0.28600000000000003,0.003100000000000061,-0.457,0.006217771482832685,0.9312728893462964,0.008934227293575193,0.05669674504576325
0.28700000000000003,0.004200000000000183,-0.457,0.006243180574709676,0.9303115351105842,0.009076358672079699,0.05654170918350059
0.28800000000000003,0.007499999999999739,-0.457,0.006285488563021553,0.9185259442651722,0.009313017767557446,0.05464106822190991
0.289,0.0028,0.543,0.0063037384563023255,0.9283858401637978,0.009415102584366867,0.056231155835484506
0.29,0.0021,1.543,0.006314512565145692,0.9293491864139259,0.009475369946517341,0.05638651294631626
0.291,0.0043,1.543,0.006260203402433657,0.9293491864139259,0.009171579626144776,0.05638651294631626
0.292,0.0007,0.543,0.006231907859881682,0.9293491864139259,0.009013302247011563,0.05638651294631626
0.293,-0.0001,0.543,0.0062117396490255815,0.920472267062619,0.008900486896316446,0.05495494818616688
0.294,0.0014,0.543,0.0061372767328865575,0.8903022636420477,0.00848396209607796,0.05008948619409444
0.295,-0.0069,-0.457,0.006139706933471997,0.891306772507502,0.0084975559608616,0.05025148152559763
0.296,-0.0008,1.543,0.0060937080725577296,0.891306772507502,0.008240251152683776,0.05025148152559763
0.297,-0.0109,-1.457,0.006275883429972583,0.891306772507502,0.009259289330209967,0.05025148152559763
0.298,-0.0073,0.543,0.00620857594671375,0.8903022636420477,0.008882790027300606,0.05008948619409444
0.299,0.004,0.543,0.006105338909227762,0.859073365237749,0.008305310811528546,0.04505325811939675
0.3,0.0084,0.543,0.0061032723552600235,0.8696076154158986,0.00829375108457685,0.046752097630360194
0.301,-0.0007,1.543,0.006104744358974586,0.8696076154158986,0.008301985063112065,0.046752097630360194
0.302,-0.0042,0.543,0.006034738863823255,0.8365385161081924,0.007910393833605771,0.04141910367769771
0.303,0.0034,0.543,0.006004398145505655,0.8462962866451237,0.007740676311225426,0.042992721718537304
0.304,0.0081,-0.457,0.005991165979607863,0.8473529647442741,0.007666659262967338,0.04316313028818852
0.305,0.002,0.543,0.006003237104931147,0.8462962866451237,0.007734181773830963,0.042992721718537304
0.306,0.0111,0.543,0.006006867862444315,0.8601143464287156,0.0077544912194758685,0.04522113527699948
0.307,0.0049,-0.457,0.0060100600533439545,0.8601143464287156,0.007772347445712202,0.04522113527699948
0.308,0.0082,0.543,0.006004662887614168,0.859073365237749,0.007742157204797434,0.04505325811939675
0.309,0.0035,0.543,0.006013641752860187,0.859073365237749,0.007792382474594599,0.04505325811939675
0.31,0.001,0.5430000000002221,0.00601153872728071,0.8494623776272155,0.007780618735611392,0.04350331149614097
0.311,-0.0066,1.543,0.006000021656393771,0.8397413977810392,0.007716195450850985,0.04193562662358892
0.312,-0.0073,-0.457,0.005990122135360045,0.8494623776272155,0.00766082028916203,0.04350331149614097
0.313,-0.008,-0.457,0.0060178265812349,0.8810320112171438,0.007815791238220718,0.048594489319167565
0.314,-0.0156,1.5429999999995558,0.006021192702186031,0.8810320112171438,0.00783462038069119,0.048594489319167565
0.315,-0.0007,-0.457,0.005980733284058627,0.8943135294361237,0.007608301671633129,0.05073637578801043
0.316,0.0059,-1.457,0.005971491531179485,0.884073713557915,0.0075566058816824485,0.0490850191651181
0.317,0.0001,-1.457,0.00597382841936165,0.884073713557915,0.007569677782888128,0.0490850191651181
0.318,0.0019,0.542999999999556,0.006011781987450706,0.8840737135579149,0.007781979465206302,0.04908501916511808
0.319,0.0099,-1.457,0.0060551592925667955,0.8933124016047863,0.008024620020870683,0.050574925709776196
0.32,-0.0006,-0.457,0.006072579434225023,0.8933124016047863,0.008122063438353451,0.050574925709776196
0.321,0.0031,-0.457,0.00606013197127487,0.9034475108102991,0.00805243579968955,0.052209396476567776
0.322,-0.0005,1.5429999999995558,0.006053601305951311,0.9164042169984251,0.008015905077950943,0.054298901095509694
0.323,0.0027,-0.457,0.006087060951474391,0.9173801453073215,0.008203069009880912,0.054456287292247246
0.324,0.0053,-0.457,0.006085353799328113,0.926286697983357,0.008193519676554007,0.055892630965184806
0.325,0.0115,-0.457,0.00610973457016474,0.926286697983357,0.008329898913749426,0.055892630965184806
0.326,-0.0008,0.542999999999778,0.0060665257126567285,0.926286697983357,0.00808820060705867,0.055892630965184806
0.327,-0.0099,-0.457,0.006107319308775482,0.9253201633971483,0.008316388614665698,0.05573675967714857
0.328,-0.0179,-1.456999999999556,0.006107889794816256,0.9370203022671979,0.008319579754584645,0.05762361995292104
0.329,-0.0073,0.543,0.00608195464753748,0.9282167478580001,0.00817450576877298,0.056203886624555305
0.33,-0.0138,0.543,0.006126636569443211,0.9272522250889973,0.008424443987164921,0.05604833977864836
0.331,-0.0051,0.543,0.0060445070002601905,0.9272522250889974,0.007965034066476863,0.05604833977864837
0.332,0.0003,0.543,0.006262543877531405,0.9183550365058536,0.009184671591556557,0.05461350623606844
0.333,-0.0004,0.543,0.006149395825230866,0.9183550365058536,0.008551752921088897,0.05461350623606844
0.334,-0.0029,1.5429999999995558,0.006151727399614683,0.9360648507391598,0.008564795098387564,0.05746953600967007
0.335,-0.0021,-0.457,0.0061932258702419325,0.9370203022671979,0.008796925977548215,0.05762361995292104
0.336,0.0062,-0.456999999999778,0.0062179140986364815,0.9272522250889974,0.008935025046634935,0.05604833977864837
0.337,0.0073,0.543,0.006210995079469513,0.9398808291882902,0.008896321981729618,0.05808493196597785
0.338,0.0048,-1.457,0.006201431217012896,0.9495189998120533,0.00884282440057374,0.0596392623447094
0.339,0.0073,0.543,0.006158881009251009,0.9495189998120533,0.008604810396998641,0.0596392623447094
0.34,0.0033,-0.457,0.006169677951397882,0.9485761376571185,0.008665205482285339,0.059487208666933834
0.341,0.0055,0.543,0.006220363616740187,0.9370203022671979,0.00894872696823201,0.05762361995292104
0.342,0.0033,0.543,0.006245957466412617,0.9243526181700032,0.00909189183035263,0.055580725404872834
0.343,0.0004,0.543,0.006261740670925615,0.9243526181700031,0.0091801786776556,0.05558072540487281
0.34400000000000003,0.001799999999999678,0.543,0.0062617634379541496,0.9243526181700032,0.009180306030068102,0.055580725404872834
0.34500000000000003,-0.004000000000000622,-0.457,0.006264418306740506,0.923384059124996,0.009195156626153165,0.05542452763602049
0.34600000000000003,-0.015199999999999379,0.543,0.00623257839120291,0.923384059124996,0.009017053012346976,0.05542452763602049
0.34700000000000003,-0.004000000000000078,-0.457,0.006281965097966681,0.9105266808298278,0.00929330848602209,0.05335104144708013
0.34800000000000003,-0.005399999999999801,0.543,0.006206826315484254,0.9014644311597404,0.008873003077820999,0.051889588800958876
0.34900000000000003,-0.0017999999999998,-1.457,0.006173075594605222,0.9014644311597403,0.008684210951471864,0.05188958880095886
0.35000000000000003,0.0017999999999997003,0.543,0.0061664900477717555,0.9014644311597403,0.008647373237862186,0.05188958880095886
0.35100000000000003,-0.003599999999999639,-0.457,0.006109246375038068,0.9004712536081141,0.008327168086269677,0.051729420849982694
0.352,0.0029,-1.457,0.006110016125163665,0.888289838117595,0.008331473853944681,0.04976494596237459
0.353,0.0021,0.543,0.0060988187045731826,0.8872819137294513,0.008268838603856849,0.04960239981569261
0.354,0.0043,-0.457,0.006103118455199302,0.8862728430679865,0.008292890210528765,0.04943966881158125
0.355,0.0021,1.543,0.006063741818069328,0.8872819137294513,0.008072628276601759,0.04960239981569261
0.356,0.0028,0.543,0.006069966672897631,0.8964875405091954,0.008107448379658586,0.051086974629479656
0.357,0.0024,-0.457,0.0059737519170766215,0.8954888431558713,0.007569249850426688,0.0509259165100474
0.358,0.0039,-0.457,0.0060197602615427,0.926456142552614,0.007826607706950301,0.05591995698500622
0.359,0.0002,0.543,0.005983759458210127,0.9254897849257353,0.007625229246448855,0.055764114234881715
0.36,-0.0027,0.543,0.005979616787536199,0.9254897849257353,0.007602056301251676,0.055764114234881715
0.361,-0.0006,-1.457,0.005983609740955995,0.9343190343018332,0.007624391769855097,0.057187991344177715
0.362,-0.0065,-2.457,0.005947916259296559,0.922584638820268,0.0074247323811433355,0.05529560656650238
0.363,-0.0043,0.543,0.005920833888430161,0.9235540362419028,0.007273241146311086,0.0554519395388401
0.364,0.0025,1.543,0.0058971327570454994,0.9333608175765278,0.007140663622796012,0.05703346146255488
0.365,-0.004,-0.457,0.005715503810899565,0.9206427817801903,0.006124681917624591,0.05498244678687524
0.366,-0.0048,0.543,0.005843890322238267,0.9304802467394897,0.006842840281028301,0.05656891700335456
0.367,0.0076,-0.457,0.005816250281384269,0.9507911692379122,0.006688229595706758,0.0598444228116377
0.368,0.0094,-1.457,0.005831404682669102,0.9507911692379122,0.006772999092997379,0.0598444228116377
0.369,0.0046,0.543,0.005829546747913813,0.9498495698947363,0.006762606323778429,0.05969257278523503
0.37,0.0003,-1.457,0.005775102912194765,0.9402147879611346,0.006458062680137686,0.058138788894448915
0.371,0.0013,1.543,0.005776997883698772,0.9411660265715007,0.006468662622606909,0.058292193428071626
0.372,0.01,0.543,0.005774991288676796,0.9411660265715007,0.006457438289287387,0.058292193428071626
0.373,0.0024,-1.457,0.0057754778348051575,0.9285549016774559,0.006460159892730155,0.05625842008062096
0.374,-0.0067,-0.457,0.005807920958484003,0.9295180727133903,0.006641637684765777,0.05641374893497595
0.375,0.0019,-0.457,0.005787159018660908,0.9304802467395001,0.006525501179700187,0.05656891700335624
0.376,-0.0082,-0.457,0.005799377531530354,0.9304802467395,0.006593848135420476,0.05656891700335623
0.377,-0.0018,1.543,0.005798857646051496,0.9295180727133916,0.006590940040942631,0.056413748934976166
0.378,-0.0054,0.543,0.005734675409189258,0.9295180727133916,0.006231922495376849,0.056413748934976166
0.379,-0.0087,-0.457,0.005589689996978122,0.9206427817802091,0.005420914506568185,0.05498244678687827
0.38,0.0003,0.543,0.005574196784758384,0.9324016161051992,0.005334249795333533,0.05687877277271844
0.381,-0.0185,0.543,0.005400645844161875,0.9440139913090129,0.0043634542018840565,0.058751479560458335
0.382,-0.0051,0.543,0.0054669199341545556,0.9440139913090129,0.004734172990866883,0.058751479560458335
0.383,0.0018,-2.457,0.005467427925043606,0.9430656253493642,0.004737014550324343,0.058598538294031444
0.384,0.0083,0.543,0.005474952462649889,0.9430656253493642,0.004779104716622588,0.058598538294031444
0.385,0.0065,-0.457,0.005529859768507504,0.9314414268455187,0.005086240883050415,0.056723924784037524
0.386,0.001,1.543,0.005556190898242265,0.9324016161052054,0.0052335298843614615,0.056878772772719445
0.387,0.0024,-1.457,0.005521601183827304,0.9324016161052064,0.005040044661997905,0.056878772772719605
0.388,-0.0019,-0.457,0.0054968526204932444,0.9411660265715202,0.004901608096074771,0.05829219342807476
0.389,0.0046,-0.457,0.005495184699188381,0.931441426845515,0.004892278209141191,0.05672392478403693
0.39,0.0082,0.543,0.0054642381618512795,0.930480246739512,0.00471917190400612,0.05656891700335816
0.391,0.0071,-0.457,0.005481914774168921,0.930480246739512,0.004818049946879869,0.05656891700335816
0.392,0.0045,0.543,0.005459116071262256,0.9304802467395107,0.00469052035676597,0.05656891700335794
0.393,0.0002,0.543,0.0054491854294748295,0.9295180727134008,0.004634971114254101,0.05641374893497765
0.394,0.0023,-0.457,0.005453881885743861,0.9285549016774645,0.004661241781731518,0.05625842008062233
0.395,-0.0028,-0.457,0.005450927620761845,0.9402147879611507,0.004644716446768967,0.05813878889445151
0.396,-0.0079,-0.457,0.005458274137294511,0.9411660265715167,0.004685810812795463,0.05829219342807421
0.397,-0.005,0.543,0.005475288696672305,0.9411660265715167,0.004780985516036336,0.05829219342807421
0.398,0.0034,0.543,0.005580471148346023,0.9411660265715167,0.005369346836592104,0.05829219342807421
0.399,-0.0028,0.543,0.005608794634653614,0.9402147879611507,0.0055277805253063726,0.05813878889445151
0.4,0.0005,-0.457,0.0056081875267953345,0.9304802467395087,0.00552438453314672,0.05656891700335762
0.401,0.0012,0.543,0.005605531321194392,0.9295180727133988,0.005509526459293429,0.05641374893497733
0.402,0.002,-0.457,0.005659626877621101,0.9304802467395074,0.005812121925637464,0.05656891700335741
0.403,0.0041,-0.457,0.005657287440897109,0.9206427817802082,0.005799035768599081,0.05498244678687812
0.404,-0.0042,0.543,0.005682035081257157,0.9206427817802082,0.00593746717166282,0.05498244678687812
0.405,0.0034,-1.457,0.005666638007840943,0.9216142217411717,0.005851340234101418,0.05513910915584642
0.406,0.0027,-0.457,0.005707060395816541,0.9097159620694788,0.00607745180681049,0.05322029829601875
0.40700000000000003,0.008899999999999778,-2.457,0.00572206512225414,0.9087318028837836,0.006161384064719723,0.05306158472063732
0.40800000000000003,0.0048999999999998775,-0.457,0.005718512377568792,0.9087318028837826,0.006141511001091645,0.05306158472063716
0.40900000000000003,0.002699999999999717,0.543,0.005759616779967182,0.9097159620694778,0.006371437572405971,0.05322029829601859
0.41000000000000003,-0.002399999999999922,-1.457,0.005772755145402947,0.9087318028837826,0.006444929927021452,0.05306158472063716
0.41100000000000003,-0.0010000000000002,0.543,0.005766459759465805,0.9077465766946325,0.006409715292598643,0.052902699071534595
0.41200000000000003,-0.004600000000000078,0.543,0.005769621095327943,0.897660007782684,0.006427398924354421,0.05127605631026652
0.41300000000000003,-0.005999999999999984,-1.457,0.005764200099633273,0.8666962650128157,0.006397075385257447,0.04628258940610371
0.41400000000000003,-0.005700000000000361,-0.457,0.005748154454539587,0.86566319877628,0.006307320518487696,0.04611598867891484
0.41500000000000004,-0.012199999999999234,-1.457,0.005755301212861044,0.8625565764057593,0.0063472974927528455,0.04561498929695309
0.41600000000000004,0.001599999999999678,-2.457,0.005758955680942764,0.8635933589209738,0.006367739568710148,0.045782189341696256
0.417,-0.0042,-1.457,0.005770150341384313,0.8635933589209738,0.006430359379294096,0.045782189341696256
0.418,0.0012,-0.457,0.005763779988620185,0.8635933589209739,0.006394725401334206,0.045782189341696276
0.419,0.0059,-0.457,0.005691705094942321,0.8529848367022684,0.0059915585332070915,0.04407137211282008
0.42,0.0016,0.543,0.005685835333922452,0.8519351439941951,0.005958724725950821,0.04390209006457861
0.421,0.0027,-0.457,0.00569367957403221,0.8550803563333488,0.006002603218953153,0.04440931278112345
0.422,-0.0009,-0.457,0.005715925946623563,0.8422427047565215,0.006127043227216381,0.04233900788444144
0.423,0.0067,0.543,0.0056300963288593445,0.8519351439941951,0.00564693626596012,0.04390209006457861
0.424,0.002,0.543,0.005646269626667727,0.8411796072444907,0.005737405186439365,0.04216756406766262
0.425,0.0121,-0.457,0.005611471235539254,0.8411796072444907,0.00554275268469814,0.04216756406766262
0.426,-0.0002,-0.457,0.005648171022728464,0.8411796072444906,0.0057480410660884235,0.0421675640676626
0.427,-0.0049,-0.457,0.005642500869823307,0.8411796072444906,0.005716323810995532,0.0421675640676626
0.428,-0.0125,0.543,0.005848811456191757,0.8281264937027495,0.0068703677328554235,0.040062512008827114
0.429,-0.006,1.543,0.006008981743760796,0.8604792637580834,0.007766315682426411,0.04527998483599809
0.43,0.0002,1.543,0.0060715764115380775,0.8604792637580834,0.00811645280898279,0.04527998483599809
0.431,-0.0099,0.543,0.0061106134855459385,0.8699685507042665,0.008334815321440155,0.046810305012794706
0.432,-0.0008,-0.457,0.00584271450839458,0.8689393748374488,0.006836263106083322,0.046644331678507796
0.433,0.0029,0.543,0.005823166720525768,0.8679089785635996,0.006726918228668642,0.046478161531381866
0.434,0.0083,0.543,0.005825747672357724,0.8347725913172293,0.006741355353911275,0.04113431617431177
0.435,0.0058,0.542999999999778,0.005798503689760127,0.8347725913172293,0.006588960108095512,0.04113431617431177
0.436,-0.0003,-0.457,0.0057673948538737784,0.8358438378585246,0.0064149459501081875,0.041307074170330346
0.437,0.0051,-1.456999999999778,0.0058595202238510185,0.8216176952469417,0.006930269594632452,0.039012849830824196
0.438,-0.0046,-0.457,0.00589747778124969,0.844550765242274,0.007142593592036802,0.042711224632722485
0.439,0.0044,-0.457,0.006011311404029124,0.844550765242274,0.007779347152696485,0.042711224632722485
0.44,0.0055,-0.457,0.006039182555940914,0.8583969240476587,0.007935250608865197,0.04494416966970791
0.441,0.0023,0.542999999999778,0.006005820070084267,0.8573538576007553,0.007748630161031078,0.044775956226644334
0.442,-0.0002,-0.457,0.005963742268475464,0.8573538576007553,0.007513258665817825,0.044775956226644334
0.443,0.0023,-0.45699999999955593,0.0059511957574071815,0.8563095206006475,0.007443076979585587,0.04460753788375892
0.444,0.0001,1.543,0.005959773447813262,0.8552639083930322,0.007491058189134642,0.04443891389046067
0.445,-0.0049,0.543,0.0059605987603305,0.8552639083930323,0.0074956747573433746,0.04443891389046069
0.446,-0.0158,0.543,0.005962613304389804,0.8552639083930323,0.007506943555362329,0.04443891389046069
0.447,-0.0115,-0.457,0.006036702379117844,0.8658445073615351,0.007921377190936512,0.04614522798718066
0.448,-0.0078,-0.457,0.00607855732039687,0.8648104236516544,0.008155502067575655,0.045978463173902084
0.449,-0.0016,-0.457,0.006116486294291208,0.8648104236516543,0.008367666176822922,0.045978463173902064
0.45,-0.0005,-0.457,0.006115164900541741,0.863775101970975,0.0083602746684578,0.04581149871530744
0.451,0.0086,0.542999999999778,0.006125535734249171,0.863775101970975,0.008418286221889693,0.04581149871530744
0.452,0.0024,-0.457,0.006166513641521571,0.8627385378626498,0.008647505214723133,0.045644333892649054
0.453,0.0057,0.543,0.006193366384425798,0.8732285741097786,0.008797711974731781,0.04733604310276691
0.454,0.001,0.543,0.006181376955416718,0.8742527007183808,0.008730646450281234,0.047501202152295766
0.455,0.0071,0.542999999999778,0.00616746934111189,0.8732285741097786,0.008652851131880098,0.04733604310276691
0.456,0.005,-0.457,0.006164455193089192,0.8732285741097786,0.00863599082787724,0.04733604310276691
0.457,0.0013,-0.456999999999778,0.006208981394655486,0.9049579318944202,0.008885057990089271,0.052452979358358416
0.458,0.0079,0.543,0.006186908295935653,0.8742527007183808,0.008761587227572297,0.047501202152295766
0.459,0.0039,-0.457,0.006204840049603345,0.8846062076663249,0.008861892460050922,0.04917089352878173
0.46,0.0002,-0.457,0.00619917726230054,0.8835940813349824,0.008830216406084808,0.049007669742304964
0.461,-0.002,-0.456999999999778,0.00620179236055781,0.8742527007183808,0.008844844536914118,0.047501202152295766
0.462,-0.006,0.543,0.006226239362396079,0.8732285741097786,0.00898159425187429,0.04733604310276691
0.463,0.0002,-0.45700000000022206,0.0062567971300901614,0.8732285741097786,0.009152525887975516,0.04733604310276691
0.464,-0.0038,-1.457,0.006228591928974506,0.8627385378626498,0.008994753853659124,0.045644333892649054
0.465,0.0045,0.543,0.006372009005754462,0.8627385378626498,0.009796989011157236,0.045644333892649054
0.466,0.006,0.543,0.006254592987755602,0.8531688395953956,0.00914019653004538,0.04410104592725296
0.467,0.0071,-0.457,0.00625796626076123,0.8205278758648671,0.009159065679115445,0.038837096626298785
0.468,0.0024,-0.457,0.006244997433993062,0.8104599183269225,0.009086521676556467,0.037213455287721145
0.46900000000000003,-0.0037999999999999558,-0.457,0.006249270468854063,0.8104599183269225,0.009110423842683929,0.037213455287721145
0.47000000000000003,-0.0030000000000001224,1.543,0.0062221800347059385,0.8248785143023505,0.008958887504100921,0.03953871623381901
0.47100000000000003,-0.0051999999999998,0.543,0.006237841826708901,0.8237930087625577,0.009046495203660137,0.039363658714851514
0.47200000000000003,-0.0015999999999996393,-1.457,0.006281847879932523,0.8237930087625577,0.009292652801007405,0.039363658714851514
0.47300000000000003,0.004899999999999861,-0.457,0.006304347735420076,0.8573538576007553,0.009418510721946875,0.044775956226644334
0.47400000000000003,0.0023999999999994946,-0.457,0.006375049598057612,0.8573538576007553,0.009813997237094987,0.044775956226644334
0.47500000000000003,-0.006700000000000061,-0.457,0.006440845473312322,0.8668773575308824,0.010182041026110955,0.04631179386960407
0.47600000000000003,-0.007800000000000427,-0.457,0.006385723061436863,0.8679089785635995,0.009873701616568857,0.046478161531381845
0.47700000000000004,-0.015499999999999962,0.543,0.0063860773415616865,0.8679089785635995,0.009875683360850067,0.046478161531381845
0.47800000000000004,-0.014799999999999862,-2.457,0.006381751644992022,0.8689393748374488,0.009851486619801035,0.046644331678507796
0.47900000000000004,-0.0122999999999997,-0.457,0.00628050929541292,0.8689393748374488,0.009285165132265169,0.046644331678507796
0.48,-0.0069,-1.457,0.006268678296391778,0.8552639083930323,0.009218985821013078,0.04443891389046069
0.481,-0.0047,-0.457,0.006270945159904553,0.8424290539434994,0.009231666023733901,0.04236906008144837
0.482,0.0018,-0.457,0.006203325377571456,0.841366191890638,0.00885341980684014,0.04219765423674477
0.483,0.0025,-0.457,0.006209593374706126,0.841366191890638,0.008888481235935119,0.04219765423674477
0.484,0.0061,0.543,0.006237817438486869,0.841366191890638,0.00904635878274303,0.04219765423674477
0.485,0.0025,0.543,0.006182584669742125,0.841366191890638,0.008737402067630363,0.04219765423674477
0.486,0.0104,-0.457,0.006167045676715417,0.8403019854700874,0.00865048127132052,0.042026031588290644
0.487,0.0071,-2.457,0.0061747456443496974,0.8403019854700874,0.008693552744303442,0.042026031588290644
0.488,0.0118,-0.457,0.00615484331156627,0.8293956045558493,0.008582224641447256,0.040267179225247564
0.489,0.0074,1.543,0.006152638038939265,0.8304737870204865,0.008569888960976192,0.04044105576510352
0.49,0.0052,-0.457,0.006149940763527,0.8413661918906433,0.008554801154044424,0.04219765423674563
0.491,0.0001,-0.457,0.006132192752317863,0.8424290539435048,0.008455523725670358,0.04236906008144922
0.492,0.0023,-0.457,0.006151655857995554,0.8521193735533654,0.008564394914508637,0.04393180043303512
0.493,-0.0032,-0.457,0.006152139481930576,0.8521193735533654,0.008567100172016276,0.04393180043303512
0.494,-0.0025,-0.457,0.006166538431723593,0.8846062076663335,0.008647643884204267,0.04917089352878311
0.495,-0.0032,-0.457,0.006186788273356555,0.8815663426124295,0.008760915854714836,0.04868065997876918
0.496,-0.0123,-1.457,0.00622704043849448,0.8908310346434302,0.00898607524831068,0.05017476013900829
0.497,-0.0087,-0.457,0.006069738134793384,0.8908310346434302,0.00810617000119647,0.05017476013900829
0.498,-0.0076,0.543,0.005959785299908534,0.8918349479334559,0.0074911244864524435,0.05033665942313718
0.499,0.0025,-0.457,0.005925620404121015,0.9019866585952833,0.007300015581094822,0.0519738074768215
0.5,0.0036,-0.457,0.005995976704577969,0.9120253780527704,0.007693569117712141,0.053592733642941134
0.501,0.0072,-0.457,0.0060424614124697405,0.9120253780527703,0.007953591618477692,0.053592733642941114
0.502,0.0061,-1.457,0.005982870613761746,0.9110437136277906,0.007620257298323512,0.053434422393117
0.503,0.0014,0.543,0.005986610151742659,0.9110437136277906,0.0076411752315881185,0.053434422393117
0.504,0.0007,-0.457,0.005977921938184728,0.9229248562111118,0.007592575786330156,0.05535047281100084
0.505,0.0028,-1.457,0.005980116596711806,0.9229248562111118,0.007604852094484359,0.05535047281100084
0.506,0.0079,-2.457,0.005977775876384494,0.9219547972328787,0.007591758757326737,0.055194033150624676
0.507,0.0072,0.543,0.005958488311021474,0.9219547972328787,0.007483869492086043,0.055194033150624676
0.508,0.0068,-1.457,0.005978887883971753,0.9229248562111141,0.007597979017855911,0.055350472811001215
0.509,-0.0005,-0.457,0.005926915454417187,0.9229248562111141,0.007307259731524073,0.055350472811001215
0.51,-0.003,0.543,0.00591573755156652,0.9229248562111141,0.00724473365823322,0.055350472811001215
0.511,-0.0056,-0.457,0.00595583771342003,0.9229248562111141,0.007469042787819012,0.055350472811001215
0.512,-0.0077,0.543,0.005981663336390311,0.9229248562111151,0.00761350412517313,0.055350472811001375
0.513,-0.0009,-0.457,0.00596118841639005,0.9219547972328805,0.007498973129004712,0.05519403315062498
0.514,-0.0146,-0.457,0.005990306322317996,0.9219547972328795,0.007661850579672328,0.05519403315062482
0.515,-0.0008,0.543,0.00598125201057832,0.9120253780527742,0.007611203283216406,0.05359273364294174
0.516,-0.0026,0.543,0.005978411334857468,0.911043713627793,0.007595313334923738,0.053434422393117395
0.517,-0.0012,0.543,0.005957975179163041,0.9100609903018229,0.007480999175478637,0.05327594037624196
0.518,-0.0026,-0.457,0.005915850790127804,0.9100609903018229,0.007245367083185717,0.05327594037624196
0.519,0.001,1.543,0.005915473239263368,0.9110437136277917,0.007243255168872619,0.05343442239311718
0.52,0.0047,-0.457,0.005933627698266682,0.9110437136277916,0.007344806152931249,0.05343442239311716
0.521,0.0079,-0.457,0.005930874292648159,0.898009668098036,0.0073294043692690375,0.0513324453981551
0.522,0.0054,-2.457,0.005916152950695467,0.898009668098036,0.00724705728518977,0.0513324453981551
0.523,0.0116,0.543,0.00594141136897276,0.8888198063391243,0.007388345837569953,0.04985041298082042
0.524,0.0094,-1.457,0.005922624123973012,0.9019866585952864,0.00728325522500327,0.051973807476822
0.525,0.0087,0.543,0.00592150315960703,0.9019866585952843,0.007276984862750152,0.05197380747682166
0.526,-0.0007,-0.457,0.005885119951352013,0.9149640519862281,0.007073467335687927,0.05406664828361974
0.527,-0.0043,0.543,0.005844281697818572,0.9159415147806328,0.006845029526949051,0.05422428194406534
0.528,-0.0053,0.543,0.005657084749903992,0.9149640519862267,0.005797901971673096,0.054066648283619505
0.529,-0.0046,-0.457,0.00552890634466675,0.8968376579478489,0.005080907695802266,0.0511434374368179
0.53,0.0017,0.543,0.005484149548463824,0.8968376579478489,0.004830550651459107,0.0511434374368179
0.531,-0.0037,-0.457,0.0054552408249937245,0.8968376579478419,0.004668843309162016,0.05114343743681678
0.532,-0.0029,-0.457,0.005436997792915674,0.8978348549621784,0.004566796872008422,0.051304253599288745
0.533,0.0066,0.543,0.005472733496780616,0.8978348549621794,0.004766692439970553,0.05130425359928891
0.534,0.0005,0.543,0.005535783997617346,0.9079194814042555,0.005119379369621865,0.052930583101946975
0.535,0.0038,-0.457,0.005511972724942118,0.9169179355701296,0.004986185746423487,0.05438174756226036
0.536,0.0031,-0.457,0.005529902368498825,0.9169179355701296,0.005086479175529344,0.05438174756226036
0.537,-0.0012,-0.457,0.005553715935932494,0.9169179355701296,0.005219685634966895,0.05438174756226036
0.538,0.0043,0.543,0.005531759728696713,0.8856171772912715,0.005096868730834321,0.04933393077530599
0.539,-0.004,-1.457,0.005438781881956478,0.8866269941666224,0.004576776568881171,0.04949678211998376
0.54,-0.0029,0.543,0.005388320744822095,0.8835940813349663,0.0042945110311541235,0.04900766974230236
0.541,-0.0054,-1.457,0.005444905157184632,0.8835940813349653,0.0046110284639647664,0.0490076697423022
0.542,0.0008,-0.457,0.005624437563844764,0.8846062076663078,0.005615282711553331,0.04917089352877897
0.543,0.0048,-2.457,0.005759208898081715,0.8846062076663078,0.006369155994814408,0.04917089352877897
0.544,-0.005,-1.457,0.005782536289897466,0.8846062076663078,0.006499642923341351,0.04917089352877897
0.545,-0.0086,-1.457,0.005782514850268111,0.8856171772912675,0.006499522996029915,0.049333930775305346
0.546,-0.0075,0.543,0.005856262057670603,0.8866269941666213,0.006912044321062617,0.04949678211998358
0.547,0.0002,0.543,0.0057287424057344116,0.8762973632600544,0.006198734927564836,0.04783094118959212
0.548,-0.0045,-1.457,0.005696127243667818,0.8762973632600544,0.006016294800734856,0.04783094118959212
0.549,0.0093,-1.457,0.005650709041052867,0.875275629036327,0.0057622380332552755,0.047666167955653566
0.55,0.0075,-0.457,0.005713326548440945,0.8856171772912675,0.0061125029182291036,0.049333930775305346
0.551,-0.0015,-0.457,0.005718921277396161,0.8856171772912675,0.006143798272766508,0.049333930775305346
0.552,0.0032,-0.457,0.005674008984270225,0.8866269941666213,0.005892571421972667,0.04949678211998358
0.553,0.0047,1.543,0.00565905091845889,0.8762973632600544,0.00580890017060255,0.04783094118959212
0.554,-0.0019,0.543,0.005665825663844531,0.8856171772912675,0.005846796208183888,0.049333930775305346
0.555,0.0069,-0.457,0.005718804802010403,0.8856171772912675,0.006143146741919998,0.049333930775305346
0.556,0.0014,-0.457,0.005718347760406685,0.8886431853832613,0.006140590178565244,0.049821929638085065
0.557,-0.0051,0.543,0.005699568009425901,0.8563095206006298,0.006035541485452082,0.04460753788375608
0.558,-0.0007,0.543,0.005790415586694673,0.8563095206006298,0.00654371751368306,0.04460753788375608
0.559,0.0014,-0.457,0.005755374085408988,0.8466671596409368,0.006347705121476632,0.04305253173711305
0.56,-0.0069,-0.457,0.005786320810969994,0.847723375451,0.006520812479483766,0.04322286575423764
0.561,-0.0059,-0.457,0.005784841713516443,0.8477233754510001,0.006512538820549656,0.04322286575423766
0.562,-0.0034,-0.457,0.0058473431372561835,0.8477233754510001,0.006862154365946931,0.04322286575423766
0.5630000000000001,-0.005899999999999556,-0.457,0.005936090857983485,0.8573538576007377,0.007358584381910107,0.04477595622664149
0.5640000000000001,-0.0019000000000002442,-0.457,0.006022452645060611,0.8573538576007377,0.007841668149988412,0.04477595622664149
0.5650000000000001,-0.004099999999999922,-0.457,0.0058465038875920045,0.8679089785635821,0.006857459837222463,0.046478161531379035
0.5660000000000001,-0.0033999999999995557,-0.457,0.005846028836615351,0.8803724422895495,0.006854802534454678,0.04848812182879552
0.5670000000000001,0.0005999999999996779,-0.457,0.005842998798748594,0.8803724422895495,0.0068378533470926095,0.04848812182879552
0.5680000000000001,-0.0022999999999990784,0.542999999999778,0.005874544067037955,0.8793554429644934,0.0070143087863096835,0.04832411218341876
0.5690000000000001,0.0059999999999996,-0.457,0.0058745221190446215,0.8793554429644934,0.007014186015351831,0.04832411218341876
0.5700000000000001,0.002399999999999389,-0.456999999999778,0.005906280746689765,0.8668773575308648,0.007191834927342389,0.04631179386960125
0.5710000000000001,-0.0031000000000002887,0.543,0.005932623645951683,0.8988309456491379,0.0073391897641082145,0.05146489134634164
0.5720000000000001,-0.005699999999999512,0.5430000000002221,0.005916721033783122,0.8988309456491379,0.0072502349836586644,0.05146489134634164
0.5730000000000001,-0.0013000000000000888,1.543,0.005892260243999185,0.8668773575308648,0.007113408142773094,0.04631179386960125
0.5740000000000001,-0.0020999999999999222,-0.45699999999955593,0.005820494662616437,0.8658445073615176,0.0067119714814202315,0.04614522798717785
0.5750000000000001,-0.0014000000000002441,1.543,0.005864129042516415,0.8552639083930146,0.006956050041779534,0.04443891389045782
0.5760000000000001,-0.003600000000000155,0.542999999999778,0.005799304349918303,0.8552639083930145,0.006593438777878207,0.0444389138904578
0.577,-0.005,-0.457,0.005902333582645578,0.8552639083930145,0.007169755591744735,0.0444389138904578
0.578,-0.0087,1.5429999999995558,0.005924665453595042,0.8552639083930146,0.007294673853995041,0.04443891389045782
0.579,-0.0101,-0.457,0.006199309648754909,0.8552639083930146,0.008830956939014749,0.04443891389045782
0.58,-0.004,-1.456999999999556,0.006279343715522381,0.8552639083930146,0.009278645203201923,0.04443891389045782
0.581,0.0015,0.543,0.006348567783885483,0.8552639083930145,0.00966586534903671,0.0444389138904578
0.582,0.0065,-0.45700000000022206,0.006344404876308183,0.8552639083930145,0.009642579204242047,0.0444389138904578
0.583,0.0087,-1.457,0.006350388002603717,0.8658445073615176,0.009676047145255747,0.04614522798717785
0.584,0.0033,-1.456999999999556,0.006370293829995116,0.8658445073615176,0.00978739479597499,0.04614522798717785
0.585,-0.0051,0.543,0.006380249975605948,0.8648104236516369,0.009843086699767134,0.04597846317389925
0.586,0.0116,-0.457,0.006389305540049961,0.8648104236516369,0.009893741003501991,0.04597846317389925
0.587,-0.0051,-0.457,0.006411814996930197,0.8648104236516369,0.010019652631956248,0.04597846317389925
0.588,0.0061,0.542999999999556,0.00641068733029155,0.8658445073615176,0.010013344779057751,0.04614522798717785
0.589,0.0003,-1.457,0.006397216569196584,0.8783372660884285,0.009937993095762598,0.048159912636516394
0.59,0.0094,-0.456999999999778,0.006394838543479461,0.8679089785635821,0.009924691082651304,0.046478161531379035
0.591,0.0141,0.543,0.006421206572786758,0.8803724422895494,0.010072186489887287,0.048488121828795507
0.592,0.0126,-0.457,0.006404996662974884,0.869968550704249,0.009981512772064192,0.046810305012791896
0.593,0.0061,-0.457,0.006407022136893037,0.8803724422895494,0.009992842708667425,0.048488121828795507
0.594,0.0025,0.543,0.006399754227963312,0.8487782769119523,0.009952188051664023,0.04339298780865363
0.595,-0.0098,0.543,0.0063809526434414465,0.8390493713130319,0.009847017227807005,0.04182402476426325
0.596,-0.0019,-0.457,0.006451012704698908,0.829206326341017,0.010238913684903544,0.04023665466920572
0.597,-0.0062,-0.457,0.006571530796227679,0.829206326341017,0.010913058300800978,0.04023665466920572
0.598,-0.0025,-0.457,0.006595339614321942,0.8422427047565035,0.01104623819375752,0.04233900788443854
0.599,0.0088,-1.457,0.006584319437624409,0.8454239764344914,0.010984594396609383,0.04285204582546683
0.6,0.0044,-0.457,0.006594568048297115,0.835656020186224,0.011041922268448311,0.04127678515334618
0.601,0.0008,0.543,0.00656061209514458,0.8687587121464209,0.010851982129958963,0.04661519653243809
0.602,0.0045,-0.457,0.006562914186597735,0.8687587121464209,0.010864859387960328,0.04661519653243809
0.603,-0.0031,-1.457,0.006563919004880348,0.869788101782206,0.010870480061392726,0.046781204340860506
0.604,0.0078,-0.457,0.006573596671117801,0.8561261927185279,0.010924614229181747,0.044577972927132774
0.605,-0.0027,1.543,0.006603881561538954,0.8561261927185279,0.011094019465868472,0.044577972927132774
0.606,0.0064,-0.457,0.006608179162432067,0.8561261927185279,0.011118059047533078,0.044577972927132774
0.607,0.0125,0.543,0.0067201779225633425,0.8561261927185279,0.011744548897910954,0.044577972927132774
0.608,0.0024,0.543,0.006702236117548744,0.856126192718528,0.011644187440999019,0.04457797292713279
0.609,0.006,0.543,0.006701875798709319,0.856126192718528,0.011642171917831307,0.04457797292713279
0.61,-0.0027,0.543,0.00671064021765016,0.8571707530768345,0.011691197634763005,0.04474642729059172
0.611,-0.0102,-0.457,0.006680515238542568,0.8571707530768345,0.011522686897397423,0.04474642729059172
0.612,-0.0128,-1.457,0.0066563180974955624,0.8582140420675329,0.011387334834067947,0.04491467662289142
0.613,-0.0102,-0.457,0.006648222121567119,0.8904785555299589,0.011342048201054078,0.05011791646863521
0.614,0.0021,-1.457,0.006621975523754414,0.8904785555299589,0.011195232047756165,0.05011791646863521
0.615,0.0003,1.543,0.006619516248948707,0.8914828657525099,0.01118147554988726,0.050279879765355945
0.616,0.0018,0.543,0.006636737122505557,0.901638540579717,0.011277804317146487,0.05191766711283539
0.617,0.0062,-0.457,0.006664845376780375,0.901638540579717,0.011435034057854095,0.05191766711283539
0.618,0.0026,-0.457,0.006664849841105883,0.9026304337492215,0.01143505903004679,0.0520776279338252
0.619,0.0062,0.543,0.006681943742260564,0.9016385405797185,0.011530677549075195,0.05191766711283562
0.62,0.0073,-2.457,0.0066708693458652135,0.9016385405797185,0.011468730462048372,0.05191766711283562
0.621,0.0066,-0.457,0.006688414209081528,0.9026304337492239,0.01156687153716747,0.052077627933825595
0.622,0.0005,-0.457,0.006684827731872315,0.9026304337492239,0.01154680978320207,0.052077627933825595
0.623,-0.0071,-0.457,0.006677005771148965,0.901638540579718,0.011503055914878085,0.05191766711283555
0.624,-0.0118,-0.457,0.006679351203722533,0.8884665293164131,0.011516175611027968,0.04979344063306452
0.625,0.0002,0.543,0.006682326282984073,0.8884665293164151,0.011532817375269289,0.04979344063306484
0.626,-0.011,-0.457,0.006684146242189259,0.8750962744592078,0.011542997719844659,0.04763724376675264
0.627,-0.0067,0.543,0.006732226144107095,0.8740731362425013,0.011811943291415114,0.04747224411340066
0.628,-0.019,0.543,0.006753212784489147,0.8844287452526725,0.011929336708783976,0.049142274485667575
0.629,-0.011,-0.457,0.006707133140334828,0.8709965104901738,0.011671580021675402,0.046976082231908335
0.63,-0.0095,0.543,0.006745609610655385,0.872023258495807,0.011886806673344949,0.04714166402940453
0.631,-0.0029,-0.457,0.0067508287410829705,0.8615185461899489,0.011916001034397232,0.04544758803778702
0.632,-0.004,-1.457,0.006799981726363269,0.8615185461899489,0.01219094913523144,0.04544758803778702
0.633,0.0083,0.543,0.006799981726363269,0.8615185461899478,0.01219094913523144,0.04544758803778684
0.634,0.0036,-0.457,0.006763366765389079,0.864628898223971,0.011986135248047109,0.04594918889584927
0.635,0.0051,-0.457,0.006764895795660487,0.8646288982239784,0.01199468821724815,0.04594918889585046
0.636,0.0062,-0.457,0.0067502472726206015,0.8740731362425226,0.01191274846187266,0.0474722441134041
0.637,0.0,0.543,0.006706510422921865,0.8844287452526935,0.011668096714017197,0.049142274485670975
0.638,-0.0011,1.543,0.00670881966942761,0.8854399174991135,0.011681013995388654,0.0493053444085945
0.639,-0.0036,-0.457,0.006690757982522907,0.8844287452526951,0.011579981952594284,0.049142274485671225
0.64,0.0065,1.543,0.006690691837001506,0.8750962744592321,0.011579611952982169,0.047637243766756564
0.641,0.0029,-0.457,0.006647138531656934,0.8761182178473491,0.011335986901090516,0.04780205073225869
0.642,0.0018,-1.457,0.006502384644725077,0.8750962744592332,0.010526274000168577,0.047637243766756744
0.643,-0.0037,0.543,0.006402023015378188,0.8750962744592332,0.009964879016157013,0.047637243766756744
0.644,0.001,0.543,0.006410137207374439,0.8750962744592321,0.010010267544777417,0.047637243766756564
0.645,-0.0128,0.543,0.006502494782888279,0.8750962744592321,0.010526890082358275,0.047637243766756564
0.646,-0.0146,0.543,0.006490916632450579,0.9057729093749928,0.010462125135613643,0.05258440930554288
0.647,-0.0056,1.543,0.006492952216324462,0.9067602800240119,0.010473511624491604,0.05274364078781758
0.648,0.0024,1.543,0.0064635401119675605,0.9067602800240109,0.010308988509804837,0.052743640787817424
0.649,0.01,0.543,0.006459803967281846,0.9077465766946237,0.010288089557687868,0.052902699071533166
0.65,0.0034,-2.457,0.006408656044344275,0.8986562922741802,0.01000198233158341,0.051436725311827226
0.651,0.0023,-0.457,0.0064073147427550995,0.8986562922741802,0.009994479464311224,0.051436725311827226
0.652,0.0034,0.543,0.00645409444323158,0.8976600077826755,0.010256152071381884,0.05127605631026516
0.653,0.0059,-0.457,0.0064473891493999624,0.9077465766946232,0.01021864452643776,0.05290269907153309
0.654,0.0066,0.543,0.00645358542487832,0.8986562922741812,0.01025330476457599,0.051436725311827386
0.655,0.0073,-0.457,0.006414280392263736,0.8996514734693454,0.010033443366352061,0.051597216386780165
0.656,0.0123,-0.457,0.006408781776000698,0.8874588056039439,0.010002685639428317,0.04963092684898632
0.657,0.0014,0.543,0.006378540241626318,0.8884665293164196,0.009833522924384008,0.04979344063306556
0.658,-0.0001,0.543,0.00626307726296018,0.8874588056039417,0.009187655200991835,0.04963092684898598
0.659,-0.0037,0.543,0.006270611008242004,0.8996514734693433,0.0092297968724609,0.051597216386779825
0.66,-0.0027,-0.457,0.006298164535312361,0.8996514734693419,0.009383923623787946,0.05159721638677961
0.661,-0.0016,0.543,0.006299523108211523,0.8986562922741778,0.009391523101954721,0.05143672531182683
0.662,0.0009,-2.457,0.006376534305656867,0.8996514734693418,0.009822302277620631,0.051597216386779596
0.663,0.0001,-0.457,0.006376534305656867,0.8904785555299629,0.009822302277620631,0.05011791646863585
0.664,-0.0006,0.543,0.006359861256515642,0.8904785555299628,0.009729037887465009,0.05011791646863584
0.665,0.0063,-1.457,0.006359861256515641,0.8801941262757408,0.009729037887465005,0.048459365127124995
0.666,0.007,-0.457,0.006369958520654445,0.8801941262757328,0.009785519168973219,0.04845936512712371
0.667,-0.0006,0.543,0.006384726129100638,0.8791769206813353,0.00986812505492276,0.0482953222170626
0.668,-0.0053,-0.457,0.006408519610990377,0.8791769206813353,0.010001219161425363,0.0482953222170626
0.669,-0.0046,-0.457,0.006443577848530359,0.8791769206813353,0.01019732517157397,0.0482953222170626
0.67,-0.0054,0.543,0.006430884066377974,0.8791769206813352,0.010126319691941377,0.04829532221706258
0.671,0.0022,0.543,0.0064297569809598784,0.8475381903333157,0.010120015090228661,0.04319300128458445
0.672,0.0047,-0.457,0.006398071414543918,0.8475381903333157,0.009942774862392157,0.04319300128458445
0.673,0.0022,-0.457,0.0064097386233235186,0.8475381903333158,0.010008037976681029,0.04319300128458446
0.674,0.0029,-0.457,0.006375580449179223,0.8485933220012147,0.009816966670322294,0.0433631604640592
0.675,0.0021,-0.457,0.006283763118815226,0.8485933220012147,0.009303366113544582,0.0433631604640592
0.676,-0.0088,-0.457,0.006289540741947715,0.8485933220012147,0.009335684527137464,0.0433631604640592
0.677,-0.0073,-1.457,0.006241519370822931,0.8485933220012147,0.009067066360510944,0.0433631604640592
0.678,-0.0037,-0.457,0.006210076555003596,0.8485933220012147,0.008891184011857933,0.0433631604640592
0.679,-0.0124,0.543,0.0059833907474108605,0.8582140420675288,0.007623166780996609,0.04491467662289075
0.68,-0.0048,-0.457,0.0059194300062463245,0.8718432348450365,0.007265388220633434,0.047112631940203605
0.681,0.0083,0.543,0.005848907110417457,0.8718432348450365,0.0068709027959353765,0.047112631940203605
0.682,0.0065,-0.457,0.0059046290400286,0.8852626222134473,0.007182595740606676,0.049276752317909005
0.683,0.0051,1.543,0.005975278222744217,0.8759390357960991,0.0075777875789533435,0.04777315436629328
0.684,0.0036,-1.457,0.00617636492545823,0.8852626222134473,0.00870261055153466,0.049276752317909005
0.685,0.0025,-1.457,0.006189458330927116,0.8852626222134473,0.00877585141262566,0.049276752317909005
0.686,0.0087,-1.457,0.006205772323179743,0.8954888431558726,0.008867107338614795,0.05092591651004762
0.687,0.0054,0.542999999999778,0.006175269812544031,0.9055995948238147,0.008696484795098075,0.05255645918072271
0.6880000000000001,-0.0035999999999996,-0.457,0.0061753414788732934,0.9046109573034542,0.00869688567657073,0.0523970233923936
0.6890000000000001,6.106226635438355e-16,0.543,0.006183725126320021,0.8914828657525059,0.008743781463884489,0.0502798797653553
0.6900000000000001,0.005499999999999711,0.543,0.006187476839168134,0.9016385405797132,0.008764767499963107,0.05191766711283476
0.6910000000000001,0.0028999999999990782,-0.457,0.006157573063144564,0.8894731113345301,0.008597494111000753,0.04995577029815539
0.6920000000000001,-0.005399999999998635,-0.457,0.006152839115671111,0.8894731113345301,0.008571013728174514,0.04995577029815539
0.6930000000000001,0.00689999999999799,-0.456999999999778,0.006161956417225911,0.8791769206813352,0.00862201337210112,0.04829532221706258
0.6940000000000001,-0.011199999999999755,0.543,0.0063335197335072846,0.8781585368184547,0.009581690749078048,0.04813108928977008
0.6950000000000001,-0.008999999999999278,-2.4569999999993337,0.00637243861440738,0.8781585368184547,0.00979939212223072,0.04813108928977008
0.6960000000000001,-0.0024999999999997893,0.543,0.006347598713472968,0.8904785555299549,0.009660444639226792,0.05011791646863457
0.6970000000000001,-0.0005999999999998001,-0.456999999999778,0.006434328094957734,0.899651473469334,0.010145584627973723,0.05159721638677834
0.6980000000000001,0.0011999999999994892,0.543,0.006412151326367983,0.8864499363034398,0.010021533965096979,0.049468228317993634
0.6990000000000001,-0.003399999999999156,0.542999999999778,0.006477671845861026,0.8740731362424926,0.010388037490723197,0.047472244113399266
0.7000000000000001,0.0042000000000004,-0.457,0.006499005160449868,0.9047844612315301,0.010507370106987542,0.052425004057684244
0.7010000000000001,0.007799999999998756,-0.45700000000022206,0.006516858453300107,0.873048798996483,0.010607236451520183,0.047307051094755935
0.7020000000000001,-0.003399999999999156,-1.457,0.006598464404895172,0.873048798996483,0.011063717401352235,0.047307051094755935
0.7030000000000001,0.004199999999999889,0.543,0.006589718973517698,0.8854399174990853,0.011014797895558228,0.049305344408589954
0.704,0.0032,0.543,0.006564193338281001,0.8986562922741699,0.010872014605979887,0.05143672531182556
0.705,-0.0005,0.543,0.006575054247798784,0.8986562922741699,0.010932767506911903,0.05143672531182556
0.706,-0.0015,0.543,0.006570734981532099,0.8986562922741699,0.010908606735185622,0.05143672531182556
0.707,0.0032,-0.45699999999955593,0.006461154073907833,0.9087318028837621,0.010295641677882035,0.05306158472063385
0.708,0.0039,1.543,0.006533520904541986,0.9077465766946119,0.010700441559980471,0.052902699071531264
0.709,-0.0084,0.542999999999778,0.006535240227887717,0.9067602800239991,0.010710058975605036,0.05274364078781552
0.71,-0.003,-0.457,0.006524751819947388,0.9057729093749799,0.010651389744681971,0.05258440930554081
0.711,-0.0142,0.543,0.006519915860546317,0.9067602800239991,0.010624338735563123,0.05274364078781552
0.712,-0.0128,0.543,0.006538675810353237,0.9067602800239991,0.010729276666428233,0.05274364078781552
0.713,-0.0091,-0.457,0.006664155287508682,0.8750962744592006,0.011431173890794536,0.04763724376675148
0.714,0.0021,-0.457,0.006674987572823613,0.8761182178473167,0.01149176667591329,0.04780205073225346
0.715,0.0036,1.5429999999995558,0.006692695446133956,0.8854399174990853,0.011590819584067848,0.049305344408589954
0.716,0.0047,-0.457,0.006703940467039666,0.8750962744592006,0.011653721097052962,0.04763724376675148
0.717,0.0083,-0.457,0.006672775361344374,0.8761182178473167,0.011479392181436673,0.04780205073225346
0.718,0.0072,-0.457,0.006710145242789702,0.9116810932486916,0.011688428883341954,0.05353721145405231
0.719,0.0047,0.543,0.006697784540101302,0.9116810932486916,0.011619286557402414,0.05353721145405231
0.72,0.0072,0.543,0.006722776410430158,0.9126620721048482,0.01175908411484534,0.05369541214342983
0.721,0.0017,-0.457,0.006954317543991544,0.9116810932486916,0.013054260686007128,0.05353721145405231
0.722,0.0039,-0.457,0.006967381399669135,0.9106990577109124,0.013127336253801086,0.053378840355536916
0.723,-0.0026,0.543,0.006983717089651576,0.9206427817801854,0.013218713550843685,0.05498244678687445
0.724,-0.0048,-0.457,0.006982837479514762,0.9304802467394848,0.013213793256883667,0.05656891700335377
0.725,-0.0027,0.543,0.007000088980864539,0.9304802467394848,0.01331029334748063,0.05656891700335377
0.726,-0.0078,-0.457,0.007029935070237191,0.9314414268454878,0.013477244053394885,0.05672392478403254
0.727,-0.0024,0.543,0.007019233751676674,0.9314414268454878,0.013417383859800184,0.05672392478403254
0.728,-0.0092,-1.457,0.007070455138249357,0.9225846388202708,0.013703902021005318,0.05529560656650283
0.729,-0.0067,1.543,0.007279287748340802,0.9225846388202708,0.014872053440689443,0.05529560656650283
0.73,-0.0027,0.543,0.007332187189057168,0.9343190343018358,0.01516795816910451,0.057187991344178145
0.731,0.0086,1.543,0.007355834951084996,0.9343190343018358,0.015300237159311373,0.057187991344178145
0.732,0.01,0.543,0.00737837517920525,0.9631111730449181,0.015426320913506415,0.06183124758688129
0.733,0.0177,-1.457,0.007352159437844723,0.9631111730449181,0.015279677362602358,0.06183124758688129
0.734,0.0054,-0.457,0.00734187562286619,0.9517318370068181,0.015222152567687997,0.05999612260473943
0.735,0.0068,-1.457,0.007373346210663153,0.943065625349341,0.015398190265043873,0.058598538294027704
0.736,-0.0008,-1.457,0.0074214433855405906,0.9343190343018357,0.015667232456736405,0.057187991344178124
0.737,0.0003,-0.457,0.007436461686627976,0.9343190343018357,0.01575124064745332,0.057187991344178124
0.738,-0.0034,-0.457,0.007416909402180473,0.9333608175765319,0.015641870617430626,0.05703346146255554
0.739,0.0042,-1.457,0.0074590371444406105,0.9343190343018372,0.015877521466729102,0.05718799134417836
0.74,-0.0023,0.543,0.007463558547230106,0.9333608175765319,0.015902812933829,0.05703346146255554
0.741,-0.0016,-0.457,0.007486125981622713,0.9333608175765319,0.016029048872329258,0.05703346146255554
0.742,-0.0038,-0.457,0.007481821743255427,0.9343190343018372,0.01600497216248398,0.05718799134417836
0.743,-0.0151,-0.457,0.0074724624729795314,0.9468533899194156,0.015952619012967687,0.05920938424898873
0.744,-0.0071,0.543,0.007458726127837089,0.9564212983462387,0.015875781726528614,0.06075238357004933
0.745,-0.0115,1.543,0.0074617561852486245,0.9554852473265715,0.015892731023218722,0.06060142831176367
0.746,-0.018,-1.457,0.0074315312418000564,0.938142114045145,0.015723661113189555,0.057804532513379664
0.747,-0.0017,-0.457,0.007428458594469779,0.938142114045145,0.015706473580363714,0.057804532513379664
0.748,0.0095,0.543,0.0074293474052971945,0.9506260622812037,0.015711445340422747,0.0598177963107622
0.749,0.0113,-2.457,0.0074472477835278205,0.9506260622812037,0.015811575067450685,0.0598177963107622
0.75,0.0059,-0.457,0.007439497363731299,0.9592239707936298,0.015768221379133092,0.061204365496564855
0.751,0.0106,-0.457,0.007428316075210267,0.9601563769598596,0.015705676367345794,0.061354732955915946
0.752,0.0001,1.543,0.00742522690496742,0.9610878785461129,0.015688396409951937,0.06150495453528708
0.753,0.0011,1.543,0.0074178612588831115,0.9638769820381773,0.015647195038544916,0.06195474822087026
0.754,-0.0076,0.543,0.007409855256223736,0.9629481784766193,0.015602411690922868,0.06180496174707156
0.755,0.0069,-0.457,0.007419135435820481,0.9629481784766193,0.01565432242922238,0.06180496174707156
0.756,-0.0029,-1.457,0.00742283819059862,0.9741965081558365,0.015675034607502067,0.06361895957019462
0.757,0.0098,-0.457,0.00753775151020543,0.9741965081558364,0.01631782769130507,0.0636189595701946
0.758,-0.0015,-0.457,0.007531134131915828,0.9751145976625587,0.016280811921401125,0.06376701820770979
0.759,-0.0001,-0.457,0.007524878319974621,0.9629481784766212,0.016245818652882393,0.06180496174707187
0.76,0.001,0.543,0.007478363578003492,0.9629481784766225,0.015985628149847345,0.06180496174707208
0.761,-0.0052,0.543,0.007476195024928123,0.9629481784766216,0.015973497868314476,0.06180496174707194
0.762,-0.0129,-0.457,0.007348405366940693,0.9629481784766216,0.01525867813621613,0.06180496174707194
0.763,-0.0038,0.543,0.0073007813080264656,0.9629481784766215,0.014992282423365467,0.061804961747071924
0.764,-0.0049,-1.457,0.007255995087941208,0.9638769820381795,0.014741760790024913,0.06195474822087062
0.765,0.0074,-0.457,0.0072838658079997735,0.9760318235827115,0.014897661830527046,0.06391493757617774
0.766,0.0027,0.543,0.0073095162318487965,0.9648048914545477,0.015041143152824437,0.06210439049748857
0.767,0.0071,2.543,0.007325134324406308,0.9657319093030982,0.015128506409864732,0.062253888992573905
0.768,0.0034,-0.457,0.00730265752502361,0.9666580381488549,0.01500277745835014,0.06240324411978343
0.769,0.0074,0.543,0.007268259730449075,0.9787783440907089,0.014810365782086308,0.06435786398078654
0.77,0.0186,-0.457,0.0072530919269418745,0.9778636943814636,0.014725521316498928,0.06421036007320134
0.771,0.0048,-0.457,0.007248346832403161,0.9778636943814636,0.014698978580096283,0.06421036007320134
0.772,0.0067,-1.457,0.007267984164154968,0.9787783440907089,0.014808824341036765,0.06435786398078654
0.773,0.0019,-1.457,0.007261177677823046,0.9796921398748362,0.014770750753448053,0.06450523017740936
0.774,-0.0057,-0.457,0.007263141611173269,0.9796921398748362,0.0147817364492655,0.06450523017740936
0.775,-0.0068,0.543,0.007253863405269563,0.9916531515987366,0.014729836751254784,0.06643416094742345
0.776,-0.0079,-0.457,0.007249383130861121,1.0025794807132713,0.01470477534485612,0.06819623032072009
0.777,-0.0112,0.543,0.007219513643848777,1.0034716025971415,0.014537693759066293,0.06834010120657179
0.778,-0.0177,-0.457,0.007218293248246837,1.00257948071327,0.014530867206190486,0.06819623032071986
0.779,-0.0152,1.543,0.007197559875092268,0.9934562180684521,0.014414890495107168,0.06672493822229772
0.78,-0.0076,-0.457,0.007170310657020775,0.9934562180684521,0.014262465963509548,0.06672493822229772
0.781,-0.0101,-2.457,0.007179348450962188,1.0043629320571574,0.01431302086400546,0.06848384429965891
0.782,0.0019,-0.457,0.007142495540121888,0.9934562180684485,0.014106875951586186,0.06672493822229715
0.783,0.0033,0.543,0.007072884054711976,0.9925550942629218,0.013717488702763785,0.06657961561278916
0.784,0.0077,0.543,0.006863311043619757,0.9842483930850222,0.012545195686229383,0.06524000890817024
0.785,0.0088,0.543,0.00684820780052368,0.9842483930850213,0.01246071235358899,0.06524000890817008
0.786,0.0099,-1.457,0.006823877839426474,0.9758709870846749,0.012324617331915342,0.06388899976446369
0.787,-0.0003,-0.457,0.006928078666871959,0.9786179589852047,0.012907487720114786,0.06433199896433138
0.788,0.0087,0.543,0.007014758969521983,0.9795319043910481,0.013392353175538324,0.0644793892901783
0.789,0.0026,-0.457,0.007135327976211295,1.0079203676763164,0.014066782596653884,0.0690575455204702
0.79,0.008,0.543,0.007302603317045776,0.9988458888378859,0.015002474234029775,0.067594120698445
0.791,0.0014,0.543,0.007308844827100099,0.9988458888378846,0.015037387501779177,0.0675941206984448
0.792,0.0039,1.543,0.007308844827100099,0.9988458888378845,0.015037387501779177,0.06759412069844478
0.793,-0.0052,-1.457,0.007298974872016805,0.999741342408091,0.01498217772377698,0.06773852887933794
0.794,-0.0114,-0.457,0.007155201501527662,1.0114652914772226,0.014177949558567911,0.06962922898293683
0.795,-0.006,1.543,0.0071279888498902945,1.0114652914772226,0.014025729569411807,0.06962922898293683
0.796,-0.0013,0.543,0.007099804984857302,1.0006359946511607,0.013868076883195515,0.06788280783165022
0.797,0.0013,1.543,0.006920206623882393,1.0239291782529811,0.012863453705551399,0.07163925750482948
0.798,0.0053,0.543,0.006960858945397302,1.0239291782529811,0.013090851462397433,0.07163925750482948
0.799,0.0002,-1.457,0.006903665114326378,1.034514670823669,0.012770925111175665,0.07334636078394047
0.8,0.001,0.543,0.006822349356271739,1.0077646205162,0.012316067423132486,0.06903242845709584
0.801,0.0075,0.543,0.006796930421634305,1.0396915199129584,0.012173880986969216,0.07418122189189308
0.802,-0.0008,1.543,0.006795378437993434,1.0509699047651597,0.01216519962301645,0.07600006665851101
0.803,0.0024,-0.457,0.006823574255186646,1.0509699047651597,0.01232291916628597,0.07600006665851101
0.804,0.0049,0.543,0.006861607549076069,1.0396915199129586,0.012535666812511998,0.07418122189189312
0.805,0.0024,1.543,0.0068293775550639525,1.0396915199129586,0.012355381208433313,0.07418122189189312
0.806,0.0132,0.543,0.006799419903709714,1.040551824106086,0.012187806455886133,0.07431996159619253
0.807,-0.0005,0.543,0.006795871761192253,1.0326312908263406,0.012167959135502601,0.0730426314914412
0.808,-0.0024,-0.457,0.0067722641898199645,1.0595980835441818,0.012035904960621785,0.07739151747556706
0.809,-0.0009,0.543,0.006784253909528108,1.060442238277073,0.012102972111161873,0.0775276527855654
0.81,-0.0024,-0.456999999999778,0.006785302988212158,1.061285721563083,0.012108840364944638,0.07766367981253723
0.811,-0.0035,0.543,0.0069215580338566835,1.0689939656754397,0.012871013116312734,0.07890677442646477
0.812,-0.0097,0.543,0.0071722224417692425,1.0689939656754397,0.014273159954582471,0.07890677442646477
0.8130000000000001,-0.004200000000000277,0.543,0.0070879314510453794,1.0689939656754397,0.013801659644178144,0.07890677442646477
0.8140000000000001,-0.0066999999999984685,1.5429999999997779,0.007125095820484029,1.0681565693188042,0.014009546769193791,0.07877172902760571
0.8150000000000001,0.007099999999998469,0.543,0.007108465179891258,1.060442238277073,0.013916519600639055,0.0775276527855654
0.8160000000000001,-0.00669999999999859,0.543,0.0071207529562986715,1.0604422382770733,0.013985253997287145,0.07752765278556545
0.8170000000000001,0.005999999999999478,0.543,0.0072177459443974355,1.060442238277073,0.014527805740989257,0.0775276527855654
0.8180000000000001,0.0012999999999998334,1.5429999999995558,0.007186781450944816,1.0379687723798565,0.014354598994348306,0.07390339750694361
0.8190000000000001,-0.00020000000000072165,-0.457,0.007187261137918691,1.0388305032618805,0.014357282229592507,0.07404236729078606
0.8200000000000001,-0.006699999999999878,0.543,0.007204245156816452,1.0388305032618805,0.014452286097899636,0.07404236729078606
0.8210000000000001,-0.005599999999999634,0.543,0.006960319022931995,1.0388305032618805,0.013087831286601653,0.07404236729078606
0.8220000000000001,-0.002300000000000089,0.543,0.0069466380180068805,1.0475586725504906,0.013011303557915122,0.07544994339683153
0.8230000000000001,-0.0030999999999993116,0.543,0.0069145341312859725,1.050118135568805,0.012831723362877646,0.0758627033777347
0.8240000000000001,0.0030999999999997557,1.543,0.006924663760467371,1.0422703021739008,0.012888385685414066,0.07459709745218192
0.8250000000000001,0.0008999999999994338,1.543,0.0069014024500831436,1.043128479558132,0.012758268397998325,0.07473549416984969
0.8260000000000001,-0.004199999999999755,0.542999999999778,0.006968472122956619,1.0422703021739008,0.0131334374558892,0.07459709745218192
0.8270000000000001,-0.0020000000000005994,-0.457,0.006959853738144067,1.0535210804425537,0.013085228613171782,0.07641149015490334
0.8280000000000001,-0.007399999999999445,-0.45699999999955593,0.0068927346757950165,1.0535210804425537,0.01270978328431927,0.07641149015490334
0.8290000000000001,-0.002400000000000233,1.543,0.006677412798444697,1.0535210804425537,0.011505332712132842,0.07641149015490334
0.8300000000000001,-0.004499999999998989,1.5429999999997779,0.006589546154741168,1.0422703021739008,0.01101383119548651,0.07459709745218192
0.8310000000000001,0.0045999999999996,0.543,0.006552892137834651,1.0509699047651597,0.010808798840301542,0.07600006665851101
0.8320000000000001,0.0010000000000003997,-0.456999999999778,0.0064996136172648334,1.0237758665182823,0.010510773644834945,0.07161453319811605
0.833,0.0046,0.543,0.00650424669920694,1.0237758665182823,0.010536689813989822,0.07161453319811605
0.834,-0.0029,-0.456999999999778,0.0064966559368260296,1.0237758665182823,0.010494229204759002,0.07161453319811605
0.835,0.0036,0.543,0.006510605487387999,1.0237758665182823,0.010572259102895047,0.07161453319811605
0.836,0.012,1.5429999999997779,0.006479693102657585,1.0229014531193483,0.010399343837923533,0.0714735181276646
0.837,0.011,0.543,0.006403727705287328,1.014843173567643,0.009974414576415591,0.07017397393027869
0.838,0.0135,-2.4569999999995558,0.006423913195009861,1.0157245241739667,0.01008732658027395,0.07031610775164358
0.839,0.0161,-0.457,0.006364885885442272,1.0422703021739008,0.009757144261328073,0.07459709745218192
0.84,0.0038,0.542999999999778,0.006408432687269778,1.0422703021739008,0.010000732934357773,0.07459709745218192
0.841,-0.0016,-0.457,0.006394565584569927,1.0526713755323929,0.009923164226584388,0.07627445977783531
0.842,-0.0002,0.5430000000002221,0.006401029585404098,1.0526713755323929,0.0099593220457486,0.07627445977783531
0.843,-0.0045,1.543,0.006389160986666911,1.0526713755323929,0.009892932412163904,0.07627445977783531
0.844,-0.0034,0.543,0.006368139088468404,1.043985951503585,0.009775341772396062,0.0748737771226791
0.845,-0.0096,0.543,0.006272390401824381,1.043985951503585,0.009239750304247825,0.0748737771226791
0.846,-0.0085,2.542999999999334,0.0062733552674710535,1.0439859515035852,0.009245147493769477,0.07487377712267915
0.847,-0.0077,-0.457,0.0062773794620515876,1.0431284795581321,0.009267657716719224,0.07473549416984973
0.848,-0.0033,1.5429999999997779,0.0063027589002926454,1.0405518241060863,0.009409623221048722,0.07431996159619256
0.849,-0.004,0.543,0.006280849249560927,1.070666793542078,0.009287066741024684,0.07917654835691312
0.85,-0.0004,2.543,0.0062826150287001855,1.062970680186827,0.009296944017411116,0.07793541004828693
0.851,0.0105,1.543,0.006292724741495909,1.0629706801868268,0.009353494933236724,0.0779354100482869
0.852,0.0062,1.543,0.006293924031415264,1.0621285350018896,0.009360203426806255,0.07779959881445969
0.853,0.0073,-0.457,0.006304294054409606,1.0816222385550538,0.009418210445335085,0.08094331319859453
0.854,0.0037,0.543,0.00633630060272582,1.0816222385550538,0.00959724615646469,0.08094331319859453
0.855,0.0026,0.543,0.006324934354619908,1.091648436543758,0.009533666532307385,0.08256022005004592
0.856,0.0019,0.543,0.006320588453735056,1.0807946265897423,0.009509356773950088,0.08080984571086261
0.857,0.008,-2.457,0.006181469743963008,1.0799663803997208,0.008731165483549226,0.08067627594285652
0.858,-0.0043,0.543,0.00618852927845083,1.104969889444467,0.008770654551998103,0.08470854671292555
0.859,0.0012,0.543,0.006207418416740497,1.104969889444467,0.00887631512723117,0.08470854671292555
0.86,-0.0137,-1.457,0.0062674739890268855,1.104969889444467,0.009212249261251557,0.08470854671292555
0.861,-0.0195,0.543,0.006333054344761496,1.1057794077710548,0.009579087494136877,0.08483909627220114
0.862,-0.0068,-0.457,0.006343914933054638,1.104969889444468,0.009639838598227772,0.0847085467129257
0.863,-0.0082,-0.457,0.0062960752279903635,1.1041597776170502,0.009372236620913832,0.08457790144084257
0.864,-0.0006,0.543,0.006282546829927744,1.1041597776170502,0.009296562532484917,0.08457790144084257
0.865,0.0085,-0.457,0.006248255195698337,1.093430167118216,0.00910474468760509,0.08284755652360523
0.866,0.0121,0.543,0.006209631185930172,1.093430167118216,0.00888869274138453,0.08284755652360523
0.867,-0.0024,-1.457,0.0061743285191701025,1.0926114992496574,0.008691219462300616,0.08271553143421173
0.868,0.0035,0.543,0.006155652010862382,1.1001002700433324,0.008586748279927076,0.08392323198220451
0.869,0.0089,0.543,0.0061884888147598505,1.0901518068956457,0.008770428209387901,0.08231886128824566
0.87,0.0006,-0.457,0.006188455695275792,1.1009133690808794,0.0087702429482244,0.08405435899627299
0.871,0.002,-1.457,0.006157120078708645,1.1009133690808794,0.008594960242311942,0.08405435899627299
0.872,0.0006,1.543,0.00613990971195145,1.1107654515209764,0.008498690247161766,0.08564318654749467
0.873,0.0042,0.543,0.006136401846656164,1.11813264157229,0.008479068226333916,0.086831279988631
0.874,0.0006,0.543,0.006242970748963628,1.1181326415722899,0.009075184965334259,0.08683127998863095
0.875,-0.0118,-0.457,0.006280196300758023,1.1075384056574542,0.009283414327396563,0.08512276668619177
0.876,-0.0071,1.543,0.006338137244681871,1.0968418463311311,0.009607519819698956,0.08339775187188496
0.877,-0.0057,0.543,0.006407556962830968,1.0960257267927163,0.009995834375909453,0.08326613774709378
0.878,-0.0046,-0.457,0.00645178067314746,1.0960257267927163,0.01024320948637371,0.08326613774709378
0.879,-0.0107,-0.457,0.0064098090079866095,1.0960257267927178,0.010008431688870315,0.08326613774709403
0.88,-0.0031,-1.457,0.006447937613630904,1.0852156972917109,0.010221712482489929,0.08152282380253979
0.881,-0.0057,-0.457,0.006496285675957716,1.07512951200158,0.010492158068652509,0.0798962429072698
0.882,-0.0031,-0.457,0.006524383404844284,1.07512951200158,0.010649328933271647,0.0798962429072698
0.883,-0.001,0.543,0.006545911748339322,1.086039940204746,0.010769752486883144,0.08165574796929256
0.884,0.0088,0.543,0.006626758511029164,1.0852156972917149,0.01122198674556358,0.08152282380254043
0.885,-0.0061,-0.457,0.0066240452484927475,1.0852156972917157,0.011206809511114883,0.08152282380254058
0.886,-0.0003,0.543,0.006831676660086642,1.0843908278737697,0.012368241761174962,0.08138979860047173
0.887,0.0051,0.543,0.006734079926959408,1.0734636386173475,0.011822312836045942,0.07962759051364554
0.888,0.0004,-2.457,0.006645592419750724,1.0734636386173475,0.011327338381985005,0.07962759051364554
0.889,0.0079,-0.457,0.006537528622734393,1.0477085041405234,0.010722859618606967,0.07547410646689666
0.89,0.0068,1.543,0.006337571650583905,1.0477085041405234,0.009604356043944705,0.07547410646689666
0.891,0.0032,0.543,0.006326253867145369,1.0468540813202143,0.009541047517629712,0.07533631524097527
0.892,-0.0001,1.543,0.006324733063102835,1.0580561193622706,0.009532540563660362,0.07714284769533394
0.893,0.0005,-0.457,0.006417980907838802,1.0572100593772078,0.010054143019153814,0.07700640512875705
0.894,0.003,-0.457,0.0064767771121768385,1.0459989605660172,0.01038303259985407,0.07519841146051558
0.895,-0.0061,1.543,0.006477858572000024,1.0451431401648303,0.010389081984704607,0.07506039484924878
0.896,0.0026,-0.457,0.006469236579750735,1.0451431401648303,0.010340852962991465,0.07506039484924878
0.897,0.0058,-1.457,0.006465362097188384,1.01427062428647,0.010319180187347038,0.07008163994120674
0.898,-0.0007,2.543,0.006430539383427904,1.0258285351040055,0.01012439163158103,0.07194556335568465
0.899,-0.0015,0.543,0.006422687735334839,1.015152471977511,0.010080471700384662,0.07022385392652669
0.9,-0.0037,0.543,0.006410482792367783,1.01427062428647,0.010012200650916445,0.07008163994120674
0.901,0.0076,-0.457,0.0064240844886151935,0.9815171792055952,0.010088284748963044,0.06479955097592115
0.902,-0.0037,2.543,0.006359836427557918,0.9703537143764255,0.009728899001195274,0.06299923915397657
0.903,0.0068,-0.457,0.006361816522603929,0.9703537143764255,0.009739975101034734,0.06299923915397657
0.904,0.0031,1.543,0.006452094760913597,0.9703537143764256,0.010244966405801942,0.06299923915397658
0.905,-0.0005,-0.457,0.006442263631444313,0.9694311161359224,0.010189973807463905,0.06285045340110323
0.906,0.0005,-0.457,0.006499603320242343,0.9685076390307691,0.01051071604616089,0.0627015259153142
0.907,0.003,-2.457,0.0065137934007976975,0.967583280544558,0.010590091402044777,0.06255245629079294
0.908,-0.0054,-0.457,0.006479484499965431,0.9476323373866796,0.010398176972600714,0.05933500370096433
0.909,-0.0087,0.543,0.006514522458983138,0.9476323373866796,0.010594169550347294,0.05933500370096433
0.91,-0.0094,0.543,0.006649881719534013,0.9476323373866796,0.011351331529554753,0.05933500370096433
0.911,-0.0051,-0.457,0.006629998287609935,0.9389282885311918,0.011240109152838138,0.05793131745362895
0.912,-0.0058,-0.457,0.006341611330120835,0.9379747805418458,0.00962695288542491,0.05777754694135459
0.913,-0.0008,0.543,0.006335456140505413,0.9504609266433286,0.009592522470153407,0.05979116518452672
0.914,0.0014,-0.457,0.0062871155425044045,0.9504609266433296,0.009322118637349086,0.05979116518452688
0.915,-0.0015,0.543,0.006293500479027034,0.9590603155863169,0.009357834192789571,0.06117797311669384
0.916,0.0011,-0.457,0.006239740435068594,0.9590603155863159,0.00905711548968648,0.06117797311669368
0.917,0.0036,-1.457,0.0061567957122581965,0.959060315586316,0.008593145826788315,0.06117797311669369
0.918,0.0065,0.543,0.006152923209041873,0.9495189998120677,0.008571484123053927,0.05963926234471171
0.919,-0.0,1.543,0.006167525017071448,0.9485761376571329,0.008653162567681104,0.059487208666936166
0.92,0.0025,0.543,0.006134394732116895,0.9485761376571316,0.008467840986979445,0.05948720866693595
0.921,0.0032,1.543,0.006135706797882986,0.9485761376571314,0.008475180317205247,0.05948720866693593
0.922,0.001,-1.457,0.006137558233121411,0.9398808291883032,0.008485536729938261,0.05808493196597995
0.923,0.0119,0.543,0.00613726737392185,0.9282167478580134,0.008483909744637709,0.05620388662455745
0.924,0.0075,-0.457,0.006180213794090077,0.9571924596387754,0.008724140049990389,0.060876747359681405
0.925,0.0086,-0.457,0.006383625839082262,0.9562571634857138,0.009861970339208263,0.060725913837370624
0.926,-0.0103,-0.457,0.006274530989750639,0.9571924596387754,0.009251724156530385,0.060876747359681405
0.927,-0.0078,-0.457,0.006317134862466946,0.9457419112621281,0.009490038346904215,0.059030138092246685
0.928,-0.0009,-0.457,0.006347206217212155,0.9457419112621281,0.009658249124531608,0.059030138092246685
0.929,-0.0074,-0.457,0.006672956241439724,0.9751145976625373,0.011480403974279194,0.06376701820770633
0.93,-0.0091,0.543,0.006715628341143227,0.9751145976625373,0.01171909980740469,0.06376701820770633
0.931,0.0076,0.543,0.006713504243040675,0.9751145976625373,0.011707218194600261,0.06376701820770633
0.932,0.0054,1.543,0.006750889410115076,0.9844078608498543,0.01191634040005451,0.06526572598675108
0.933,0.0113,-0.457,0.006750437235364513,0.9853164357578593,0.011913811060519924,0.06541225022210582
0.934,0.0022,-0.457,0.00676533259819032,0.9853164357578593,0.011997131568864176,0.06541225022210582
0.935,0.0171,-0.457,0.006728773939539322,0.9853164357578593,0.01179263262118445,0.06541225022210582
0.936,0.0034,-0.457,0.006727830162053107,0.9945143721952872,0.011787353392955176,0.06689558482826928
0.937,0.0016,0.543,0.00673491184364436,0.993614208046262,0.011826966346128297,0.06675041698083305
0.9380000000000001,-0.006299999999999156,0.543,0.006738880674609106,1.020735160664432,0.011849166880441037,0.07112416405381247
0.9390000000000001,0.001299999999999889,-0.457,0.006742678883460512,0.9936142080462621,0.01187041300220375,0.06675041698083306
0.9400000000000001,0.00029999999999987784,-0.457,0.0067029740799786795,0.9945143721952872,0.011648315397163652,0.06689558482826928
0.9410000000000001,-0.0008000000000011213,1.5429999999995558,0.006672374740093286,0.9834984465831152,0.011477151217810306,0.06511906638952841
0.9420000000000001,-0.010899999999999879,-0.457,0.0066865694602643595,0.9834984465831152,0.011556552526411475,0.06511906638952841
0.9430000000000001,-0.009799999999999311,-0.457,0.006686930603871196,0.9723577285957133,0.011558572663098225,0.06332242290969566
0.9440000000000001,-0.0036000000000005992,-0.457,0.0067061851007445585,0.9723577285957135,0.011666276952423888,0.06332242290969567
0.9450000000000001,-0.00899999999999991,0.543,0.006782860239645461,0.9732775526186764,0.012095176310250935,0.06347076126951402
0.9460000000000001,-0.008199999999998668,0.543,0.006765491409673545,0.9610878785460929,0.011998019916040943,0.06150495453528386
0.9470000000000001,0.0037999999999994783,1.5429999999997779,0.006788896111083744,0.962018478180027,0.01212893929289322,0.061655030658432565
0.9480000000000001,-0.0008999999999998334,0.543,0.0067655397865542645,0.953445770090248,0.011998290522829162,0.060272525499301184
0.9490000000000001,0.0006000000000003996,-0.457,0.006844609423008643,0.9185259442651739,0.012440584032629399,0.05464106822191018
0.9500000000000001,0.004200000000000122,-0.457,0.006984655289079622,0.9185259442651739,0.013223961576970159,0.05464106822191018
0.9510000000000001,0.005300000000000122,0.5430000000002221,0.007004113694639737,0.930311535110586,0.013332806474660633,0.05654170918350088
0.9520000000000001,0.006400000000000733,1.543,0.007081231942254464,0.9428991656073231,0.013764184459139432,0.05857169363190724
0.9530000000000001,0.012999999999998667,-0.457,0.00708647544427584,0.907573639044364,0.013793515148095075,0.05287480972884375
0.9540000000000001,0.0010000000000008882,-0.457,0.007158482132119991,0.9175512346548522,0.014196300491797209,0.05448387856249191
0.9550000000000001,0.008999999999999522,-0.457,0.0071529543335623735,0.9175512346548522,0.014165379527250622,0.05448387856249191
0.9560000000000001,0.00469999999999899,-0.457,0.007159503099534342,0.9274214932516165,0.014202011498971821,0.05607563734968973
0.9570000000000001,-0.0044000000000004,-1.456999999999556,0.007159579573776218,0.9283858401637994,0.014202439274567678,0.056231155835484777
0.9580000000000001,-0.0080000000000006,0.543,0.007155085541022437,0.8974851265396073,0.014177300907819608,0.05124785352787189
0.9590000000000001,-0.013399999999999922,0.543,0.007185144593437386,0.8974851265396073,0.01434544286964016,0.05124785352787189
0.96,-0.0127,0.543,0.007135059255188652,0.8974851265396073,0.01406527944614515,0.05124785352787189
0.961,-0.0025,-0.45699999999955593,0.007095786573153811,0.8964875405091972,0.01384559900804827,0.05108697462947994
0.962,-0.0062,1.543,0.007081493712383602,0.8974851265396073,0.0137656487282871,0.05124785352787189
0.963,-0.0025,-0.45700000000022206,0.007061419936447939,0.9105266808298296,0.013653361620218117,0.053351041447080416
0.964,0.0029,-1.457,0.007077243376796166,0.9224144830685238,0.013741873535569719,0.055268165855564995
0.965,0.0022,-0.456999999999778,0.0070761199109801096,0.9224144830685238,0.013735589180902036,0.055268165855564995
0.966,0.0066,0.543,0.007076109398837979,0.9224144830685238,0.013735530378908666,0.055268165855564995
0.967,-0.001,-0.457,0.007078381376599141,0.9322332521976386,0.013748239189309636,0.0568516210292581
0.968,0.0055,-0.457,0.007082897940851605,0.9233840591249978,0.013773503590981869,0.05542452763602078
0.969,0.0062,0.542999999999778,0.007055584409168176,0.9224144830685237,0.013620719306963134,0.055268165855564974
0.97,-0.0014,-0.457,0.007139245816121125,0.9224144830685237,0.014088697901216515,0.055268165855564974
0.971,-0.0025,0.543,0.007138259290613335,0.9224144830685237,0.01408317955246832,0.055268165855564974
0.972,0.0,0.543,0.00713194636388834,0.9105266808298296,0.014047866799766837,0.053351041447080416
0.973,0.0084,-2.4569999999995558,0.007132617969676163,0.9004712536081159,0.014051623575368934,0.05172942084998298
0.974,0.016,-0.457,0.007033554135173278,0.8994769794180316,0.013497488094022294,0.05156907604610222
0.975,0.0011,0.543,0.007023644213195945,0.8994769794180316,0.013442054752353522,0.05156907604610222
0.976,-0.0102,0.543,0.0070450912220568285,0.8994769794180316,0.013562023342689335,0.05156907604610222
0.977,-0.0084,0.543,0.0070541151168060316,0.9004712536081159,0.013612500494977694,0.05172942084998298
0.978,-0.0211,-2.457,0.007057496366146848,0.9004712536081159,0.013631414261443818,0.05172942084998298
0.979,-0.0131,-0.457,0.007098830338213011,0.9014644311597421,0.013862624981499126,0.05188958880095915
0.98,-0.0026,-1.457,0.007066510735460092,0.9144492357639808,0.013681838131098141,0.0539836248007474
0.981,-0.0091,-1.457,0.007008215041902816,0.9134701761512212,0.01335574826821426,0.05382573362428809
0.982,-0.003,0.543,0.0070286765305008535,0.9134701761512212,0.013470204132861938,0.05382573362428809
0.983,0.0046,0.543,0.007031043940510465,0.9004712536081159,0.01348344676466399,0.05172942084998298
0.984,0.0053,0.543,0.006954276555953485,0.9105266808298295,0.013054031410345496,0.0533510414470804
0.985,0.006,-1.457,0.007076857492331908,0.9115089020819115,0.01373971500542177,0.053509442495406186
0.986,-0.0031,-0.457,0.0069234020791730435,0.9115089020819115,0.01288132819188127,0.053509442495406186
0.987,0.0056,-2.457,0.006915068323247758,0.9214438867901757,0.012834711483833805,0.05511163954576917
0.988,0.0023,0.543,0.006917378856410785,0.9204722670626208,0.012847635962407507,0.05495494818616716
0.989,0.003,0.543,0.006903932916188096,0.9204722670626208,0.012772423120154352,0.05495494818616716
0.99,0.0023,0.543,0.006906875933599451,0.9214438867901757,0.0127888855393413,0.05511163954576917
0.991,-0.0054,0.543,0.006920168842001426,0.9214438867901757,0.012863242364238995,0.05511163954576917
0.992,-0.0007,0.543,0.00693634883509583,0.9085590527642268,0.012953748736282284,0.053033725620685854
0.993,-0.0051,-0.457,0.006858575889827306,0.9214438867901834,0.012518708555590868,0.055111639545770405
0.994,-0.0106,0.543,0.0068317244599989824,0.9214438867901834,0.012368509140562872,0.055111639545770405
0.995,-0.0037,-0.457,0.006854094241225042,0.9312728893463047,0.012493639462334947,0.05669674504576459
0.996,-0.0062,0.543,0.0069142748216935845,0.9303115351105935,0.012830272857286813,0.0565417091835021
0.997,0.0014,0.543,0.006865566947256912,0.9303115351105935,0.01255781458246048,0.0565417091835021
0.998,0.0104,-0.457,0.006855782111436753,0.9185259442651854,0.012503080937893719,0.05464106822191204
0.999,0.014,0.543,0.006855306234184962,0.9185259442651854,0.01250041901317309,0.05464106822191204
1.0,0.0064,1.543,0.006855400688905572,0.9312728893463085,0.012500947366555869,0.056696745045765204
1.0010000000000001,0.012899999999998158,1.543,0.006844898656784024,0.9438476988235935,0.012442201925760095,0.058724661871507614
1.002,0.0046,-0.457,0.0068260218893731375,0.9428991656073329,0.012336610549775192,0.05857169363190882
1.0030000000000001,0.01219999999999758,-1.457,0.006838312315630425,0.9312728893463071,0.012405359768944968,0.05669674504576499
1.004,0.0013,1.543,0.006725545452737715,0.9322332521976486,0.011774573365788096,0.05685162102925972
1.0050000000000001,-0.0030999999999991785,-1.457,0.006731045046327142,0.9620184781800366,0.011805336559603289,0.061655030658434126
1.006,0.0006,0.543,0.006680331967958476,0.962948178476609,0.0115216617328271,0.0618049617470699
1.0070000000000001,0.0015999999999977575,-0.457,0.006716560491218854,0.962948178476609,0.011724313995139667,0.0618049617470699
1.008,-0.0085,-0.457,0.006707952577620963,0.9534457700902644,0.011676163725478758,0.060272525499303835
1.0090000000000001,-0.0020000000000008214,0.543,0.006661513464434414,0.9534457700902643,0.011416396268787082,0.060272525499303814
1.01,-0.0057,-0.457,0.006525364530255595,0.9534457700902643,0.01065481707538513,0.060272525499303814
1.0110000000000001,-0.0023999999999989564,0.543,0.006401850356855435,0.9534457700902643,0.009963913212500262,0.060272525499303814
1.012,0.0023,1.543,0.006399785796221688,0.9543838214128562,0.009952364635703379,0.0604238033428314
1.0130000000000001,0.004799999999998801,1.543,0.00640378622953278,0.9428991656073402,0.009974741944734074,0.058571693631910005
1.014,-0.0006,-0.457,0.006399092036640018,0.9428991656073392,0.009948483937952711,0.05857169363190984
1.0150000000000001,0.0014999999999992008,0.543,0.006450084978503957,0.9331926267253725,0.010233724243124142,0.057006337627588645
1.016,-0.0021,-1.457,0.00656072407048967,0.9341510159744986,0.010852608488832126,0.05716089533181662
1.0170000000000001,0.004399999999999445,0.543,0.0065308363541334786,0.9341510159744985,0.010685424933173298,0.057160895331816605
1.018,0.0019,-0.457,0.006537890730665903,0.9351084229744556,0.01072488514945719,0.05731529463049416
1.0190000000000001,0.010899999999998067,1.543,0.0065288953670759285,0.9351084229744546,0.010674567592521986,0.057315294630494
1.02,0.0022,0.543,0.006520967669395342,0.9351084229744561,0.010630222261127868,0.05731529463049423
1.0210000000000001,-0.001099999999999445,0.543,0.006597192513437553,0.9694311161358998,0.011056602795011533,0.0628504534010996
1.022,0.0014,-0.457,0.0065951891030740966,0.9685076390307465,0.011045396275784212,0.06270152591531056
1.0230000000000001,-0.0011000000000011992,-0.457,0.0066126513092481165,0.9685076390307439,0.01114307499044504,0.06270152591531013
1.024,-0.0065,-0.457,0.006567932894044232,0.9485761376571269,0.010892932638713826,0.0594872086669352
1.025,-0.0102,-0.457,0.006370909381862058,0.9485761376571269,0.009790838021565775,0.0594872086669352
1.026,-0.0109,0.543,0.00641393552940574,0.9476323373866719,0.010031514299636914,0.05933500370096308
1.027,-0.0081,-0.457,0.006343086523124243,0.9476323373866704,0.009635204703953085,0.05933500370096285
1.028,-0.0077,0.543,0.006287471696087589,0.946687596194932,0.009324110861234235,0.05918264699431382
1.029,-0.003,1.543,0.005952104380793099,0.9173801453073259,0.007448159565575165,0.05445628729224797
1.03,0.0009,-0.457,0.005883346669673754,0.9272522250890017,0.007063548092189266,0.05604833977864907
1.031,0.0093,0.543,0.005877891573285348,0.9173801453073229,0.007033033803315318,0.05445628729224748
1.032,0.0057,-0.457,0.005814740479832166,0.9427326764732552,0.006679784186602505,0.058544844229783934
1.033,-0.0045,-1.457,0.005807402462762113,0.9427326764732552,0.0066387373642010855,0.058544844229783934
1.034,0.0133,0.543,0.005791965315566472,0.9427326764732552,0.006552386265086035,0.058544844229783934
1.035,-0.0088,-0.457,0.005786826256035761,0.9427326764732552,0.006523639798315294,0.058544844229783934
1.036,-0.0001,-1.457,0.005759875411518648,0.9339829674215684,0.006372884285224855,0.05713379444502829
1.037,0.0024,-0.457,0.005754322007397171,0.9465217734298365,0.0063418200902902455,0.05915590505631182
1.038,0.0046,0.543,0.005782672063149559,0.9172090240460565,0.00650040240107387,0.05442869087533228
1.039,0.0024,0.543,0.005794853617088155,0.9172090240460565,0.0065685426188353485,0.05442869087533228
1.04,0.0043,-0.457,0.005787522088664804,0.9172090240460565,0.006527532092115206,0.05442869087533228
1.041,-0.0048,-0.457,0.005823949159497007,0.951236919980845,0.006731294974209815,0.059916308229330396
1.042,-0.0034,1.543,0.00581263403168401,0.9598293566001581,0.00666800130272397,0.061301994972807985
1.043,-0.0077,-0.457,0.0058372636962601265,0.9598293566001581,0.006805772782131978,0.061301994972807985
1.044,-0.0066,-1.457,0.005885732394528684,0.9607611752475529,0.007076893172131723,0.06145226768405708
1.045,-0.0128,-0.457,0.005814601271934133,0.9607611752475529,0.006679005496417831,0.06145226768405708
1.046,-0.0004,0.543,0.005806609045514161,0.9616920910221965,0.006634299209239601,0.061602394790647365
1.047,0.001,0.543,0.005773524167517253,0.9616920910221965,0.00644923162240419,0.061602394790647365
1.048,-0.0004,0.543,0.005771911781727538,0.9616920910221964,0.00644021238566473,0.061602394790647344
1.049,0.0007,1.543,0.005690175121258242,0.9626221065434921,0.005983000286818491,0.06175237671500524
1.05,0.0018,1.543,0.005547836482020908,0.9626221065434921,0.005186797608375747,0.06175237671500524
1.051,-0.0015,-0.457,0.005516039157907607,0.9598293566001515,0.005008932239126929,0.06130199497280691
1.052,0.0076,0.543,0.00537656388982002,0.9484106450899185,0.004228746460880925,0.059460519979350424
1.053,0.004,0.543,0.005430260216966038,0.9607611752475428,0.004529108749893057,0.06145226768405545
1.054,0.0029,-2.457,0.0052924362474084516,0.9521771473870873,0.003758159875410777,0.06006793700594025
1.055,0.0036,0.543,0.005302393076215917,0.9397138052955483,0.0038138556008144846,0.05805799632428847
1.056,-0.0084,-0.457,0.005381406654551685,0.9397138052955483,0.004255835537122481,0.05805799632428847
1.057,0.0028,-0.457,0.005398208415608814,0.9387610951629034,0.0043498199058639555,0.057904354480924104
1.058,0.0014,0.543,0.005396174912698056,0.9387610951629034,0.004338445057313755,0.057904354480924104
1.059,0.0003,0.543,0.0053372212754373375,0.9387610951629034,0.004008674840720209,0.057904354480924104
1.06,0.0013,0.543,0.005399245162011595,0.9387610951629034,0.004355619176302277,0.057904354480924104
1.061,-0.0019,0.543,0.005404754676629329,0.9387610951629034,0.004386437865584851,0.057904354480924104
1.062,-0.0066,0.542999999999778,0.005400537810944395,0.9378074171810906,0.004362849894174085,0.057750556554271484
1.063,-0.0005,-0.457,0.0054187886704538096,0.9251505107693002,0.00446494011579724,0.055709400104093726
1.064,0.0086,-0.456999999999778,0.005423492556910788,0.9132983222940417,0.004491252345675255,0.053798019062952396
1.065,0.0122,0.543,0.005425510336980877,0.9232140507127943,0.0045025392450366766,0.055397110686265155
1.066,0.0021,0.543,0.005479210709506423,0.9222442959226911,0.00480292416277445,0.05524072008175962
1.067,0.0032,0.543,0.005480422141021707,0.9132983222940417,0.004809700573047774,0.053798019062952396
1.068,0.0043,-0.456999999999778,0.005465387519382532,0.9132983222940417,0.004725601089712652,0.053798019062952396
1.069,0.0053,0.543,0.005484049411664691,0.9132983222940418,0.004829990514112651,0.05379801906295241
1.07,0.0101,2.542999999999334,0.005381960574850427,0.910354271308898,0.004258934012897333,0.05332323727485444
1.071,-0.0019,-0.457,0.0054035031137207815,0.9093708029284694,0.004379436971482135,0.05316463510439138
1.072,-0.0048,0.542999999999556,0.005409616668366666,0.9093708029284694,0.004413634492337613,0.05316463510439138
1.073,-0.0034,-1.457,0.005419109554114799,0.9093708029284693,0.004466735049567279,0.053164635104391365
1.074,0.001,-0.457,0.005419541432935218,0.9093708029284693,0.004469150859325069,0.053164635104391365
1.075,0.0075,-0.457,0.005393115100855159,0.9093708029284693,0.0043213293226271,0.053164635104391365
1.076,-0.0037,0.542999999999778,0.00529845263912931,0.9103542713088979,0.003791813893942743,0.05332323727485442
1.077,0.0006,-0.457,0.005195577300403996,0.9093708029284693,0.003216357920233282,0.053164635104391365
1.078,-0.0059,0.542999999999556,0.005147593628593573,0.9222442959226911,0.0029479506330645864,0.05524072008175962
1.079,-0.0095,-1.457,0.0051362321299831554,0.9212735203458062,0.002884397576261405,0.05508416485681242
1.08,0.0006,-0.4569999999993339,0.0051296352051293445,0.9093708029284694,0.0028474962171769484,0.05316463510439138
1.081,-0.003,2.543,0.005135423354949713,0.910354271308898,0.0028798735141280663,0.05332323727485444
1.082,0.0007,0.543,0.005051046320851038,0.9446291248069403,0.0024078919010651306,0.058850681029297934
1.083,0.0018,0.543,0.005020768967495403,0.9455759226551359,0.0022385288246223535,0.05900336940922138
1.084,-0.0047,0.543,0.005009515854785767,0.9368527683944168,0.0021755820483412417,0.0575966020676713
1.085,-0.0022,0.543,0.004902263976037183,0.9368527683944168,0.00157564492947323,0.0575966020676713
1.086,0.0018,1.5429999999997779,0.005007912362644105,0.9378074171810906,0.0021666125601903473,0.057750556554271484
1.087,-0.008,0.543,0.00501516175010279,0.9280476247431776,0.0022071636132466486,0.05617661244511027
1.088,-0.0044,0.543,0.005010858897214375,0.9406655505197504,0.002183094653384041,0.058211482558610035
1.089,-0.0007,0.543,0.004995009604092973,0.9406655505197504,0.0020944381248244035,0.058211482558610035
1.09,0.0069,2.542999999999112,0.00500080707035365,0.9406655505197504,0.0021268675353461413,0.058211482558610035
1.091,-0.004,-1.457,0.00498234630211863,0.9531164472811264,0.002023603142813023,0.06021941620433136
1.092,-0.0054,0.543,0.004999034812777178,0.954054822402456,0.002116954020387461,0.0603707462662969
1.093,-0.0091,0.543,0.005377329933501017,0.9425661579315249,0.0042330314957378145,0.05851799008513999
1.094,-0.0054,0.543,0.0053590678095739065,0.9435150259266578,0.004130878264101432,0.058671012313923215
1.095,-0.0021,0.543,0.005445471577102297,0.9338148886267382,0.004614196859124255,0.057106688681183335
1.096,0.0004,0.543,0.005305771331982082,0.9347726398930132,0.0038327526220583124,0.05726114349906852
1.097,-0.0003,0.543,0.005310188197176297,0.9435150259266578,0.0038574593349845953,0.058671012313923215
1.098,0.0038,0.543,0.005311090175604031,0.95499227547712,0.003862504750930029,0.060521927631461046
1.099,0.006,0.543,0.005316806846422005,0.9549922754771201,0.003894482214262783,0.06052192763146106
1.1,0.0024,-1.456999999999556,0.005318457987997491,0.9425661579315248,0.0039037182400666966,0.05851799008513998
1.101,0.0038,0.543,0.005331189483868086,0.9598293566001479,0.003974934679728235,0.06130199497280634
1.102,0.0089,1.5429999999997779,0.005329157701251417,0.9598293566001479,0.003963569454023724,0.06130199497280634
1.103,0.001,0.543,0.0053002679952059125,0.9588966324478715,0.0038019684898997017,0.0611515762324195
1.104,0.0035,-0.457,0.0053366911297849495,0.9579630001457691,0.004005709353691122,0.06100101103634952
1.105,0.0097,-1.457,0.00538999205438181,0.9280476247431776,0.004303859871041048,0.05617661244511027
1.106,0.0043,-0.457,0.005393560007199146,0.9616920910221863,0.004323818004720992,0.06160239479064571
1.107,0.0006,-0.457,0.005328472353840562,0.9616920910221863,0.003959735811612143,0.06160239479064571
1.108,-0.003,-0.457,0.005322470945883533,0.9626221065434819,0.003926165608079099,0.061752376715003596
1.109,-0.0084,0.543,0.005377541557117769,0.9626221065434819,0.00423421525927091,0.061752376715003596
1.11,-0.0062,-0.457,0.005633853138743547,0.9616920910221862,0.005667950813438089,0.0616023947906457
1.111,-0.0011,-0.457,0.005993912099181782,0.9729549424337237,0.007682020290526641,0.06341873450732702
1.112,-0.005,-0.457,0.006175883085259286,0.9813572417132507,0.008699915271749518,0.06477375814523226
1.113,-0.0053,0.543,0.006199074616743012,0.9923969356737392,0.008829642235443079,0.06655410966260214
1.114,0.0016,-1.457,0.006201194804694266,0.9923969356737392,0.008841501975950895,0.06655410966260214
1.115,0.0078,-0.457,0.006197106734823256,0.9923969356737401,0.00881863445242812,0.06655410966260228
1.116,0.0024,0.543,0.006656830178963709,0.9923969356737402,0.011390199275084835,0.0665541096626023
1.117,0.0017,0.543,0.007097116829791459,1.000635994651131,0.013853040092939816,0.06788280783164542
1.118,-0.0049,-0.457,0.00709466680329375,0.9997413424080613,0.01383933532752837,0.06773852887933315
1.119,0.0028,-1.457,0.007171188877667668,1.0088077664492323,0.014267378485050197,0.06920065471874394
1.12,0.0053,-0.457,0.0071591933274181415,1.0088077664492323,0.014200278720086572,0.06920065471874394
1.121,0.0028,0.543,0.00710891533313807,0.9758709870846487,0.013919037632445048,0.06388899976445947
1.122,0.0035,-0.457,0.0071300189771868975,0.9878782655655188,0.014037085535717203,0.06582539189085442
1.123,0.0013,-0.457,0.0071543350122338315,0.9878782655655215,0.014173102658946793,0.06582539189085485
1.124,-0.0037,-0.457,0.0071610452432150735,0.9786179589851847,0.014210637820929942,0.06433199896432816
1.125,0.0017,0.543,0.007188917577909759,0.9786179589851847,0.014366547893256532,0.06433199896432816
1.1260000000000001,-0.0033000000000001552,-0.457,0.007193253758157185,0.9905919411097083,0.014390803277077185,0.06626302144743801
1.127,-0.004,1.543,0.007244990151319032,0.9896882093467199,0.01468020224161095,0.06611727825733778
1.1280000000000001,-0.006899999999998135,-0.457,0.007292161794998752,0.9905919411097096,0.014944067269726862,0.06626302144743822
1.129,0.0015,0.543,0.007271274661441959,0.9896882093467224,0.014827230465806175,0.0661172782573382
1.1300000000000001,0.002599999999999267,0.543,0.007209758570537519,0.992396935673765,0.014483126597679582,0.06655410966260629
1.131,-0.0007,2.543,0.007230440903156425,0.9932982029613615,0.014598817802231278,0.06669945541120867
1.1320000000000001,-0.001399999999999023,0.543,0.007316703604687055,0.9598293566001788,0.015081347313377397,0.061301994972811316
1.133,0.003,0.543,0.007397083602339797,0.9588966324479024,0.015530970618526633,0.06115157623242448
1.1340000000000001,0.008400000000001132,0.543,0.007405696234779276,0.9588966324479024,0.015579147284072255,0.06115157623242448
