time_sec,bts_raw,diy_raw,bts_rms,diy_rms,bts_norm_rms,diy_norm_rms
0.0,0.001,1.371,0.004696259169238879,0.6072990837936794,0.018365721091937688,0.0
0.0009999999999998899,0.006,0.371,0.004704275095470333,0.6081677439681905,0.01844647995167192,0.0002714938203206553
0.0020000000000000018,0.0046,0.371,0.004717513723090975,0.6090351651834849,0.018579856487360824,0.0005426004123777686
0.0029999999999998916,-0.0005,0.371,0.004603892868952038,0.6099013527258247,0.017435149019085393,0.0008133214283565829
0.0040000000000000036,-0.0056,0.371,0.0045874973774662296,0.6136259344450485,0.017269967708910577,0.0019774140732365278
0.004999999999999893,0.0009,-1.629,0.0045909352835061526,0.6173280447139327,0.017304603927313908,0.0031344834193859725
0.006000000000000005,-0.0075,0.371,0.00458593168078429,0.6313861280365537,0.01725419362678056,0.007528241599669041
0.006999999999999895,-0.0042,-1.629,0.004566596175990414,0.6532280381182453,0.017059392268278538,0.014354781810880912
0.008000000000000007,-0.0017,0.371,0.004562268110998504,0.6567069339900257,0.017015787875784158,0.01544208701772886
0.008999999999999897,-0.001,0.371,0.004556332433180096,0.6575103229435232,0.016955987104354465,0.015693180762542478
0.010000000000000009,0.0044,0.371,0.004548085990552696,0.6583127314612807,0.016872905837857857,0.01594396807884417
0.010999999999999899,0.0008,1.371,0.004547274011373218,0.6617648976568494,0.01686472530939874,0.017022919107471945
0.01200000000000001,0.0044,1.371,0.004541415453780067,0.6651991484792721,0.016805701508873526,0.018096270808260564
0.0129999999999999,0.0004,0.371,0.0045171526298234555,0.665992293321976,0.01656125839149805,0.018344162826027445
0.014000000000000012,0.004,0.371,0.004517726610138377,0.6667844947139827,0.016567041128814304,0.018591759974705628
0.014999999999999902,0.0055,-0.629,0.004559841059137946,0.6675757560140253,0.016991335811841073,0.018839063304044223
0.016000000000000014,0.0051,0.371,0.0045575703225784825,0.6709802660171651,0.016968458593413154,0.01990311971435735
0.016999999999999904,0.0021,-0.629,0.004584631185392776,0.6743675887461036,0.017241091394814383,0.020961804359196787
0.018000000000000016,-0.0037,0.37100000000000344,0.004445343793050151,0.6751499628808033,0.015837798667792242,0.021206330065545915
0.018999999999999906,0.0017,1.371,0.0043927926367252216,0.6759314314371437,0.015308356237812818,0.02145057273954755
0.020000000000000018,-0.0005,0.371,0.004361959726563955,0.7147982429687962,0.01499772081091215,0.03359812992708592
0.020999999999999908,0.006,1.371,0.004275776944720214,0.7179788684341947,0.014129446454404955,0.03459221275020618
0.02200000000000002,0.0067,0.371,0.0042770285152326296,0.7211454658283684,0.014142055777961737,0.03558191119522291
0.02299999999999991,-0.0045,-0.629,0.00422473871277962,0.7576965164440341,0.013615246436171239,0.04700569308319224
0.02400000000000002,0.0001,0.371,0.004210003758711803,0.7606977970246744,0.013466794709646636,0.04794372288426006
0.02499999999999991,-0.0042,-0.629,0.004213991104700042,0.7721500283525585,0.013506966426061955,0.05152303977438098
0.026000000000000023,0.0023,-0.6289999999999966,0.004187558418171143,0.7728334192512466,0.013240662375581792,0.051736628944578186
0.026999999999999913,0.0059,0.371,0.004130226383710823,0.7735162063837379,0.012663053550903348,0.05195002941176336
0.028000000000000025,0.0026,-0.629,0.004140460487927245,0.7741983913474668,0.012766160111898933,0.052163241675203795
0.028999999999999915,0.0019,-0.629,0.004143793391321911,0.7771359446916438,0.012799738449571434,0.053081353962618316
0.030000000000000027,-0.0083,-0.629,0.004126283985717772,0.7949834612358888,0.012623334676584363,0.05865947368309479
0.030999999999999917,0.0095,-0.629,0.004133590657086527,0.7978444904900718,0.012696947934884822,0.05955366888745583
0.03200000000000003,-0.0025,0.371,0.004132900306287188,0.798505891419768,0.012689992788123054,0.05976038524263801
0.03299999999999992,-0.0004,-0.629,0.004111719928028144,0.7991667449655263,0.012476604697021585,0.05996693051669911
0.03400000000000003,0.0014,0.371,0.004160886852441112,0.8020128512845432,0.012971951664743171,0.06085646165932749
0.03499999999999992,0.0069,0.371,0.0041663722665076924,0.8048488932665132,0.013027216118581188,0.06174284726196905
0.03600000000000003,-0.0044,-0.6290000000000139,0.004081512752084446,0.8076749769301382,0.012172273417695183,0.06262612046004692
0.03699999999999992,0.0032,-2.629,0.004027265774787266,0.8104912064457378,0.011625745929286085,0.06350631381128488
0.038000000000000034,-0.0033,-0.629,0.004048307559447263,0.8132976841800521,0.01183773771748976,0.06438345930971025
0.038999999999999924,-0.0044,1.371,0.0040492540551336645,0.813946528169604,0.011847273472955826,0.06458625107878689
0.040000000000000036,0.0011,0.371,0.00406203604948597,0.846499957983439,0.011976049519443263,0.07476060381652133
0.040999999999999925,-0.0015,0.371,0.0041099151298076946,0.8778470293921237,0.012458421714528317,0.08455791745231407
0.04200000000000004,0.001,-0.629,0.004066100161160925,0.8784481969013838,0.012016994634857888,0.08474580826224275
0.04299999999999993,-0.0011,0.37099999999999306,0.0040870227089866125,0.9086938223548702,0.012227785135711962,0.09419887246767361
0.04400000000000004,0.0025,-0.629,0.004107634526393082,0.909274595714969,0.012435445089500579,0.09438038922520477
0.04499999999999993,-0.0069,-0.629,0.004049560090591498,0.9098549983592642,0.011850356719220726,0.09456179011803674
0.04600000000000004,-0.0033,1.371,0.004091783055952691,0.9483648268921665,0.012275744682970682,0.10659777470104681
0.04699999999999993,-0.0044,-0.629,0.004098645587943152,0.948921320507093,0.012344883325522638,0.10677170298961543
0.04800000000000004,-0.0018,1.371,0.00412193900955088,0.9513195046248623,0.012579559907371326,0.10752123909944332
0.04899999999999993,-0.0011,-0.629,0.004201971240053455,0.9518742708501,0.013385868684517226,0.10769462750413153
0.050000000000000044,0.0029,0.371,0.004200074595691718,0.952428713937755,0.013366760370449387,0.10786791491436941
0.050999999999999934,-0.0039,0.371,0.0041989413681277135,0.9455808027943619,0.013355343328519873,0.1057276469337607
0.052000000000000046,-0.0014,0.37099999999999306,0.004173730394936273,0.9542650338732829,0.013101347796507378,0.10844184420139816
0.052999999999999936,-0.0035,-0.629,0.004177958672242158,0.9560978269054007,0.01314394684794618,0.10901467117879098
0.05400000000000005,0.0049,-0.629,0.00421752706307752,0.9560978269054006,0.013542590502230759,0.10901467117879093
0.05499999999999994,0.0016,1.371,0.004182688725891673,0.957927113278083,0.013191601196075991,0.10958640217366424
0.05600000000000005,-0.0031,-1.629,0.004182244674883659,0.9437275850970858,0.01318712747064046,0.10514843636640335
0.05699999999999994,0.0013,-0.629,0.004114739607592342,0.9524287139377545,0.012507027367007059,0.10786791491436927
0.05800000000000005,0.0035,0.371,0.004093984295672639,0.9381459671357231,0.012297921734586647,0.10340393969398073
0.05899999999999994,-0.0015,0.37099999999999306,0.004176201015721351,0.9468983873219814,0.01312623880868457,0.10613944900261936
0.06000000000000005,0.0021,-0.629,0.004238658239344474,0.9468983873219814,0.013755482893064646,0.10613944900261936
0.06099999999999994,0.0007,-0.629,0.0042170680101435865,0.9468983873219814,0.013537965635380478,0.10613944900261936
0.062000000000000055,-0.0018,0.371,0.0042678715431928105,0.9400101889836477,0.014049801109043717,0.10398658953366417
0.06299999999999994,0.0008,0.371,0.004263918256125207,0.9330711413783932,0.0140099725294681,0.10181783747271278
0.06400000000000006,0.0077,0.371,0.004276591089691312,0.9349454821609812,0.014137648802783148,0.10240364991649609
0.06499999999999995,0.0012,-0.629,0.004435034638900368,0.9349454821609812,0.015733935993670567,0.10240364991649609
0.06600000000000006,-0.005,-0.629,0.004448109016192362,0.9610510680463724,0.01586565774002265,0.11056277295643796
0.06699999999999995,0.0026,0.371,0.004435626223961608,0.9610510680463724,0.0157398960952985,0.11056277295643796
0.06800000000000006,0.0001,0.371,0.004440829807684537,0.9592277392011873,0.015792321164574515,0.10999290394620191
0.06899999999999995,0.0045,2.371,0.004456156533211756,0.9592277392011873,0.015946734870651413,0.10999290394620191
0.07000000000000006,-0.001,-0.629,0.00445323382682655,0.9505888466593078,0.015917289186123895,0.10729287692947537
0.07099999999999995,0.0041,-0.6289999999999584,0.004454631087651378,0.9524287139377545,0.01593136631055172,0.10786791491436927
0.07200000000000006,0.0049,2.3709999999999583,0.004413858244866316,0.9455808027943616,0.015520588042842095,0.10572764693376063
0.07299999999999995,-0.0031,-0.629,0.004364158127229536,0.9474303955189961,0.015019869259621,0.10630572454061178
0.07400000000000007,0.0023,1.371,0.004341115913819862,0.9542650338732827,0.014787723550318408,0.10844184420139809
0.07499999999999996,-0.0002,0.371,0.0043420002120597824,0.9542650338732827,0.01479663267890304,0.10844184420139809
0.07600000000000007,0.0024,0.371,0.004531212771086802,0.9524287139377545,0.01670291151346349,0.10786791491436927
0.07699999999999996,0.0031,0.371,0.004541351283527781,0.9524287139377546,0.016805055006366657,0.1078679149143693
0.07800000000000007,-0.002,-0.629,0.004505436711652153,0.9524287139377546,0.016443222850135244,0.1078679149143693
0.07899999999999996,-0.0013,-1.629,0.0045415193817748365,0.9505888466593079,0.0168067485627148,0.1072928769294754
0.08000000000000007,-0.0067,-0.629,0.0045393838099042445,0.9487454114002455,0.01678523310159781,0.10671672379654479
0.08099999999999996,0.0016,0.371,0.004493161708003468,0.9468983873219813,0.016319554633976833,0.10613944900261932
0.08200000000000007,0.0027,0.371,0.004474965111835517,0.9468983873219814,0.01613622755297131,0.10613944900261936
0.08299999999999996,-0.0064,-0.629,0.00448669124133102,0.9555706442607563,0.01625436597139099,0.10884990383432075
0.08400000000000007,-0.0028,-0.629,0.004487098392535942,0.953736838143974,0.01625846793866208,0.10827676022421708
0.08499999999999996,0.0009,-0.629,0.00449996801680468,0.9555706442607563,0.016388126839098693,0.10884990383432075
0.08600000000000008,-0.0067,-0.629,0.004504162352646239,0.9574009379110556,0.016430383937046725,0.10942194964695172
0.08699999999999997,-0.0042,-0.6289999999999861,0.004497080800647237,0.9555706442607563,0.016359038711545024,0.10884990383432075
0.08800000000000008,0.002,0.371,0.004503508960366826,0.9179386455274452,0.016423801140009804,0.09708827897548757
0.08899999999999997,-0.0057,2.371,0.004542462722046188,0.916029506736933,0.016816252528002906,0.09649159065136793
0.09000000000000008,0.0074,2.371,0.0045275391387115576,0.9089073972043646,0.016665900399196576,0.09426562383203345
0.09099999999999997,-0.0053,0.371,0.004527796683391854,0.9089073972043646,0.016668495110538823,0.09426562383203345
0.09200000000000008,0.0096,2.371,0.004695257639984662,0.917938645527444,0.018355630884240456,0.09708827897548719
0.09299999999999997,-0.0042,0.371,0.004711889692448322,0.9306517375972655,0.018523195499136058,0.10106166930164835
0.09400000000000008,-0.002399999999997513,0.371,0.004714408472464648,0.9325309412737257,0.0185485717059731,0.1016490016097859
0.09499999999999997,0.0088,-2.629,0.004707697022159032,0.9394739788587849,0.018480955181295302,0.10381900071174592
0.09600000000000009,-0.0050000000000004,0.371,0.004660633928230462,0.9463660800518225,0.018006803886548784,0.105973079991353
0.09699999999999998,-0.0068,-0.629,0.004694492481915691,0.9394739788587849,0.018347922069141327,0.10381900071174592
0.09800000000000009,-0.008299999999999023,0.371,0.004742219596913921,0.9376086908794653,0.018828763243868875,0.10323601765995738
0.09899999999999998,-0.0039,0.371,0.00473988437980387,0.9287687316833813,0.018805236396740525,0.10047314863010437
0.10000000000000009,-0.00030000000000079936,-0.629,0.004745860682318046,0.9268819003587807,0.01886544645388624,0.0998834323524993
0.10099999999999998,-0.0039,1.371,0.004795649032692712,0.9413355707147206,0.019367054164362543,0.10440082856534844
0.10200000000000009,-0.005000000000000178,-0.6289999999999861,0.004780712734712799,0.9413355707147206,0.019216573938038186,0.10440082856534844
0.10299999999999998,-0.0058,0.3709999999999861,0.004786999551050234,0.9431934883325165,0.019279912360088226,0.10498150806084885
0.10400000000000009,-0.0013999999999998445,-0.6289999999999861,0.004781292093553658,0.9413355707147207,0.019222410862931676,0.10440082856534846
0.10499999999999998,-0.0007,0.371,0.00478304701283085,0.9413355707147207,0.01924009132500922,0.10440082856534846
0.1060000000000001,-1.5543122344750453e-16,1.371,0.004786765132175318,0.9325309412737258,0.01927755063662773,0.10164900160978595
0.10699999999999998,-0.0007,0.371,0.004822420484241304,0.9198438219028321,0.01963677120492249,0.09768372887375133
0.1080000000000001,0.008399999999999755,1.371,0.004825126537768145,0.9179386455274431,0.019664034155066658,0.09708827897548691
0.10899999999999999,0.0073,0.371,0.004841220568346089,0.9325309412737258,0.019826178306656103,0.10164900160978595
0.1100000000000001,0.0011000000000012213,0.371,0.004859676119279827,0.9325309412737258,0.020012114305334245,0.10164900160978595
0.11099999999999999,0.0066,-0.629,0.004855101693291816,0.9306517375972652,0.01996602787488772,0.10106166930164825
0.1120000000000001,0.003999999999999845,-0.629,0.004855378254584959,0.9287687316833814,0.01996881417481563,0.1004731486301044
0.11299999999999999,0.0033,-0.629,0.004872774348225634,0.9431934883325165,0.02014407635234643,0.10498150806084885
0.1140000000000001,0.012399999999995803,0.371,0.004884761815595155,0.9431934883325165,0.02026484769777937,0.10498150806084885
0.11499999999999999,-0.0065,2.371,0.00483204819064878,0.9431934883325165,0.019733768428808206,0.10498150806084885
0.1160000000000001,-0.0038999999999984676,0.371,0.004830670270225818,0.9431934883325165,0.01971988615507591,0.10498150806084885
0.11699999999999999,0.003,0.371,0.004818479061550665,0.9413355707147207,0.019597062156580997,0.10440082856534846
0.1180000000000001,0.005199999999998712,0.371,0.004811372410633034,0.9500586071147175,0.01952546406447467,0.10712715417175032
0.119,-0.0006,0.3709999999999861,0.004837102918252531,0.9518994992607198,0.01978469380234074,0.10770251247201744
0.1200000000000001,0.001199999999999689,-0.629,0.004818360720690032,0.9236423854354633,0.019595869895987675,0.09887094403045532
0.121,-0.0002,-0.629,0.004818047197665846,0.9217450604331227,0.019592711213983555,0.09827794802535443
0.12200000000000011,0.0011999999999997779,-0.629,0.0048024275478787785,0.921745060433123,0.019435346354349254,0.09827794802535453
0.123,0.0002,1.371,0.004803126809617423,0.8925337841857683,0.019442391277049154,0.08914816261842087
0.12399999999999989,-0.0009,0.371,0.004829588074618933,0.8905701859892432,0.019708983249947052,0.08853445337792373
0.125,0.0136,0.371,0.00482696952836145,0.8964480773547743,0.019682601918107213,0.09037154828463553
0.1259999999999999,0.0038,-0.629,0.00485090120556936,0.9113845263516237,0.019923708797965314,0.09503983367306303
0.127,-0.0016,0.371,0.004846856782551079,0.9113845263516237,0.01988296204184403,0.09503983367306303
0.1279999999999999,-0.0063,0.371,0.004854311712926381,0.9133033749051985,0.01995806898009717,0.09563955671748597
0.129,0.0013,0.371,0.004852624813560107,0.9203914684160873,0.01994107380507022,0.09785489206095814
0.1299999999999999,-0.0052,0.371,0.004851923746503764,0.9146674564632578,0.019934010694154188,0.09606589111647562
0.131,0.0086,-0.629,0.004815120241292825,0.9217450604331229,0.01956322271167555,0.0982779480253545
0.1319999999999999,-0.0041,1.371,0.0048169174018291286,0.9236423854354635,0.01958132874602274,0.09887094403045539
0.133,0.0007,0.371,0.004809267851060372,0.9255358209777542,0.019504261046080613,0.09946272441131228
0.1339999999999999,-0.0037,-0.629,0.004768717326672568,0.9236423854354635,0.0190957225919299,0.09887094403045539
0.135,-0.0072,-0.629,0.0047657394620532366,0.9306517375972654,0.01906572119918299,0.10106166930164832
0.1359999999999999,-0.0036,0.371,0.00478913631142126,0.9431934883325167,0.019301439795110297,0.10498150806084892
0.137,0.004,0.371,0.004755788406775632,0.9413355707147208,0.018965466299852917,0.1044008285653485
0.1379999999999999,-0.0068,0.371,0.004737842203466311,0.941335570714721,0.018784661877011246,0.10440082856534853
0.139,-0.0024,-0.629,0.004777752158866886,0.941335570714721,0.019186746726238952,0.10440082856534853
0.1399999999999999,0.0012,0.371,0.0047440043274941945,0.9127514755796966,0.018846744048885537,0.09546706434278118
0.14100000000000001,0.0125,1.3709999999999167,0.004685765810883917,0.8852226586532168,0.018260002597148627,0.08686312013584897
0.1419999999999999,-0.0041,-1.6289999999999722,0.004659418862676753,0.8871980923858672,0.017994562343177933,0.08748052849253964
0.14300000000000002,-0.0019,-0.6289999999999445,0.004576765619734958,0.8568098123931739,0.01716184738790254,0.07798287858262752
0.1439999999999999,-0.0001,1.371,0.004558890248584164,0.8588506007177721,0.016981756584945825,0.07862071307184278
0.14500000000000002,0.0018,1.371,0.0045599798235844554,0.8684025878664952,0.01699273383599302,0.08160612158803272
0.1459999999999999,0.0065,-0.629,0.004475098659593216,0.8268126483025461,0.01613757302002283,0.06860746928366514
0.14700000000000002,0.008,0.371,0.00444783551478045,0.8289272918254784,0.015862902267788505,0.06926838671202579
0.1479999999999999,-0.001,0.371,0.0043969704052843695,0.8289272918254784,0.015350446423691329,0.06926838671202579
0.14900000000000002,0.0026,0.371,0.004322338091054547,0.8289272918254784,0.01459854072714473,0.06926838671202579
0.1499999999999999,-0.0075,-1.629,0.004320586867604867,0.8289272918254784,0.014580897499793027,0.06926838671202579
0.15100000000000002,-0.0009,0.371,0.00437657589804832,0.8268126483025461,0.015144975826574047,0.06860746928366514
0.1519999999999999,0.0028,-0.629,0.004359576792847351,0.8167744212039955,0.014973713228479554,0.06547008978337257
0.15300000000000002,-0.0026,0.371,0.0043328973556728476,0.8246925825136405,0.014704923214406133,0.06794485716301046
0.15399999999999991,-0.0051,-0.629,0.004326506704333553,0.8268126483025462,0.014640538675399859,0.06860746928366517
0.15500000000000003,-0.0025,0.371,0.004324385962411928,0.8246925825136405,0.014619172623064072,0.06794485716301046
0.15599999999999992,0.0066,-0.629,0.004324045286669358,0.826812648302546,0.014615740382831982,0.0686074692836651
0.15700000000000003,-0.0021,0.371,0.004324815009884444,0.8167744212039953,0.014623495190868687,0.06547008978337254
0.15799999999999992,-0.0053,-1.629,0.004324474367941603,0.8167744212039952,0.014620063291162137,0.0654700897833725
0.15900000000000003,-0.0045,0.371,0.004271344675582649,0.8087787426813499,0.014084792225904145,0.06297109492685057
0.15999999999999992,-0.0002,0.371,0.004222885684220611,0.8087787426813499,0.013596577542626121,0.06297109492685057
0.16100000000000003,-0.0009,0.371,0.004264063675285626,0.8087787426813499,0.014011437598536835,0.06297109492685057
0.16199999999999992,-0.0045,-1.629,0.00421447919531206,0.816774421203995,0.01351188384173363,0.06547008978337243
0.16300000000000003,0.0035,0.371,0.004198289447839224,0.816774421203995,0.013348775361498241,0.06547008978337243
0.16399999999999992,-0.0029,0.371,0.004187141653162813,0.8246925825136401,0.013236463551156765,0.06794485716301032
0.16500000000000004,-0.0004,-0.629,0.0040000308305521495,0.8246925825136401,0.01135135929225306,0.06794485716301032
0.16599999999999993,0.0036,0.371,0.003989749557853214,0.7919093730554786,0.011247777518193728,0.057698688362676685
0.16700000000000004,0.0,1.371,0.003984356215978404,0.7919093730554786,0.011193440673343854,0.057698688362676685
0.16799999999999993,-0.005,-0.629,0.0039836117157971696,0.7941169654863024,0.011185939982347909,0.05838865633904052
0.16900000000000004,0.0015,0.371,0.003968682943475818,0.7963184379462938,0.011035535575534189,0.059076711560209286
0.16999999999999993,0.0008,0.371,0.0040292414270432265,0.7985138410530386,0.011645650232147142,0.05976286984636465
0.17100000000000004,-0.0014,-0.629,0.004027736511046414,0.7985138410530386,0.011630488503310181,0.05976286984636465
0.17199999999999993,-0.005,0.371,0.004071903301331895,0.8066112786672235,0.012075460115895687,0.06229366881377491
0.17300000000000004,0.0059,0.3709999999999445,0.004070103537520322,0.8066112786672235,0.012057327854068817,0.06229366881377491
0.17399999999999993,-0.0017,-1.629,0.004107255402979904,0.7963184379462938,0.012431625496647215,0.059076711560209286
0.17500000000000004,0.0048,-1.6289999999999445,0.0041516018228098,0.8394206060333409,0.012878406841104324,0.0725480005883277
0.17599999999999993,-0.0014,0.371,0.003925719223328708,0.8394206060333409,0.01060268465489991,0.0725480005883277
0.17700000000000005,0.0041,-0.629,0.003924456637894742,0.8471271181784215,0.010589964358203058,0.07495661846331304
0.17799999999999994,0.0015,1.371,0.003946812314920324,0.8491911764104295,0.010815193350217543,0.07560172580357706
0.17900000000000005,-0.001,1.371,0.00389746888915719,0.8491911764104295,0.010318068166558166,0.07560172580357706
0.17999999999999994,0.003,1.371,0.0039025343124544833,0.8491911764104295,0.010369101297072197,0.07560172580357706
0.18100000000000005,-0.0021,-0.629,0.0038735604836548578,0.8491911764104295,0.010077195744497239,0.07560172580357706
0.18199999999999994,0.0001,-0.629,0.003784892264359181,0.8568098123931734,0.009183881100846251,0.07798287858262738
0.18300000000000005,-0.0014,0.371,0.003763106028442498,0.8629176981806441,0.00896438911455171,0.07989185667921833
0.18399999999999994,0.0022,1.371,0.003763462836828829,0.8649440754022386,0.008967983887955515,0.08052518707635671
0.18500000000000005,0.0048,-1.629,0.0037529682280286383,0.8724251567288333,0.008862252795179913,0.0828633480846356
0.18599999999999994,-0.0036,0.371,0.003686168122537418,0.8798426305955086,0.008189255041229896,0.0851816290146041
0.18700000000000006,-0.0007,-0.629,0.0036936310525857927,0.8798426305955086,0.00826444257459543,0.0851816290146041
0.18799999999999994,-0.0065,0.371,0.003680125048231716,0.8798426305955085,0.008128372271587792,0.08518162901460406
0.18900000000000006,0.0004,0.371,0.0037041239892572518,0.8798426305955085,0.00837015682100721,0.08518162901460406
0.18999999999999995,-0.0003,-0.629,0.0037104090243086424,0.8798426305955085,0.008433477296955245,0.08518162901460406
0.19100000000000006,0.0018,-0.629,0.003711383432266233,0.8818301164925568,0.008443294262992458,0.0858028041931792
0.19199999999999995,0.004,0.371,0.0034939827749389716,0.881830116492558,0.00625302595409385,0.0858028041931796
0.19300000000000006,-0.0011,-0.629,0.003471242329488758,0.8758541289125281,0.006023920496860284,0.08393504998284737
0.19399999999999995,-0.0026,1.371,0.003466175113971077,0.8758541289125285,0.005972869310082919,0.08393504998284748
0.19500000000000006,0.001,0.371,0.0034685420680569774,0.866384299761472,0.005996715900919861,0.0809753193891765
0.19599999999999995,0.0007,-0.629,0.0034700475628842305,0.8568098123931753,0.006011883461358189,0.07798287858262798
0.19700000000000006,0.001,-0.629,0.003408709561479479,0.8547641516074338,0.005393915317840718,0.07734352123887307
0.19799999999999995,-0.0019,0.371,0.003342415794904521,0.8704161960540947,0.004726018827591955,0.08223546111057732
0.19900000000000007,-0.0037,0.371,0.0033416672196278133,0.8798426305955106,0.004718477080821014,0.08518162901460473
0.19999999999999996,-0.007,0.371,0.0033605533132182695,0.881830116492559,0.004908750710986723,0.0858028041931799
0.20100000000000007,-0.0005,0.371,0.003356855269331199,0.8684025878664965,0.004871493655601771,0.08160612158803314
0.20199999999999996,-0.0013,1.371,0.00346703966546218,0.8704161960540948,0.005981579494107447,0.08223546111057736
0.20300000000000007,-0.0053,-0.629,0.0034563259130083635,0.8684025878664966,0.0058736405726825,0.08160612158803318
0.20399999999999996,-0.0003,0.37099999999997224,0.0034783348878418946,0.8684025878664966,0.006095376609187048,0.08160612158803318
0.20500000000000007,0.0004,-0.6289999999999722,0.0034409814623173546,0.8684025878664966,0.005719048289111885,0.08160612158803318
0.20599999999999996,0.0008,0.371,0.0034327514238914583,0.8684025878664965,0.005636132291677143,0.08160612158803314
0.20700000000000007,0.0004,0.37099999999997224,0.003371366244214051,0.866384299761472,0.005017688836462197,0.0809753193891765
0.20799999999999996,0.005,-0.6289999999999722,0.003427429876683776,0.866384299761472,0.005582518763794618,0.0809753193891765
0.20900000000000007,0.0035,0.371,0.0034147130101529967,0.8527135832934316,0.005454398867133356,0.07670263008058986
0.20999999999999996,0.006,0.371,0.003385155786482615,0.8547641516074338,0.005156615727467812,0.07734352123887307
0.21100000000000008,0.0013,1.371,0.0033866304111296475,0.8704161960540947,0.0051714722769908164,0.08223546111057732
0.21199999999999997,-0.0016,-0.629,0.0034181670733696135,0.872425156728835,0.00548919786587281,0.08286334808463615
0.21300000000000008,-0.0013,1.371,0.003389536225434355,0.8568098123931752,0.005200747777172788,0.07798287858262794
0.21399999999999997,-0.001,0.371,0.003472304594193532,0.8588506007177734,0.006034622602121287,0.07862071307184319
0.21500000000000008,0.0058,0.371,0.003472304594193532,0.8608865512327001,0.006034622602121287,0.07925703553660027
0.21599999999999997,-0.0033,0.371,0.003474978842972236,0.8608865512327001,0.0060615651257645755,0.07925703553660027
0.21700000000000008,0.0029,-0.629,0.0034652596251713253,0.862917698180646,0.0059636459428222145,0.07989185667921891
0.21799999999999997,0.0039,-0.629,0.0034681514413030636,0.853304314751447,0.0059927804142004375,0.07688725917379129
0.21900000000000008,-0.006999999999998335,-0.629,0.0034324059655806986,0.8512502298580509,0.005632651868023393,0.0762452689325731
0.21999999999999997,0.0005,-0.629,0.0034353825382422358,0.8608865512327001,0.00566264024455293,0.07925703553660027
0.22100000000000009,-0.005999999999998645,1.371,0.0034372002859209953,0.8608865512327,0.005680953690258697,0.07925703553660024
0.22199999999999998,0.0001,-0.629,0.003435382538242236,0.8608865512327,0.005662640244552934,0.07925703553660024
0.2230000000000001,0.005500000000000133,0.371,0.0034123929242692087,0.8629176981806459,0.005431024464094939,0.07989185667921889
0.22399999999999998,0.0061,-2.629,0.003399436459333852,0.8724251567288352,0.005300490661243785,0.08286334808463622
0.2250000000000001,0.0016999999999988008,0.371,0.0034174055747780326,0.8568098123931754,0.005481525919279292,0.077982878582628
0.22599999999999998,-0.0037,1.371,0.0034232717503582914,0.8429838402206642,0.005540626469506859,0.07366166516119474
0.2270000000000001,-0.0044999999999992,-0.629,0.0034724214048145077,0.8429838402206642,0.0060357994458549325,0.07366166516119474
0.22799999999999998,-0.0009,0.371,0.003477389685797538,0.8409045457916887,0.006085853886906848,0.07301179585135593
0.2290000000000001,-0.002399999999999933,0.371,0.003519184184329066,0.8331404771184933,0.006506925132713225,0.07058518907557736
0.22999999999999998,-0.0021,0.371,0.003581345159024311,0.8231794180816734,0.0071331845681678885,0.06747192792731793
0.2310000000000001,0.002499999999999334,1.371,0.003653214546039228,0.8130963375230112,0.007857254323494253,0.06432052978360463
0.23199999999999998,-0.0005,-1.629,0.0036496396727277516,0.8210499708380912,0.007821238187118607,0.06680638369690955
0.2330000000000001,-0.000900000000000333,-0.629,0.0036501411628312077,0.8289272918254793,0.007826290599996883,0.06926838671202606
0.23399999999999999,-0.0024,1.371,0.0037426300590286416,0.8310365544746966,0.008758097802223084,0.06992762238496104
0.2350000000000001,-0.001400000000000644,1.3709999999999722,0.003923558837574136,0.8231794180816712,0.010580919198845592,0.06747192792731724
0.236,-0.0043,0.371,0.003947503084049051,0.8066112786672244,0.010822152711564547,0.06229366881377519
0.2370000000000001,-0.0025000000000012213,0.371,0.003935245781755432,0.8066112786672242,0.010698662833031695,0.06229366881377512
0.238,-0.008,0.37099999999997224,0.003971315669279826,0.8066112786672242,0.011062059763480216,0.06229366881377512
0.2390000000000001,0.0031999999999989567,-0.629,0.0040359285463013725,0.8087787426813507,0.01171302162636926,0.06297109492685085
0.24,-0.0015,-0.629,0.004106354459287144,0.8109404135651883,0.012422548668441568,0.06364671043651694
0.2410000000000001,-9.999999999977796e-05,1.371,0.004113762215634628,0.8087787426813507,0.01249718033776312,0.06297109492685085
0.242,0.0009,1.371,0.004147946648935591,0.8167744212039957,0.01284158169255777,0.06547008978337264
0.2430000000000001,-0.00020000000000024425,-0.629,0.004129475104873273,0.8189149863527803,0.01265548456629556,0.066139108839318
0.244,-0.0013,0.371,0.004231161548450575,0.8189149863527803,0.013679955225906771,0.066139108839318
0.2450000000000001,-0.0020999999999994226,0.371,0.004231784008608825,0.8109404135651882,0.013686226387985714,0.0636467104365169
0.246,0.0005,0.371,0.0042474524746242475,0.8109404135651882,0.01384408306139482,0.0636467104365169
0.2470000000000001,0.0043999999999988675,-1.629,0.004263959343713248,0.8087787426813506,0.014010386478731558,0.06297109492685081
0.248,-0.0007,1.371,0.004271189483361272,0.8066112786672242,0.01408322869519339,0.06229366881377512
0.2490000000000001,0.004400000000000644,-0.629,0.004298406511137527,0.8066112786672242,0.014357434827472959,0.06229366881377512
0.25,0.0073,-0.629,0.004342960197151439,0.8066112786672242,0.0148063043374395,0.06229366881377512
0.2509999999999999,0.0087,-0.629,0.004320519681315333,0.8087787426813506,0.014580220611311792,0.06297109492685081
0.252,0.0007,0.371,0.004337960935011027,0.8087787426813506,0.014755937767399472,0.06297109492685081
0.2529999999999999,-0.0047,0.371,0.004343354338447949,0.8087787426813506,0.014810275232475361,0.06297109492685081
0.254,-0.0,-0.629,0.004312456070410995,0.8087787426813506,0.01449898133799867,0.06297109492685081
0.2549999999999999,0.0007,0.371,0.004312370770975428,0.8109404135651883,0.014498121963179908,0.06364671043651694
0.256,0.0014,0.371,0.0043241463858550416,0.8512502298580501,0.014616758936985316,0.07624526893257284
0.2569999999999999,0.0065,0.371,0.004335830216920686,0.8512502298580501,0.01473447120715147,0.07624526893257284
0.258,-0.0044,-0.629,0.004344766432804571,0.8533043147514463,0.014824501801780656,0.07688725917379108
0.2589999999999999,-0.0001,-0.629,0.004316307768469025,0.8608865512326996,0.014537786428542853,0.07925703553660013
0.26,0.001,-1.629,0.0043242424330942,0.8704161960540943,0.014617726593783931,0.08223546111057718
0.2609999999999999,0.0047,-0.629,0.004282631939290487,0.8704161960540943,0.014198509158950231,0.08223546111057718
0.262,-0.0008,0.371,0.00428181502014311,0.8704161960540943,0.014190278861298743,0.08223546111057718
0.2629999999999999,0.0083,-0.629,0.004286679172859835,0.868402587866496,0.014239284230813557,0.081606121588033
0.264,-0.0029,-0.629,0.004286391312584464,0.8608865512326996,0.014236384095890845,0.07925703553660013
0.2649999999999999,0.0014,-0.629,0.004286466325073053,0.8629176981806456,0.014237139831768313,0.07989185667921878
0.266,0.0025,-0.629,0.004263936031954462,0.8724251567288346,0.014010151617406286,0.08286334808463601
0.2669999999999999,0.0014,0.371,0.004252919668833938,0.8744295019230445,0.013899163953804694,0.08348979252169521
0.268,0.0004,0.371,0.004243899461364377,0.8724251567288346,0.01380828716068383,0.08286334808463601
0.2689999999999999,-0.0021,1.371,0.004226242015121993,0.8798426305955102,0.013630391907761219,0.08518162901460459
0.27,-0.0014,0.371,0.0041894060163873694,0.8778506449693908,0.013259276559505288,0.08455904747635998
0.2709999999999999,0.0008,-0.629,0.004206143146240197,0.875854128912528,0.01342789980816173,0.08393504998284734
0.272,0.003,-0.629,0.004210996919458116,0.868402587866496,0.01347680060629403,0.081606121588033
0.2729999999999999,0.0051,1.371,0.004219525418307814,0.8758541289125281,0.013562723533035007,0.08393504998284737
0.274,-0.0039,0.371,0.004186702723953196,0.8758541289125281,0.013232041426819635,0.08393504998284737
0.2749999999999999,0.0052,-0.629,0.004151134547456953,0.8346355827023954,0.01287369913502168,0.07105247414132215
0.276,-0.006,0.371,0.00416419993545896,0.8367304557938711,0.01300533031606812,0.07170721245600517
0.2769999999999999,0.0045,0.371,0.004196712160263756,0.826812648302547,0.013332884503425232,0.06860746928366541
0.278,0.0056,-0.629,0.004172705599523278,0.8246925825136414,0.013091023186895872,0.06794485716301074
0.2789999999999999,0.0067,0.371,0.004186291440821038,0.8246925825136414,0.01322789783120486,0.06794485716301074
0.28,0.0078,0.371,0.004205662432411558,0.8246925825136414,0.013423056712112887,0.06794485716301074
0.2809999999999999,0.0013,1.371,0.004204864164056831,0.826812648302547,0.01341501431748147,0.06860746928366541
0.28200000000000003,0.0006,1.370999999999889,0.00419881322378114,0.8167744212039965,0.0133540522997589,0.06547008978337289
0.2829999999999999,-0.0084,-0.629,0.004198740510000939,0.8167744212039965,0.013353319722910456,0.06547008978337289
0.28400000000000003,-0.012,-0.6289999999999445,0.004199293386000633,0.8167744212039965,0.013358889838455495,0.06547008978337289
0.2849999999999999,-0.0065,0.371,0.004193922142590321,0.8066112786672248,0.01330477563123266,0.06229366881377533
0.28600000000000003,-0.0018,0.3709999999999445,0.004226484281388117,0.7985138410530405,0.01363283269212466,0.05976286984636524
0.2869999999999999,-0.0054,-0.629,0.004206198482425939,0.7985138410530404,0.013428457309208214,0.0597628698463652
0.28800000000000003,-0.0097,-0.629,0.004228713420327592,0.7985138410530404,0.013655290822818874,0.0597628698463652
0.2889999999999999,-0.0076,-0.629,0.004165624612109824,0.8007032247301946,0.013019683649481088,0.06044714680080576
0.29000000000000004,-0.0025,0.371,0.0042034996744135045,0.8152465601481459,0.013401267356178134,0.06499256721799747
0.2909999999999999,0.0056,1.371,0.004222993537742277,0.8130963375230099,0.013597664145368789,0.06432052978360421
0.29200000000000004,0.0009,-0.629,0.004233041344812452,0.8050641300998552,0.013698893799732723,0.06181011806805916
0.2929999999999999,-0.0093,-0.629,0.004283453254132806,0.7969509728041875,0.01420678374235249,0.059274406021282276
0.29400000000000004,-0.0027,-0.629,0.00429332837562989,0.8274218717397943,0.014306273623972427,0.06879787791901035
0.29499999999999993,-0.0038,0.371,0.004291502076975107,0.8435813851155589,0.01428787402888687,0.07384842374768037
0.29600000000000004,0.0038,0.371,0.004315316630697264,0.8435813851155591,0.01452780091296103,0.07384842374768044
0.29699999999999993,-0.0027,0.371,0.004379427512544233,0.8533043147514433,0.015173705274480871,0.07688725917379013
0.29800000000000004,-0.0052,0.371,0.00437101192009995,0.8394206060333391,0.01508891985727962,0.07254800058832714
0.29899999999999993,0.0072,0.371,0.004398038859029767,0.8316426836769993,0.01536121088230355,0.07011706393825165
0.30000000000000004,0.0054,-0.629,0.004392419934855966,0.8295349622369328,0.015304601340735073,0.06945830995973819
0.30099999999999993,0.0039,0.371,0.004342257757688972,0.8274218717397899,0.014799227399805194,0.06879787791900896
0.30200000000000005,0.0025,1.371,0.004260736645152459,0.8274218717397889,0.013977918432803778,0.06879787791900864
0.30299999999999994,-0.0011,-0.629,0.004308179373330943,0.8373324632983744,0.01445589446698201,0.07189536580072514
0.30400000000000005,-0.0001,-0.629,0.004284982016359071,0.8394206060333376,0.014222185717200193,0.07254800058832665
0.30499999999999994,0.0032,-2.629,0.004285698735558343,0.8533043147514418,0.014229406520337788,0.07688725917378965
0.30600000000000005,-0.0033,0.371,0.004329491316042294,0.8533043147514418,0.014670608043728321,0.07688725917378965
0.30699999999999994,0.0028,-0.629,0.004332845748955284,0.8553534668857546,0.014704403287008512,0.07752770771475784
0.30800000000000005,0.0007,1.371,0.004295385126856394,0.8709949212214637,0.01432699498280401,0.08241633771942283
0.30899999999999994,-0.0044,1.371,0.0042735024359514175,0.8709949212214637,0.014106531231719557,0.08241633771942283
0.31000000000000005,0.0006,0.371,0.004277787528789669,0.8709949212214637,0.014149702688327355,0.08241633771942283
0.31099999999999994,0.001,1.371,0.004278309297912786,0.857397721628377,0.014154959408288436,0.07816662560931367
0.31200000000000006,-0.0026,0.371,0.004252549823188081,0.8553534668857546,0.013895437832608631,0.07752770771475784
0.31299999999999994,-0.0012,-0.629,0.004271704053839869,0.8553534668857546,0.01408841289024515,0.07752770771475784
0.31400000000000006,0.001,-0.629,0.0041987682626827534,0.8533043147514419,0.013353599325650447,0.07688725917378969
0.31499999999999995,0.0038,1.371,0.004212782983563642,0.8533043147514419,0.013494794846311923,0.07688725917378969
0.31600000000000006,-0.0012,-0.629,0.004242194989746522,0.891701100735853,0.013791114948723196,0.08888791307830292
0.31699999999999995,0.0009,0.371,0.004246921638789146,0.9047829313120268,0.013838734996116889,0.09297655011281614
0.31800000000000006,0.0006,1.371,0.004249831582663068,0.9047829313120268,0.013868052100885948,0.09297655011281614
0.31899999999999995,0.0042,0.371,0.004257476232925082,0.9067157506813455,0.01394507042919899,0.09358063964053208
0.32000000000000006,-0.0038,0.371,0.004307732640565824,0.8975715861554932,0.01445139372337794,0.09072269330707507
0.32099999999999995,0.0063,-0.629,0.004308065499621248,0.8995199008436334,0.014454747212044384,0.0913316257911362
0.32200000000000006,-0.0027,1.371,0.00436246372096701,0.8975715861554933,0.015002798454109938,0.09072269330707511
0.32299999999999995,-0.0017,0.371,0.004363656287502214,0.9341506044283181,0.015014813324351936,0.10215521629577673
0.32400000000000007,-0.0028,0.371,0.004354684117125455,0.925277607798786,0.014924420495370412,0.09938202164114708
0.32499999999999996,0.0037,-0.629,0.004359752573965118,0.9271677039424401,0.01497548418821943,0.09997275831570773
0.32600000000000007,-0.0064,0.371,0.004363443475846036,0.9534862621001626,0.015012669289315326,0.10819844438862178
0.32699999999999996,0.0001,0.371,0.0043233374429215675,0.9620991384850565,0.014608608998099766,0.11089034023270179
0.32800000000000007,-0.0035,0.371,0.0043973466844364276,0.9620991384850565,0.01535423736118059,0.11089034023270179
0.32899999999999996,-0.0047,0.371,0.004372226035167445,0.9620991384850565,0.015101151824691232,0.11089034023270179
0.33000000000000007,0.0019,-0.629,0.004348215925911326,0.9639170358561674,0.014859254757573777,0.1114585116727146
0.33099999999999996,0.0011,0.371,0.004285802796860099,0.9657315112150955,0.014230454917220399,0.11202561358613007
0.3320000000000001,0.0004,-1.629,0.004286708896118857,0.9589785979019011,0.014239583686726315,0.10991503653023463
0.33299999999999996,0.0011,-0.629,0.004294660882104442,0.9503374405830548,0.014319698361222509,0.10721430167289456
0.3340000000000001,-0.0011,0.371,0.004228994106931962,0.98495880647571,0.013658118684435502,0.11803497374549865
0.33499999999999996,0.0054,-0.629,0.004080355704367172,0.9968175109788692,0.012160616392467275,0.1217413310576988
0.3360000000000001,0.0011,0.371,0.004046241567248853,1.0102711268140905,0.011816923257707342,0.12594616704236475
0.33699999999999997,0.005,0.371,0.004116569154815122,1.0235479222558739,0.01252545969076796,0.13009573901754384
0.3380000000000001,-0.0033,-0.629,0.004090025642064609,1.021836116710632,0.012258039088185423,0.12956072585501993
0.33899999999999997,-0.0065,-1.629,0.0039755898294213145,1.021836116710632,0.011105121075346298,0.12956072585501993
0.3400000000000001,0.0043,0.371,0.003921862334894201,1.021836116710632,0.010563827272346817,0.12956072585501993
0.34099999999999997,0.0029,-0.629,0.00392124168184404,1.0298775411058407,0.010557574316521842,0.1320740182723954
0.3420000000000001,0.0066,-0.629,0.0038808334003304417,1.0298775411058405,0.01015046893098909,0.13207401827239532
0.34299999999999997,0.0029,2.371,0.003895363028534279,1.028176273765428,0.01029685204034206,0.1315422987540057
0.3440000000000001,-0.00030000000000104357,-1.628999999999889,0.003783730742406277,1.026472186761097,0.009172178998585788,0.13100969796886555
0.345,-0.005,0.3710000000000555,0.0037743065610378315,1.0247652660263504,0.009077232248919128,0.13047621152058708
0.3460000000000001,-0.0074999999999991115,1.370999999999889,0.0037618239234246983,1.026472186761097,0.008951472161936709,0.13100969796886555
0.347,-0.0035,-0.629,0.003756798680716212,1.0344775736834784,0.008900843842849558,0.13351172711959233
0.3480000000000001,0.004899999999999755,-0.6289999999999445,0.0037515974248377116,1.0474475881561618,0.008848442226142377,0.13756541679263928
0.349,0.0038,0.371,0.003746279734927184,1.0552938691161378,0.00879486755976018,0.14001771845862956
0.3500000000000001,0.0030999999999998446,0.3709999999999445,0.003686895319273047,1.0630822406822797,0.00819658140345881,0.14245192093804981
0.351,0.0024,-0.628999999999889,0.0036524654514343835,1.0630822406822797,0.007849707344595806,0.14245192093804981
0.3520000000000001,0.00639999999999889,1.371,0.0036876561272919588,1.0630822406822797,0.008204246392670271,0.14245192093804981
0.353,0.0014,-0.629,0.003727408571617097,1.055293869116138,0.008604744349194567,0.14001771845862965
0.3540000000000001,-0.0008000000000011991,-1.629,0.0037858793744873762,1.055293869116138,0.009193826038721598,0.14001771845862965
0.355,-0.0062,0.371,0.003788046567208156,1.086576159168888,0.00921566007360427,0.1497947851229089
0.3560000000000001,0.002199999999998801,-0.629,0.0037846225150178882,1.055293869116138,0.009181163429976056,0.14001771845862965
0.357,-0.0032,-1.629,0.003788616941712418,1.0569514889218712,0.00922140648309653,0.14053579623737775
0.3580000000000001,-0.0006999999999994227,-0.629,0.003808708626610347,1.0569514889218712,0.009423826205489856,0.14053579623737775
0.359,0.0019,-0.629,0.003811052168492366,1.0507849682091306,0.009447436923037207,0.1386084921943087
0.3600000000000001,0.0011999999999998444,-0.629,0.003787305070727312,1.042904765141245,0.009208189644291319,0.1361455884045652
0.361,0.0005,0.371,0.0038562208918555487,1.044582045075621,0.009902502811761093,0.1366698108225978
0.3620000000000001,0.00409999999999969,0.371,0.0038586998641729326,1.0366546911264227,0.009927477963962357,0.1341921703460869
0.363,0.0027,0.371,0.0038546452128248084,1.0366546911264227,0.009886628159455737,0.1341921703460869
0.3640000000000001,-0.004500000000000155,-0.629,0.003887544671638098,1.0366546911264223,0.010218083652298109,0.13419217034608677
0.365,-0.0052,-2.629,0.0038884444235053207,1.0349645640766476,0.01022714847309892,0.13366393264964946
0.3660000000000001,0.003199999999999756,-1.629,0.003871803223648644,1.0286662473195418,0.010059491700041147,0.13169543665069502
0.367,0.0021,0.371,0.0038795121074509087,1.0269629733512384,0.010137157168474693,0.131163089974427
0.3680000000000001,-0.002600000000000955,-0.629,0.003918421137378497,1.0286662473195416,0.010529157892980767,0.13169543665069494
0.369,-0.0069,0.371,0.003943878573061898,1.0286662473195416,0.010785636485495981,0.13169543665069494
0.3700000000000001,-0.0014999999999981348,-0.629,0.003947980329859759,1.0286662473195416,0.010826960868023674,0.13169543665069494
0.371,0.0069,0.371,0.003945218009903563,1.0286662473195416,0.010799131044813956,0.13169543665069494
0.3720000000000001,-0.0032000000000002443,-2.629,0.0038990422399121094,1.0269629733512384,0.010333919361948501,0.131163089974427
0.373,-0.0043,0.371,0.00394565845842775,1.0206152791892351,0.010803568475942679,0.1291791614039256
0.3740000000000001,0.004400000000000245,-0.629,0.00400698792414598,1.0223291289279457,0.01142145062411905,0.12971481346519334
0.375,0.0055,2.371,0.0040058567768946965,1.0303667056512067,0.011410054540925725,0.1322269033189115
0.3760000000000001,-0.0009999999999977351,1.371,0.003989418010623086,1.0417086194587104,0.011244437245905781,0.13577174121950902
0.377,0.0092,0.371,0.003944238997632176,1.0668431226635284,0.010789267691232583,0.143627358982552
0.3780000000000001,-0.0030999999999982235,-0.629,0.003945066076180154,1.0668431226635287,0.010797600342821026,0.14362735898255208
0.379,0.0049,-0.629,0.003929755114462558,1.0668431226635284,0.010643345453985398,0.143627358982552
0.3799999999999999,-0.0027,-0.629,0.003946337990845305,1.0794243131663157,0.010810414629663366,0.14755952437243638
0.381,-0.0016,-0.629,0.0039709968511065655,1.0778012563151522,0.011058847733904144,0.14705224900969976
0.3819999999999999,-0.0027,0.371,0.00399071179096873,1.0778012563151522,0.011257471825122684,0.14705224900969976
0.383,-0.0038,-2.629,0.003993373797660193,1.0729173541770887,0.011284291012176062,0.14552581866508166
0.3839999999999999,-0.0045,-1.629,0.0040297455310338865,1.0712844389583527,0.011650728979418223,0.14501546213671443
0.385,-0.0038,-1.629,0.00416582657014116,1.0712844389583527,0.013021718336409822,0.14501546213671443
0.3859999999999999,-0.0078,-1.629,0.004215338138224814,1.0696490309509286,0.013520537520448716,0.14450432650422335
0.387,-0.0027,0.371,0.004218214414669664,1.0712844389583527,0.013549515432577573,0.14501546213671443
0.3879999999999999,0.0012,-0.629,0.004195062989276772,1.0712844389583527,0.013316269434302834,0.14501546213671443
0.389,-0.0039,-0.629,0.004207236086506086,1.0696490309509286,0.013438910963589344,0.14450432650422335
0.3899999999999999,-0.0024,1.371,0.004190826840705162,1.0586065131455635,0.013273591081430069,0.14105306278463983
0.391,0.0001,1.371,0.0041702231549959135,1.060258953942036,0.013066013052870841,0.14156952189932237
0.3919999999999999,-0.0035,0.371,0.00416002362437829,1.0663706906766315,0.012963254813994898,0.14347970358320494
0.393,-0.0007,0.371,0.00414352579013355,1.0663706906766315,0.012797042420914038,0.14347970358320494
0.3939999999999999,-0.0003,0.371,0.004149039774271495,1.0429047651412433,0.012852594712528918,0.13614558840456464
0.395,0.0022,-0.629,0.00417566027436993,1.0298775411058403,0.013120790947303238,0.13207401827239526
0.3959999999999999,-0.0033,1.371,0.004148581529746615,1.042904765141245,0.012847977990238787,0.1361455884045652
0.397,0.0018,-1.629,0.00409292209948274,1.03496456407665,0.012287220319599357,0.1336639326496502
0.3979999999999999,-0.0048,1.371,0.00408920546004206,1.0349645640766503,0.01224977591771666,0.1336639326496503
0.399,0.0028,1.371,0.004060739370342541,1.0332716724822757,0.011962985735416216,0.13313483091363007
0.3999999999999999,0.002,-0.629,0.004139920780145863,1.0332716724822757,0.012760722663529827,0.13313483091363007
0.401,0.0064,0.371,0.0041713209048308076,1.0349645640766507,0.01307707266374795,0.13366393264965043
0.4019999999999999,-0.006,0.371,0.004234615753593306,1.0332716724822766,0.013714755654523559,0.13313483091363035
0.403,0.0067,-0.629,0.004291824572727111,1.0269629733512426,0.014291123109336088,0.13116308997442833
0.4039999999999999,-0.0013,-2.629,0.0043149851442777646,1.0269629733512426,0.014524461253328047,0.13116308997442833
0.405,-0.0028,-0.629,0.004326005676102947,1.0137309056916046,0.014635490915798523,0.12702749736287777
0.4059999999999999,0.0037,-0.629,0.004334989295057047,1.0137309056916046,0.014725999086915813,0.12702749736287777
0.40700000000000003,0.0048,-0.629,0.004333559244726139,1.0120024947668207,0.014711591614747029,0.12648729430209207
0.4079999999999999,0.0015,-0.6289999999999445,0.004354419453950286,1.0003238224066329,0.014921754066610572,0.1228372048098174
0.40900000000000003,-0.0011,0.3709999999999445,0.004354318175942296,1.0120024947668207,0.014920733710858123,0.12648729430209207
0.4099999999999999,-0.0073,-0.6289999999999445,0.004378924929476333,1.010271126814093,0.01516864185020358,0.12594616704236553
0.41100000000000003,0.0017,0.371,0.004415283998582569,1.010271126814093,0.015534952227474261,0.12594616704236553
0.4119999999999999,-0.0019,0.3709999999999445,0.004417150877015958,1.0120024947668207,0.015553760655744387,0.12648729430209207
0.41300000000000003,-0.0052,-0.6289999999999445,0.004398023091489435,1.0137309056916046,0.015361052027476136,0.12702749736287777
0.4139999999999999,0.0013,0.3709999999999445,0.004391505547133333,1.0218361167106342,0.01529538906660697,0.12956072585502063
0.41500000000000004,-0.0013,-0.6289999999999445,0.004368592859718346,1.020121438689638,0.015064548305894822,0.12902481491976667
0.4159999999999999,0.0027,0.3709999999999445,0.004344450166044935,0.9867345895397165,0.014821315477188523,0.11858998264570426
0.41700000000000004,-0.0056,-0.629,0.004332538075708215,0.9729555748923013,0.014701303540343364,0.11428344547886998
0.4179999999999999,0.0045,1.371,0.004345963310392516,0.9747532254135202,0.014836560105020104,0.11484528890386847
0.41900000000000004,-0.0046,0.371,0.004350930263273099,0.9747532254135202,0.014886601165704465,0.11484528890386847
0.41999999999999993,-0.0035,0.371,0.004321585534776554,1.0015693939882306,0.014590958872578995,0.12322649972294165
0.42100000000000004,0.0019,0.371,0.004324061587555651,0.9998199594096424,0.014615904611013694,0.12267972586237039
0.42199999999999993,0.0066,-0.629,0.0042929373338666706,1.0132337098192092,0.014302333956116934,0.12687210217980718
0.42300000000000004,-0.0072,-0.629,0.0042820940261567115,0.9862237838106451,0.014193089791298205,0.11843033379463853
0.42399999999999993,0.0026,1.371,0.00426367521153228,0.9879972932624044,0.014007523903617187,0.11898463209282387
0.42500000000000004,0.0008,-1.629,0.004268774534628316,0.9862237838106448,0.014058898567849544,0.11843033379463842
0.42599999999999993,0.0022,2.371,0.00425392971628474,0.9589785979018975,0.0139093399806354,0.10991503653023352
0.42700000000000005,0.0008,0.371,0.004256962373449739,0.9521777936467503,0.013939893397363354,0.10778949148665883
0.42799999999999994,-0.0003,0.371,0.0041584156442763765,0.9540145965623607,0.012947054734832953,0.10836357172582234
0.42900000000000005,0.0059,-1.629,0.004147582730482358,0.9608023995463046,0.0128379152866465,0.11048505331064576
0.42999999999999994,0.0048,0.371,0.00412220671692399,0.9608023995463042,0.012582257005818909,0.11048505331064562
0.43100000000000005,0.0041,0.371,0.004154373751896016,0.9589785979018948,0.012906333474384527,0.10991503653023266
0.43199999999999994,0.0015,1.371,0.004164576424480357,0.9571513211054101,0.013009123367949158,0.10934393361471095
0.43300000000000005,0.0055,0.371,0.004164144682225842,0.95715132110541,0.013004773650752794,0.10934393361471093
0.43399999999999994,0.0106,0.371,0.0042288478364551465,0.9195840104491138,0.013656645038523683,0.09760252657370028
0.43500000000000005,0.0084,0.371,0.00424103399901722,0.90478293131202,0.013779418198434678,0.09297655011281403
0.43599999999999994,0.0019,-0.629,0.004238462674311032,0.8917011007358461,0.01375351261431598,0.08888791307830077
0.43700000000000006,-0.0024,0.371,0.004171582265157566,0.8764292633027583,0.013079705816968093,0.08411480431875813
0.43799999999999994,-0.0046,0.371,0.004211604078366495,0.8917011007358461,0.013482917611329045,0.08888791307830077
0.43900000000000006,0.0053,-0.629,0.004218600623009078,0.8897356648541563,0.01355340640465121,0.08827362948182355
0.43999999999999995,-0.0012,-0.629,0.004205365874007755,0.8897356648541563,0.013420068945279189,0.08827362948182355
0.44100000000000006,-0.0001,1.371,0.004199756217239164,0.8824013558430039,0.013363552770971822,0.08598134116093839
0.44199999999999995,-0.0055,-0.629,0.004199756217239164,0.8883333000702652,0.013363552770971822,0.0878353299213815
0.44300000000000006,0.0036,-0.629,0.004212899361543041,0.890301831826589,0.01349596733126788,0.0884505811123868
0.44399999999999995,0.0047,0.371,0.004249617242217785,0.890301831826589,0.013865892663603694,0.0884505811123868
0.44500000000000006,0.0015,-1.629,0.004252594222727008,0.890301831826589,0.013895885149117411,0.0884505811123868
0.44599999999999995,-0.0032,0.371,0.004247600201666952,0.8883333000702652,0.013845571381917771,0.0878353299213815
0.44700000000000006,0.003,-0.629,0.004245613400683834,0.8789979247721691,0.013825554757851811,0.08491762196356759
0.44799999999999995,-0.001,0.371,0.0042484212006527865,0.8635014489123198,0.013853842783128872,0.08007430399395428
0.44900000000000007,0.0089,0.371,0.0042444364557065045,0.8635014489123198,0.013813697271693057,0.08007430399395428
0.44999999999999996,-0.006,-0.629,0.004337801066332734,0.8635014489123198,0.014754327122317,0.08007430399395428
0.45100000000000007,-0.0077,0.371,0.004398980716987281,0.8709949212214567,0.015370699913575068,0.08241633771942064
0.45199999999999996,-0.0095,-0.629,0.004356925325850398,0.8709949212214567,0.014947000226748499,0.08241633771942064
0.45300000000000007,-0.0047,-0.629,0.004316179147603673,0.8709949212214567,0.014536490598950126,0.08241633771942064
0.45399999999999996,-0.0032,0.371,0.004264208393131319,0.8709949212214567,0.01401289560199943,0.08241633771942064
0.45500000000000007,-0.0068,0.371,0.004272020454415336,0.8316426836769909,0.014091600563005126,0.07011706393824901
0.45599999999999996,0.0019,0.371,0.0042635412672880285,0.8295349622369244,0.014006174442042644,0.06945830995973555
0.4570000000000001,0.0053,-0.629,0.004274172561382927,0.8435813851155486,0.014113282611930024,0.07384842374767715
0.45799999999999996,0.0006,-1.629,0.004246960743824184,0.8435813851155486,0.013839128971553833,0.07384842374767715
0.4590000000000001,0.005,0.371,0.0042668347166249345,0.843581385115549,0.01403935528794381,0.07384842374767729
0.45999999999999996,-0.0058,-0.629,0.004271567938844512,0.85943711392607,0.014087041558785712,0.0788040237798293
0.4610000000000001,-0.0014,-0.629,0.00423282328429907,0.8877658776802685,0.013696696883505536,0.08765798591861035
0.46199999999999997,-0.0003,-0.629,0.004243933519784625,0.8970100076550792,0.013808630292482223,0.09054717577218506
0.4630000000000001,-0.0013,1.371,0.004250951173269352,0.8970100076550794,0.013879331753183382,0.09054717577218513
0.46399999999999997,-0.0002,0.371,0.004221276567523582,0.8950562295706981,0.013580366012494842,0.08993653574084494
0.4650000000000001,0.0024,-0.629,0.004224038462716536,0.9042258315007721,0.013608191556299524,0.09280243236171447
0.46599999999999997,-0.0001,0.371,0.004259274531042749,0.9042258315007725,0.013963187924451776,0.0928024323617146
0.4670000000000001,0.004,-0.629,0.004254922126459559,0.9061598391527379,0.013919338315424534,0.09340689327907732
0.46799999999999997,0.0033,-0.629,0.00423193290630545,0.906159839152738,0.013687726502613675,0.09340689327907735
0.4690000000000001,-0.0046999999999994225,2.370999999999889,0.004212127743868822,0.8970100076550808,0.01348819343693285,0.09054717577218555
0.47,-0.0021,0.370999999999889,0.004210334185299928,0.8970100076550807,0.013470123691689675,0.0905471757721855
0.4710000000000001,-0.004599999999998779,-1.6289999999998335,0.004198633305061245,0.8970100076550807,0.013352239654501937,0.0905471757721855
0.472,0.0009,1.370999999999889,0.004270173649641893,0.9061598391527379,0.014072994372859592,0.09340689327907732
0.4730000000000001,0.0015999999999985568,-0.6289999999999445,0.004234078222118408,0.9061598391527379,0.013709340132008682,0.09340689327907732
0.474,-0.0049,0.371,0.00417693937353531,0.9042258315007727,0.013133677616553978,0.09280243236171468
0.4750000000000001,0.004199999999998645,0.3709999999999445,0.004198808666259088,0.9100155238090282,0.013354006383632237,0.0946119612538778
0.476,-0.0019,-0.629,0.004204962386628565,0.8950562295706991,0.013416003890322383,0.08993653574084524
0.4770000000000001,0.0013999999999998445,-0.628999999999889,0.00419923775882535,0.8669657163426199,0.013358329405747363,0.08115703718106496
0.478,0.0007,1.370999999999889,0.004225612045049159,0.868982654057907,0.013624045084789082,0.0817874173248079
0.4790000000000001,-0.0017999999999983125,-0.6289999999999445,0.004225571904856307,0.8709949212214594,0.013623640680343403,0.08241633771942147
0.48,0.0058,0.371,0.0042159446007887956,0.8553534668857501,0.013526647509952666,0.07752770771475641
0.4810000000000001,0.0032999999999998447,0.371,0.00419992169763227,0.8573977216283725,0.013365219952962993,0.07816662560931224
0.482,0.0026,0.371,0.0042047645481898795,0.8573977216283725,0.013414010707468838,0.07816662560931224
0.4830000000000001,-0.008299999999996937,0.371,0.004206864113988099,0.8497843564891203,0.013435163414580318,0.07578712019649085
0.484,0.0055,0.371,0.004170952445885043,0.8804151594864347,0.013073360513279038,0.08536056901945575
0.4850000000000001,-0.003499999999999689,-0.629,0.004035961580282955,0.8804151594864346,0.011713354437152199,0.08536056901945573
0.486,-0.0021,0.371,0.0039785772958729525,0.8824013558430065,0.011135219204640685,0.08598134116093918
0.4870000000000001,-0.006399999999997979,-1.629,0.004038372360794717,0.8956190331461409,0.011737642570497973,0.09011243616459014
0.488,0.0027,0.371,0.004034845275771514,0.8956190331461409,0.011702107891605609,0.09011243616459014
0.4890000000000001,-0.001999999999999778,-0.629,0.00400893802370154,0.8956190331461409,0.01144109748861454,0.09011243616459014
0.49,-0.001,-0.629,0.003973636052534251,0.8936622140347974,0.011085437162468558,0.08950084568098808
0.4910000000000001,0.00010000000000104362,-1.629,0.003971872268947155,0.9009048525307609,0.011067667394234797,0.09176448300680098
0.492,0.0048,-0.629,0.003972081329564873,0.9303949442434004,0.01106977363830626,0.10098141028814746
0.4930000000000001,0.005599999999999112,0.371,0.003947725606878238,0.9373538034240732,0.010824394584734413,0.10315635432204141
0.494,0.0016,0.371,0.003941930033906886,0.9354842879779028,0.010766005341725119,0.10257205000428575
0.4950000000000001,0.0008000000000004886,0.371,0.003946915378684256,0.9354842879779028,0.010816231697105319,0.10257205000428575
0.496,0.003,0.371,0.003946543912453655,0.9228377719369054,0.01081248924884083,0.09861946756242457
0.4970000000000001,-0.0023999999999984897,0.371,0.003950265218391856,0.9511187906005053,0.01084998066475633,0.10745850729837363
0.498,0.0044,1.371,0.003951842557943703,0.9511187906005054,0.010865872046481003,0.10745850729837365
0.4990000000000001,-0.009399999999999601,1.371,0.003983194861720212,0.9652095903551062,0.011181740260574205,0.11186249077661106
0.5,-0.0076,1.371,0.0038834522237901543,0.9670216404266887,0.010176853055586165,0.11242883468298746
0.5010000000000001,-0.002099999999999689,0.371,0.003843282842843286,0.9652095903551062,0.009772154545666028,0.11186249077661106
0.502,-0.0007,0.371,0.003768609363066078,0.9670216404266887,0.009019834114431113,0.11242883468298746
0.5030000000000001,0.0006999999999992006,-0.629,0.0036764181188568114,0.9790976216872228,0.008091025696683204,0.11620310036563844
0.504,-0.0029,-0.629,0.0036674262626012347,0.9857127133772151,0.008000434536394693,0.11827060221202865
0.5050000000000001,0.0006999999999987787,0.371,0.0036677068067188213,0.9857127133772151,0.00800326096248536,0.11827060221202865
0.506,-0.0048,-1.629,0.003670174145601783,0.9857127133772151,0.008028118910152596,0.11827060221202865
0.5070000000000001,-0.0001000000000009548,-0.629,0.0036716699147258656,0.9857127133772151,0.008043188486069178,0.11827060221202865
0.508,-0.0044,-0.629,0.003635740086076133,0.9857127133772152,0.007681202620878334,0.11827060221202867
0.5089999999999999,-0.0023,-1.629,0.0037645799237491463,0.973718775403566,0.008979238316115653,0.11452197859982322
0.51,-0.0045,2.371,0.003752564518646184,0.975515019522238,0.008858185503584453,0.11508338246328594
0.5109999999999999,0.0035,1.371,0.0037143388041675942,0.973718775403566,0.00847306904608714,0.11452197859982322
0.512,-0.0031,0.371,0.003730315346479269,0.9857127133772152,0.008634029526801616,0.11827060221202867
0.5129999999999999,0.0013,0.371,0.0037308342190322,0.9857127133772152,0.008639257064395174,0.11827060221202867
0.514,0.002,1.371,0.0037288564709008942,0.979097621687222,0.008619331646007583,0.1162031003656382
0.5149999999999999,0.0056,-0.629,0.0037292682883244437,0.9790976216872217,0.008623480624501679,0.11620310036563809
0.516,0.0019,-0.629,0.003741646200730007,0.9790976216872217,0.008748185625882688,0.11620310036563809
0.5169999999999999,0.0034,-0.629,0.0037551590553250107,0.9808840158416418,0.008884324943702863,0.11676142568987082
0.518,0.0019,0.371,0.0037698813474194197,0.980884015841641,0.009032649103368083,0.11676142568987058
0.5189999999999999,0.0044,0.371,0.0037628277425589855,0.9790976216872198,0.008961585439719423,0.11620310036563751
0.52,0.0015,0.371,0.003737356984186845,0.9879972932623974,0.0087049726237695,0.11898463209282169
0.5209999999999999,0.008,1.371,0.003758770991005315,0.9897676248665012,0.008920714476060356,0.11953793717636947
0.522,0.0036,-0.629,0.0037310721240491696,0.9760314296956707,0.008641653910042296,0.11524478294525993
0.5229999999999999,-0.0019,0.371,0.0037426745853848067,0.9813976008600848,0.008758546396390269,0.11692194318889743
0.524,0.005,-1.629,0.0037547558930418543,0.9813976008600844,0.008880263164023829,0.11692194318889733
0.5249999999999999,0.0024,0.371,0.003728139518559067,0.9813976008600841,0.008612108494005191,0.11692194318889722
0.526,0.0003,-0.629,0.0037077470621713804,0.9831798160631553,0.008406658558776564,0.11747896241035244
0.5269999999999999,-0.0048,-0.629,0.00370826861533401,0.9813976008600832,0.008411913102978764,0.11692194318889694
0.528,0.0002,-0.629,0.003711044198724523,0.981397600860084,0.008439876552646696,0.11692194318889719
0.5289999999999999,-0.0052,0.371,0.0037141724999283587,0.9747532254135073,0.008471393564010356,0.11484528890386445
0.53,0.0031,-0.629,0.0037121069660060397,0.9747532254135076,0.008450583721268251,0.11484528890386454
0.5309999999999999,-0.0046,0.371,0.0036740034750104827,0.9747532254135076,0.008066698641011382,0.11484528890386454
0.532,0.002,-0.629,0.003662574903494978,0.9765475667851969,0.007951558059956423,0.11540609807671916
0.5329999999999999,-0.0006,2.371,0.003665649129143212,0.9765475667851968,0.007982530270871105,0.11540609807671912
0.534,-0.0014,0.371,0.0035734999838071416,0.9765475667851967,0.007054145990883106,0.11540609807671909
0.5349999999999999,-0.005,-0.629,0.003633520122553375,0.9849588064757004,0.0076588369306794845,0.11803497374549567
0.536,-0.0072,-1.629,0.0036375733486382336,0.9849588064757004,0.007699672375942666,0.11803497374549567
0.5369999999999999,-0.0017,0.371,0.003638354362923226,0.9849588064757004,0.00770754093925911,0.11803497374549567
0.538,0.0004,0.371,0.003635446852854926,0.9729555748922889,0.0076782483545967985,0.1142834454788661
0.5389999999999999,-0.0003,0.371,0.0036474637512021292,0.9729555748922889,0.007799316211266221,0.1142834454788661
0.54,0.0,1.371,0.0036505247634397832,0.9729555748922889,0.007830155299701873,0.1142834454788661
0.5409999999999999,0.0004,-2.629,0.0036608311949186136,0.9711545968453902,0.007933990543456155,0.11372056205838314
0.542,-0.0033,1.371,0.0036906559940427268,0.9571513211054081,0.008234469452507828,0.10934393361471033
0.5429999999999999,0.0029,0.371,0.0036656092149209628,0.9571513211054082,0.007982128143034225,0.10934393361471037
0.544,0.0051,0.371,0.0036445269184634923,0.9589785979018928,0.007769728206542347,0.10991503653023203
0.5449999999999999,0.0014,-0.629,0.0036762647035085186,0.9608023995463023,0.008089480067614757,0.11048505331064502
0.546,0.0036,2.371,0.003725899396043153,0.9626227457908858,0.00858953970596666,0.11105399012938022
0.5469999999999999,0.0032,-0.629,0.003739458108510828,0.9626227457908858,0.008726141032717539,0.11105399012938022
0.548,-0.0051,-1.629,0.0037615329120887363,0.9626227457908858,0.00894854028070634,0.11105399012938022
0.5489999999999999,0.001,-0.629,0.0037520315119416356,0.9626227457908858,0.008852815567229359,0.11105399012938022
0.55,-0.0022,0.371,0.0036937661827698078,0.9626227457908858,0.008265803984276811,0.11105399012938022
0.5509999999999999,-0.0015,-0.629,0.00362820279526817,0.9626227457908857,0.007605265917675166,0.11105399012938019
0.552,0.0046,-1.629,0.0036833648284421423,0.9711545968453901,0.008161012411732407,0.1137205620583831
0.5529999999999999,0.0039,1.371,0.0037640926603877776,0.9729555748922888,0.00897432923482945,0.11428344547886607
0.554,0.0032,0.371,0.003776025916271268,0.9729555748922888,0.00909455441034142,0.11428344547886607
0.5549999999999999,0.0069,0.371,0.00377318172563016,0.9796121432658336,0.009065899756292663,0.11636391058016574
0.556,-0.0022,0.371,0.0037726090175018863,0.9932988224668267,0.009060129836003423,0.12064158893220026
0.5569999999999999,0.0014,-0.629,0.0037806859004049535,0.9813976008600859,0.0091415028220595,0.11692194318889777
0.558,-0.0098,-0.629,0.0038095809235838066,0.9813976008600859,0.00943261442370596,0.11692194318889777
0.5589999999999999,0.004,-0.629,0.003788959046039655,0.9796121432658337,0.009224853116034517,0.11636391058016576
0.56,0.0022,0.371,0.003836105839662616,0.9675425838141846,0.009699847668526175,0.1125916519901371
0.5609999999999999,0.0037,-1.629,0.003846720559500461,0.9765475667851967,0.009806788856075901,0.11540609807671909
0.562,-0.0007,-0.629,0.00383066174189525,0.9680632468667223,0.009644999468171114,0.11275438168050517
0.563,0.0004,-0.628999999999889,0.00382524583178146,0.9680632468667223,0.009590435252809882,0.11275438168050517
0.5640000000000001,-0.0006,0.370999999999889,0.003853197509664726,0.9950597220539259,0.009872042838550067,0.12119194610308319
0.565,-0.0039,-0.629,0.003945400529430217,0.9867345895397042,0.01080096989268084,0.1185899826457004
0.5660000000000001,-0.0032,-0.629,0.0039067289448445315,0.9867345895397042,0.010411361382687175,0.1185899826457004
0.567,0.0052,-0.628999999999889,0.003910130940250182,0.9932988224668265,0.010445635808604838,0.12064158893220021
0.5680000000000001,-0.0024,0.37099999999966693,0.003897753314220392,0.9915347956445766,0.010320933692402688,0.12009025436527332
0.569,-0.0017,-2.628999999999778,0.003990907223502177,1.0179089603170945,0.011259440768960294,0.12833331987560087
0.5700000000000001,0.0045,-0.628999999999889,0.0040117645648405685,1.0196273590061617,0.011469574327446233,0.1288703936803156
0.571,0.0005,0.37099999999977795,0.004026717122488018,1.0196273590061617,0.011620218366681534,0.1288703936803156
0.5720000000000001,-0.0031,-1.628999999999889,0.003949032894587557,1.0247652660263404,0.010837565247949215,0.13047621152058395
0.573,0.0034,-0.628999999999889,0.003981268239560843,1.023055497377334,0.011162329926167829,0.1299418349761033
0.5740000000000001,-0.002,0.370999999999889,0.003980952960962926,1.0247652660263407,0.011159153557108132,0.13047621152058403
0.575,0.0016,-0.628999999999889,0.003976904271060426,1.0132337098192028,0.01111836381297845,0.12687210217980516
0.5760000000000001,-0.002,0.370999999999889,0.003971037925562237,1.0149600240669758,0.011059261550861595,0.12741164993847345
0.577,0.002,-0.629,0.003970921000470356,1.021342866511502,0.011058083553856384,0.12940656386525093
0.5780000000000001,-0.0017,-0.629,0.0039427781746819,1.021342866511502,0.010774550191054633,0.12940656386525093
0.579,-0.0013,-0.629,0.0039783966075268955,1.0276860666048888,0.01113339880555348,0.13138908784521935
0.5800000000000001,-0.0024,0.371,0.003970246650146848,1.040740722261761,0.011051289608700773,0.13546923154381757
0.581,0.0016,-0.629,0.003992221648149954,1.0390572415578847,0.011272683335408134,0.13494307111751658
0.5820000000000001,0.003,0.371,0.003967895507160386,1.040740722261761,0.011027602311540555,0.13546923154381757
0.583,-0.0014,0.371,0.0039780555940600835,1.040740722261761,0.01112996316281694,0.13546923154381757
0.5840000000000001,-0.0086,1.371,0.0039922690856459275,1.016683407061455,0.011273161258728893,0.1279502815538921
0.585,-0.0039,-0.629,0.004122780449037779,1.0184038736837857,0.012588037242558203,0.12848800167706179
0.5860000000000001,0.0022,0.371,0.004118136380117261,1.016683407061455,0.012541249173441932,0.1279502815538921
0.587,0.0062,-0.629,0.004178494321132434,1.0050591278397687,0.013149343403796065,0.12431719226653568
0.5880000000000001,0.004,0.371,0.004202785358989869,1.018403873683786,0.013394070770601157,0.12848800167706187
0.589,-0.0025,-0.629,0.004203731036088012,1.0264721867610873,0.013403598278953613,0.1310096979688625
0.5900000000000001,0.0029,0.371,0.004204427227700789,1.0264721867610873,0.01341061227074707,0.1310096979688625
0.591,-0.0047,0.371,0.004210801330521937,1.018403873683786,0.013474830086730056,0.12848800167706187
0.5920000000000001,-0.0022,-0.629,0.004215749518874806,0.9849588064757004,0.01352468209853624,0.11803497374549567
0.593,0.004,-0.629,0.004204091285639115,0.9765475667851967,0.013407227721406895,0.11540609807671909
0.5940000000000001,-0.005099999999997514,-0.629,0.004226277684923262,0.9765475667851967,0.013630751273902356,0.11540609807671909
0.595,0.0061,-0.629,0.004202544395817203,0.9765475667851967,0.01339164311464468,0.11540609807671909
0.5960000000000001,-0.004399999999997979,0.371,0.0042065388124844574,0.9747532254135075,0.013431886066742359,0.11484528890386451
0.597,0.0047,0.371,0.004242868532964078,0.9471781511068234,0.013797900762447139,0.10622688726784989
0.5980000000000001,0.0034999999999977354,1.371,0.0044007380126159755,0.9453280648505514,0.01538840431692055,0.10564865541104736
0.599,-0.0067,1.371,0.004387898896208717,0.9453280648505513,0.01525905277711013,0.10564865541104732
0.6000000000000001,-0.003100000000000799,1.371,0.004389953140635894,0.9521777936467455,0.015279748880437932,0.10778949148665733
0.601,-0.0067,1.371,0.004395576494175834,0.9662531501599817,0.015336403046987773,0.112188648285004
0.6020000000000001,-0.007799999999998956,-0.629,0.004448238333300092,0.9662531501599818,0.015866960584118617,0.11218864828500402
0.603,-0.0031,-0.629,0.00442448691237829,0.9540145965623568,0.01562766975042982,0.10836357172582113
0.6040000000000001,-0.0024999999999995117,1.371,0.004444036813759977,0.9453280648505514,0.01582463111183888,0.10564865541104736
0.605,-0.0003,-1.629,0.004481016865875857,0.9471781511068236,0.01619719776921059,0.10622688726784996
0.6060000000000001,-0.005399999999999845,-0.629,0.004452370691411441,0.9490246306994315,0.015908593268782877,0.10680399188649256
0.607,-0.0047,-0.629,0.004484467331271942,0.9576776336190276,0.016231960520624998,0.10950842900565597
0.6080000000000001,-0.001899999999998157,0.371,0.004482973825913952,0.9644396562014838,0.016216913751700784,0.11162185310160777
0.609,0.0064,-0.629,0.004383754677634187,0.9626227457908857,0.015217300600642336,0.11105399012938019
0.6100000000000001,0.005299999999998779,-2.629,0.0044699782632088535,0.9608023995463022,0.0160859860466091,0.110485053310645
0.611,-0.0002,0.371,0.004600789860581126,0.9608023995463022,0.01740388682797424,0.110485053310645
0.6120000000000001,0.002300000000000555,0.371,0.004593031859933161,0.9484935167062978,0.017325726517106028,0.1066379958258319
0.613,0.0048,2.371,0.0045931916477316495,0.9466460011502864,0.017327336347340582,0.10606056742388445
0.6140000000000001,0.008699999999997824,0.371,0.004593561360589368,0.9466460011502873,0.0173310611307226,0.10606056742388473
0.615,-0.0011,-0.629,0.004621594825052165,0.9466460011502876,0.01761349269995687,0.10606056742388484
0.6160000000000001,0.002499999999999756,1.371,0.004607324881770451,0.944794872844777,0.017469725864456144,0.10548200988169108
0.617,0.0014,0.371,0.004596398048438625,0.944794872844777,0.01735964019563828,0.10548200988169108
0.6180000000000001,-0.008799999999996715,2.371,0.004568510155147606,0.9429401105127132,0.0170786752269569,0.10490231654925271
0.619,0.006,-0.629,0.00457505737064634,0.9429401105127143,0.017144637118676566,0.10490231654925306
0.6200000000000001,-0.003799999999998823,0.371,0.004611369185994593,0.9047829313120278,0.017510471423750142,0.09297655011281646
0.621,0.0015,-1.629,0.004589615646253865,0.9047829313120287,0.017291308844914147,0.09297655011281673
0.6220000000000001,0.006199999999999023,0.371,0.004630800955687483,0.9067157506813482,0.017706242631930463,0.09358063964053294
0.623,0.0018,-0.629,0.004620520993550832,0.8917011007358577,0.01760267406152504,0.08888791307830442
0.6240000000000001,-0.0046999999999992005,-0.629,0.004639222428138879,0.8897356648541688,0.017791087289031882,0.08827362948182743
0.625,-0.0011,-0.629,0.004721242843563203,0.8917011007358591,0.018617426633149723,0.08888791307830483
0.6260000000000001,-0.00010000000000015544,1.371,0.00473443402547612,0.88973566485417,0.01875032516278612,0.0882736294818278
0.627,-0.0008,-0.629,0.004736278805909645,0.8917011007358603,0.01876891095811029,0.08888791307830521
0.6280000000000001,0.005299999999999822,1.371,0.004747348279993372,0.8897356648541704,0.01888043370408463,0.08827362948182794
0.629,0.0045,-1.629,0.004747463418807118,0.8897356648541704,0.01888159370469351,0.08827362948182794
0.6300000000000001,0.0051999999999985565,0.371,0.004791179893694203,0.8877658776802816,0.019322028479358464,0.08765798591861444
0.631,-0.0013,-0.629,0.004796500327490454,0.8897356648541704,0.019375630789842644,0.08827362948182794
0.6320000000000001,-0.003499999999998468,-0.629,0.004794264892506717,0.9028459741581311,0.019353109227756883,0.0923711673487168
0.633,0.0034,-0.629,0.004786769380539849,0.9028459741581311,0.019277593438053967,0.0923711673487168
0.6340000000000001,-0.010399999999998712,-0.629,0.004785464291058721,0.9028459741581311,0.019264444921550224,0.0923711673487168
0.635,-0.0046,0.371,0.004709881478125193,0.8936622140348089,0.01850296313993576,0.08950084568099169
0.6359999999999999,-0.0101,-0.629,0.004706751762337153,0.8917011007358602,0.018471431876918076,0.08888791307830518
0.637,0.0048,-1.629,0.004701815132646756,0.8917011007358602,0.01842169631633342,0.08888791307830518
0.6379999999999999,-0.001,1.371,0.004670292991597944,0.8917011007358603,0.01810411702555918,0.08888791307830521
0.639,0.0008,0.371,0.004668353954978623,0.9009048525307691,0.018084581617942175,0.09176448300680355
0.6399999999999999,0.0023,0.371,0.004704333976564773,0.9009048525307691,0.01844707316696727,0.09176448300680355
0.641,-0.0021,-0.629,0.004695323354404238,0.9028459741581278,0.018356292943925115,0.09237116734871578
0.6419999999999999,-0.001,0.371,0.004682282496904494,0.9047829313120299,0.018224908902801658,0.09297655011281711
0.643,0.0052,0.371,0.004677436904063597,0.9028459741581266,0.018176090520338042,0.09237116734871541
0.6439999999999999,-0.0025,0.371,0.004668664707243883,0.9028459741581257,0.018087712385102147,0.09237116734871513
0.645,0.0023,0.371,0.004640951873036072,0.9009048525307662,0.017808511101806316,0.09176448300680265
0.6459999999999999,0.0066,0.371,0.004600729523919456,0.9138549409252728,0.01740327894812905,0.09581194491984979
0.647,0.0121,0.371,0.004618722517661755,0.9285114175569573,0.01758455477526072,0.10039272685268764
0.6479999999999999,0.0038,-1.629,0.004610137160840925,0.928511417556957,0.01749805901578864,0.10039272685268753
0.649,-0.0017,1.371,0.004655637432480583,0.921485785030748,0.01795646518734222,0.09819691326449931
0.6499999999999999,0.0031,-1.629,0.004619818283277043,0.9144061742430629,0.01759559439552062,0.09598422913838105
0.651,-0.007,-0.629,0.00461036097816918,0.9144061742430614,0.017500313930778718,0.09598422913838056
0.6519999999999999,-0.0005,-0.629,0.004647356342104701,0.9053396883125601,0.017873034851682675,0.093150560720762
0.653,0.0057,0.371,0.004583504221935935,0.9053396883125592,0.017229737462516517,0.09315056072076172
0.6539999999999999,-0.0066,-0.629,0.004602768699245628,0.9034039248829003,0.017423823233266505,0.0925455510470411
0.655,0.0047,-0.629,0.0046935421727166415,0.8961814832799956,0.018338347893295113,0.09028822612257457
0.6559999999999999,-0.0058,1.371,0.004693640719319562,0.8829722256299352,0.01833934073068567,0.08615976262413809
0.657,0.0008,1.371,0.004665123985312225,0.8809873163070108,0.01805204031707405,0.08553939273625404
0.6579999999999999,-0.0028,0.371,0.004682563346586582,0.8789979247721675,0.018227738407393796,0.0849176219635671
0.659,0.0096,0.371,0.004678878805154125,0.8789979247721674,0.01819061738654892,0.08491762196356707
0.6599999999999999,0.0111,0.371,0.00463579233579105,0.8770040205231244,0.017756529792019648,0.08429444077279714
0.661,-0.0026,-0.629,0.004615740807503696,0.8358421817505794,0.01755451463947729,0.07142958845460481
0.6619999999999999,-0.0008,0.371,0.004631452185311462,0.8379340382951518,0.017712803640644755,0.07208338396810157
0.663,0.0007,-0.629,0.004664615635493441,0.8379340382951517,0.018046918793930534,0.07208338396810154
0.6639999999999999,0.0051,0.371,0.004649479569010142,0.8379340382951517,0.017894425939735302,0.07208338396810154
0.665,-0.0014,0.371,0.004598676615002816,0.8400206856224868,0.017382596299803828,0.07273555137623545
0.6659999999999999,-0.0003,-0.629,0.004617314987647757,0.8400206856224868,0.017570374190797985,0.07273555137623545
0.667,-0.0013,0.371,0.004611728544338047,0.8322483714335385,0.017514091887463924,0.07030636752067593
0.6679999999999999,0.0034,0.371,0.004613402117621645,0.8322483714335385,0.01753095280486293,0.07030636752067593
0.669,0.006,0.371,0.004572393567717963,0.7997749378630722,0.017117799834894157,0.06015701706388028
0.6699999999999999,0.0006,-0.629,0.004551912045947437,0.7975830060212097,0.0169114525836783,0.059471943697917994
0.671,-0.0062,-0.629,0.004540941519632172,0.7975830060212097,0.016800926716757432,0.059471943697917994
0.6719999999999999,0.0,0.371,0.004547768687465251,0.7804716855938624,0.016869709072469517,0.05412391705888648
0.673,-0.0054,0.371,0.004581198015764495,0.7804716855938624,0.017206502894814686,0.05412391705888648
0.6739999999999999,-0.009,-0.629,0.004580001549329222,0.7782253865517834,0.017194448733856497,0.05342185159484025
0.675,-0.0039,0.371,0.004560446083553705,0.7782253865517835,0.016997431312288216,0.05342185159484029
0.6759999999999999,-0.0024,-0.629,0.004562266493705143,0.7782253865517835,0.01701577158187577,0.05342185159484029
0.677,0.0038,0.371,0.00458832564104368,0.7698294302985415,0.017278312299434852,0.050797752660270645
0.6779999999999999,0.0017,-0.629,0.004607614004377305,0.7698294302985416,0.017472638717117052,0.05079775266027068
0.679,-0.0066,0.371,0.004590854511489927,0.7613408902941449,0.017303790165342992,0.04814471730494855
0.6799999999999999,-0.0033,-0.629,0.004572196080582793,0.74339582441239,0.017115810191353532,0.04253610920352933
0.681,-0.0007,-1.629,0.0045542006923177504,0.7433958244123899,0.016934510239882294,0.04253610920352929
0.6819999999999999,-0.0014,0.371,0.004555623837959635,0.7410371461767115,0.016948848148684813,0.041798920388038924
0.683,0.0008,0.371,0.004552958454517136,0.7386709363943277,0.016921994941537514,0.041059377638929924
0.6839999999999999,-0.0014,0.371,0.004574728195978784,0.7386709363943277,0.017141320749483834,0.041059377638929924
0.685,-0.0035,0.371,0.004465517511483737,0.7386709363943277,0.016041044861713417,0.041059377638929924
0.6859999999999999,0.0005,0.371,0.00445887561167082,0.7410371461767116,0.015974129044392715,0.04179892038803896
0.687,0.003,-0.629,0.004344119756568069,0.7386709363943277,0.014817986667538006,0.041059377638929924
0.688,-0.0038,1.370999999999778,0.004320001781436969,0.7675519865219065,0.01457500287322071,0.050085953121593633
0.6890000000000001,0.0063,-0.629,0.0043348387062698245,0.7567280566714683,0.014724481934886997,0.04670300757832407
0.69,-0.0002,-0.629,0.004334070763245652,0.7590379776360527,0.014716745061919072,0.04742495764086348
0.6910000000000001,0.0031,-0.628999999999889,0.004342691828835298,0.7613408902941448,0.01480360058012256,0.048144717304948514
0.692,-0.0005,0.370999999999889,0.004337804053423315,0.7590379776360529,0.014754357216659473,0.04742495764086351
0.6930000000000001,0.0028,-0.628999999999889,0.004370377767920075,0.7590379776360527,0.015082530900412255,0.04742495764086348
0.694,0.0002,0.37099999999977795,0.004363623369736927,0.7590379776360527,0.015014481684425018,0.04742495764086348
0.6950000000000001,-0.0005,-1.629,0.004356983552133532,0.7613408902941448,0.014947586844950395,0.048144717304948514
0.696,-0.006,-1.628999999999778,0.004403890619007218,0.7788726152035294,0.015420166198204903,0.05362413850108916
0.6970000000000001,-0.0038,0.370999999999889,0.004354806662354061,0.7788726152035294,0.014925655114133393,0.05362413850108916
0.698,-0.0074,-0.629,0.00422039702924732,0.7811170529786411,0.013571504839595712,0.054325622238823534
0.6990000000000001,-0.0034,-0.628999999999778,0.004205169110184209,0.763636858050954,0.01341808658895907,0.048862306387445584
0.7,-0.0009,1.370999999999889,0.004210359332593189,0.7550787048076758,0.013470377045659081,0.04618751388850917
0.7010000000000001,-0.0089,0.370999999999889,0.0041992185019942676,0.7369811740973666,0.013358135397010825,0.040531253943499844
0.702,-0.0013,-0.628999999999889,0.004140791118189805,0.7346018998300242,0.012769491145921326,0.03978762797861094
0.7030000000000001,0.0052,0.370999999999889,0.004213039742741775,0.7433958244123899,0.013497381643876373,0.04253610920352929
0.704,0.0095,-0.629,0.004181069576811071,0.7457470425645877,0.013175288591679006,0.04327096642074507
0.7050000000000001,0.0004,-0.629,0.004245560238454834,0.7433958244123899,0.013825019158986375,0.04253610920352929
0.706,0.0015,0.371,0.004221337290124181,0.7410371461767115,0.013580977780597848,0.041798920388038924
0.7070000000000001,-0.0062,0.371,0.004220413033988602,0.72982008176932,0.013571666084175437,0.03829310331698536
0.708,0.0003,0.371,0.004244797758797645,0.7208605629619926,0.013817337328352322,0.03549286674506589
0.7090000000000001,0.001,0.371,0.004286523787110091,0.7208605629619926,0.014237718750343064,0.03549286674506589
0.71,0.0031,0.371,0.004208094533488463,0.7682082077497201,0.01344755964590469,0.050291050596235995
0.7110000000000001,0.0038,-0.629,0.004060977764851062,0.7704837118291918,0.011965387512593196,0.051002243895777656
0.712,0.006,0.371,0.0040588032445464115,0.7682082077497201,0.011943479653762929,0.050291050596235995
0.7130000000000001,0.003,2.371,0.004072399075219727,0.7788726152035292,0.012080454939040416,0.05362413850108912
0.714,-0.0054,-0.629,0.004151868686745484,0.7766216910271906,0.012881095442087882,0.052920627482835964
0.7150000000000001,-0.0043,-0.629,0.004158325908322254,0.793816005415636,0.012946150662973652,0.05829459331906246
0.716,-0.0011,-0.629,0.0042288807606976125,0.8041408774051877,0.013656976743706889,0.0615215617274422
0.7170000000000001,-0.0019,0.371,0.004345784659395228,0.8041408774051877,0.014834760231815836,0.0615215617274422
0.718,-0.0063,0.371,0.004344594926305711,0.8063149821589806,0.014822773907974627,0.0622010633584646
0.7190000000000001,-0.004199999999999533,0.371,0.004331736017731297,0.8084832405152806,0.014693222966023399,0.06287873773777568
0.72,-0.0021,0.371,0.00429943894707718,0.8084832405152806,0.014367836413868284,0.06287873773777568
0.7210000000000001,0.002900000000001199,0.371,0.004302697244052998,0.8063149821589806,0.014400663106735047,0.0622010633584646
0.722,0.0083,0.371,0.004385963203225951,0.8063149821589806,0.015239551055965255,0.0622010633584646
0.7230000000000001,-0.0014999999999992229,0.371,0.0044068345347395045,0.8084832405152806,0.015449825562678625,0.06287873773777568
0.724,0.002,-0.629,0.004415933145054139,0.818623143121447,0.015541492248843072,0.06604789522537055
0.7250000000000001,-0.0017000000000007105,-0.629,0.004579148848187978,0.8164818128494872,0.017185857939745804,0.0653786370353887
0.726,-0.0049,-0.629,0.004562684939366827,0.818623143121447,0.017019987338548495,0.06604789522537055
0.7270000000000001,-0.004299999999999845,-0.629,0.004559317931302479,0.8164818128494872,0.01698606540312377,0.0653786370353887
0.728,-0.0036,-0.629,0.004543357112964473,0.8164818128494872,0.016825263338311254,0.0653786370353887
0.7290000000000001,0.0017999999999988676,0.371,0.004606902996987383,0.814334851872332,0.017465475459320663,0.06470761900685383
0.73,-0.0033,0.371,0.004573150198074543,0.8164818128494872,0.017125422734989956,0.0653786370353887
0.7310000000000001,0.0017000000000003109,0.371,0.004561351954011704,0.814334851872332,0.017006557776672065,0.06470761900685383
0.732,0.0031,0.371,0.0046983532615185565,0.7975830060212097,0.01838681865444037,0.059471943697917994
0.7330000000000001,0.005599999999999422,-0.629,0.0047107413257287305,0.7975830060212097,0.018511625933230243,0.059471943697917994
0.734,0.003,-0.629,0.0047171167694443124,0.8078597351977489,0.018575857258457496,0.06268386539803453
0.7350000000000001,-0.0038999999999989564,-0.629,0.004716406943405637,0.8078597351977488,0.01856870590253955,0.0626838653980345
0.736,0.0008,0.371,0.0047035220665720195,0.8100238585954298,0.018438893335550616,0.06336024742419609
0.7370000000000001,0.0015000000000004886,-2.629,0.004710331524434564,0.8265235937188563,0.018507497266838004,0.06851712724254266
0.738,0.0037,0.371,0.0047280776887620906,0.8244027845864429,0.018686286336792732,0.06785428279493819
0.7390000000000001,-7.993605777300232e-16,-0.629,0.0047130954881988004,0.8143348518723357,0.018535343651086222,0.06470761900685498
0.74,-0.0036,-0.629,0.004687817141142166,0.8143348518723357,0.018280669340805085,0.06470761900685498
0.7410000000000001,0.0003000000000011324,0.371,0.004694357252776223,0.8121822155365672,0.018346559662503474,0.06403482718364549
0.742,0.0054,0.371,0.004686456610231674,0.8265235937188607,0.018266962262946333,0.06851712724254405
0.7430000000000001,0.004599999999999112,0.371,0.004781850156217022,0.8265235937188612,0.019228033233079825,0.06851712724254419
0.744,0.0006,-0.629,0.004774855422505994,0.8265235937188621,0.019157562684532285,0.06851712724254447
0.7450000000000001,0.00679999999999829,-1.629,0.004793985543909891,0.826523593718863,0.019350294846299687,0.06851712724254475
0.746,-0.0009,0.371,0.0047966979842789335,0.8100238585954367,0.01937762214260656,0.06336024742419824
0.7470000000000001,0.005599999999999045,-0.629,0.004759926259418,0.8035140025374115,0.019007154340822497,0.06132563625772517
0.748,0.0013,0.371,0.004747283658500849,0.8035140025374119,0.018879782655422277,0.06132563625772531
0.7490000000000001,-0.002699999999999534,-0.629,0.004738321966232869,0.811561552067117,0.018789495391299104,0.06384084304416385
0.75,-0.0006,0.371,0.004739046623754153,0.8195300807862312,0.018796796171449384,0.06633135241453376
0.7510000000000001,0.00019999999999822365,0.371,0.004844337392641156,0.8094015400612614,0.019857579690450513,0.06316574600551092
0.752,-0.0078,1.371,0.0047779925127825,0.8094015400612619,0.019189168244052004,0.06316574600551106
0.7530000000000001,0.0023999999999972685,-0.629,0.004776281252415485,0.8173911264342425,0.019171927636796135,0.06566283680215437
0.754,-0.0099,0.371,0.004748415298299742,0.8195300807862348,0.018891183700934632,0.06633135241453487
0.7550000000000001,0.001300000000000977,0.371,0.004707226168249859,0.8491911764104338,0.018476211421970642,0.07560172580357842
0.756,0.0057,0.371,0.004751490250729291,0.8471271181784257,0.018922163234026262,0.07495661846331436
0.7570000000000001,0.004599999999997513,-0.629,0.004782963991688303,0.8491911764104338,0.019239254903538724,0.07560172580357842
0.758,-0.0066,0.371,0.004742904342950086,0.8512502298580533,0.018835661923758323,0.07624526893257386
0.7590000000000001,-0.005099999999999179,-2.629,0.004749299033166344,0.8818301164925615,0.018900087153645325,0.08580280419318066
0.76,-0.0014,-0.629,0.004749523498205273,0.8911358227639782,0.018902348594191397,0.08871123929880824
0.7610000000000001,0.0022000000000002664,0.371,0.004748056891597539,0.8930981773317447,0.018887572824816855,0.08932455985160835
0.762,0.0034,1.371,0.004763222241033119,0.8930981773317447,0.019040360698922138,0.08932455985160835
0.7629999999999999,0.0081,0.371,0.004725572116509322,0.90228767841151,0.01866104319554209,0.09219667581616298
0.764,0.0056,-1.629,0.004721141239125992,0.8724251567288371,0.018616402988687913,0.0828633480846368
0.7649999999999999,0.0078,1.371,0.004704260666779835,0.8724251567288354,0.018446334585489846,0.08286334808463625
0.766,0.01,-0.629,0.00471149219493734,0.8798426305955094,0.018519190790908063,0.08518162901460434
0.7669999999999999,-0.0008,-0.629,0.004741281333664885,0.8778506449693899,0.018819310428569082,0.0845590474763597
0.768,0.0007,-0.629,0.004885098348807377,0.8778506449693907,0.020268238202843538,0.08455904747635995
0.7689999999999999,-0.0029,0.371,0.004848174979780448,0.9075346579569624,0.019896242616299787,0.09383658353121492
0.77,-0.0018,0.371,0.004845139102245887,0.9075346579569624,0.019865656754990104,0.09383658353121492
0.7709999999999999,0.0105,-0.629,0.004843246193201261,0.9075346579569624,0.019846586073497957,0.09383658353121492
0.772,-0.0043,-0.629,0.004844491510478372,0.9075346579569621,0.019859132396954894,0.09383658353121482
0.7729999999999999,-0.0061,1.371,0.0047938998904299346,0.9094616292802631,0.01934943190455424,0.09443884529198422
0.774,-0.0151,0.371,0.004792478257136596,0.9094616292802626,0.019335109232362008,0.09443884529198408
0.7749999999999999,-0.0002,-0.629,0.004881880719847986,0.9094616292802611,0.02023582123213981,0.0944388452919836
0.776,0.0016,0.371,0.004896307207461768,0.9165794322659641,0.02038116522059712,0.09666346612943107
0.7769999999999999,-0.0002,0.371,0.004883160949889275,0.9165794322659632,0.020248719294740026,0.09666346612943079
0.778,0.0078,0.371,0.004925151702317186,0.9146674564632452,0.02067176775945195,0.0960658911164717
0.7789999999999999,0.0035,-0.629,0.00493343670833477,0.9146674564632452,0.020755237544421518,0.0960658911164717
0.78,-0.0001,0.371,0.0049498316888502885,0.9165794322659603,0.020920413706672462,0.09666346612942989
0.7809999999999999,-0.0113,0.371,0.0049390078310350026,0.9450477533822672,0.020811365495667478,0.1055610459710877
0.782,-0.0037,0.371,0.005040637996168182,0.9468983873219569,0.021835269161166758,0.10613944900261169
0.7829999999999999,-0.0026,1.371,0.005044702600731792,0.9487454114002203,0.021876219242336375,0.10671672379653692
0.784,0.0011,0.371,0.005035477628557851,0.9468983873219561,0.021783279485615033,0.10613944900261145
0.7849999999999999,-0.0,-0.629,0.005034703356417209,0.9450477533822664,0.021775478848059655,0.10556104597108745
0.786,-0.0026,-1.629,0.005158455738065017,0.9450477533822664,0.023022259437438908,0.10556104597108745
0.7869999999999999,-0.0051,0.371,0.005161367967006233,0.9468983873219561,0.023051599563805685,0.10613944900261145
0.788,0.0004,0.371,0.005171574176090337,0.9089073972043384,0.023154425086900837,0.09426562383202525
0.7889999999999999,0.004,-0.629,0.0051822275228203315,0.9468983873219561,0.02326175543269317,0.10613944900261145
0.79,-0.0025,0.371,0.005182678556817077,0.9468983873219561,0.02326629951034893,0.10613944900261145
0.7909999999999999,0.0015,-1.629,0.005187989200866415,0.9450477533822664,0.02331980319108342,0.10556104597108745
0.792,0.0095,0.371,0.005191430092509684,0.9450477533822664,0.023354469488845626,0.10556104597108745
0.7929999999999999,0.0011,-0.629,0.0051646967109669605,0.9592277392011624,0.023085135996009955,0.10999290394619414
0.794,-0.0043,0.371,0.005178714496661184,0.9610510680463475,0.023226362394055157,0.11056277295643019
0.7949999999999999,-0.0017,0.371,0.005181085244023217,0.9610510680463475,0.02325024720139339,0.11056277295643019
0.796,0.0008,1.371,0.005149974371537298,0.9468983873219561,0.022936811359451487,0.10613944900261145
0.7969999999999999,0.0015,0.371,0.005158442463473514,0.983422826221294,0.023022125698574265,0.11755491357991874
0.798,-0.0068,1.371,0.005141722105817652,0.983422826221294,0.022853671426460654,0.11755491357991874
0.7989999999999999,-0.0035,1.371,0.005183313026232451,0.9970571972626151,0.02327269166330074,0.12181624337296554
0.8,-0.0101,0.371,0.005185538092969126,1.0301095349977523,0.023295108767363067,0.13214652638299407
0.8009999999999999,-0.0039,0.371,0.005192150815286366,1.0301095349977525,0.023361730627227975,0.13214652638299415
0.802,0.0001,1.371,0.005192331365937066,1.0301095349977525,0.023363549639061894,0.13214652638299415
0.8029999999999999,0.0008,-0.629,0.005134253184596949,1.0237813504715692,0.022778423533227562,0.13016869541627066
0.804,-0.0072,2.371,0.005153037139041911,1.0220699358817564,0.02296766813185204,0.12963380444420297
0.8049999999999999,-0.0065,0.371,0.0050575039639556806,1.0220699358817564,0.022005190426346067,0.12963380444420297
0.806,-0.0057,-0.629,0.005071463517196514,1.035195417934914,0.022145830144025276,0.13373608445049814
0.8069999999999999,-0.0003,-0.629,0.005055125675547283,1.0351954179349143,0.02198122964446815,0.13373608445049823
0.808,-0.0025,2.371,0.005045583192530497,1.035195417934914,0.02188509102926421,0.13373608445049814
0.8089999999999999,0.0011,1.371,0.005037303738003795,1.035195417934914,0.021801677174459237,0.13373608445049814
0.81,-0.0029,-0.629,0.0050156367344861025,1.0005626687485825,0.021583386430829337,0.1229118546069973
0.8109999999999999,-0.0054,-0.629,0.0050314225078208685,1.0070367692458808,0.021742424952109186,0.12493529061652835
0.812,-0.0007,1.371,0.005067323050893507,1.0087736883727854,0.022104115770945496,0.12547815285792985
0.813,0.0022,0.370999999999889,0.005164004822377298,1.002310807002168,0.02307816535631706,0.1234582233100194
0.8140000000000001,0.0036,-0.628999999999778,0.005104639923143268,1.0040559016177284,0.022480075824059927,0.12400364074470971
0.815,0.005,1.370999999999889,0.005075539182697546,0.9922837063226109,0.0221868916619357,0.12032432129619125
0.8160000000000001,0.0054,0.371,0.005018655291461059,0.9839350860566919,0.021613797790951857,0.11771501690201162
0.817,0.0119,0.37100000000022204,0.004939008656946686,0.9839350860566919,0.02081137381656314,0.11771501690201162
0.8180000000000001,-0.0019,2.370999999999778,0.004993760417368436,1.0087736883727854,0.021362986894382152,0.12547815285792985
0.819,0.0038,0.371,0.004993481477210498,1.0087736883727854,0.021360176627865383,0.12547815285792985
0.8200000000000001,-0.0016,0.371,0.004988705122467875,1.0087736883727854,0.021312055805447275,0.12547815285792985
0.821,0.0031,0.370999999999889,0.004993848727151741,1.0105076219867346,0.021363876597854613,0.12602008199759415
0.8220000000000001,0.0045,-0.628999999999889,0.00489809788000695,1.0105076219867346,0.02039920588972639,0.12602008199759415
0.823,0.0009,0.370999999999889,0.004931929682043254,1.0169184109913545,0.02074005455478586,0.12802373043135987
0.8240000000000001,0.0095,-0.628999999999778,0.004898010072893096,1.0169184109913545,0.0203983212505485,0.12802373043135987
0.825,0.0041,1.370999999999778,0.004692496809741608,1.0169184109913547,0.018327816069593838,0.12802373043135992
0.8260000000000001,0.0033,-0.628999999999889,0.004697085840350242,1.015195426936671,0.0183740496386834,0.1274852235018568
0.827,0.0077,0.370999999999889,0.004716632471406162,1.015195426936671,0.01857097805221192,0.1274852235018568
0.8280000000000001,-0.0046,-0.629,0.004720767215832175,1.049345345486073,0.018612634778520983,0.1381585479187774
0.829,0.0044,-0.6289999999996669,0.004663342897675531,1.0621338209347209,0.018034096213988153,0.142155498806487
0.8300000000000001,-0.0003,2.370999999999667,0.004655833023044252,1.0604843015496919,0.01795843572330283,0.14163995275905075
0.831,0.0102,-0.629,0.004658629385253483,1.0604843015496919,0.01798660851542949,0.14163995275905075
0.8320000000000001,0.0037,-0.628999999999889,0.004524400974036479,1.0851840186591553,0.016634284015325282,0.14935968108970832
0.833,0.0047,0.371,0.004512159061781537,1.0867960499069205,0.016510949188365893,0.14986351047520807
0.8340000000000001,-0.0029,0.371,0.004506583783224047,1.0916178604774849,0.016454779367686048,0.15137053452336563
0.835,-0.0119,-0.629,0.0045109870509526225,1.0932204046090128,0.016499141412769362,0.15187139877531067
0.8360000000000001,0.0019,-0.629,0.0045306461596302154,1.1039167327264976,0.016697203015926834,0.15521446326615537
0.837,-0.0036,0.371,0.004527620516914789,1.0991488768922022,0.016666720268380803,0.15372430240328464
0.8380000000000001,-0.005,-2.629,0.004500818745608472,1.0991488768922024,0.016396697762302515,0.1537243024032847
0.839,-0.0007,-0.629,0.004513329984079132,1.0991488768922024,0.016522745997226248,0.1537243024032847
0.8400000000000001,-0.0043,0.371,0.004498330341307193,1.1292169202830313,0.01637162758474268,0.16312186454470254
0.841,0.0019,0.371,0.004495989631898939,1.13076617954091,0.01634804540380419,0.16360607497235952
0.8420000000000001,-0.0013,-1.629,0.004493855069761282,1.1187625097908143,0.016326540115545348,0.15985440975971754
0.843,-0.006,-0.629,0.004411828232040203,1.126112007561144,0.015500136068067239,0.1621514452238193
0.8439999999999999,-0.0017,-0.629,0.004472332056532923,1.1318682141014853,0.016109700045392673,0.16395050836732245
0.8450000000000002,-0.003799999999999689,0.371,0.004465631198643292,1.1318682141014853,0.01604219023719555,0.16395050836732245
0.8460000000000001,-0.0031,-2.629,0.004467007016376839,1.1334138493213048,0.01605605132675092,0.1644335861265706
0.847,-0.0038,-0.629,0.004534137452064057,1.1334138493213048,0.01673237709161249,0.1644335861265706
0.8479999999999999,-0.0067,-1.629,0.004531860474774595,1.1349573796285874,0.0167094369990732,0.1649160060097438
0.8490000000000002,-0.003099999999999822,-2.629,0.004489021491584374,1.1292169202830311,0.016277842778427688,0.16312186454470246
0.8500000000000001,-0.0027,0.371,0.004520783283723862,1.1234471293895398,0.01659783650619376,0.1613185557041575
0.851,-0.0005,0.371,0.0044699795850986325,1.13076617954091,0.016085999364385258,0.16360607497235952
0.8519999999999999,-0.0008,-0.629,0.004581789922608609,1.1380381597527798,0.01721246623834097,0.16587888285160618
0.8530000000000002,0.004999999999997602,0.371,0.004584868605605906,1.13076617954091,0.01724348335615941,0.16360607497235952
0.8540000000000001,-0.0004,0.371,0.004592587789272661,1.1292169202830313,0.017321252593675604,0.16312186454470254
0.855,-0.004,-1.629,0.004655631163912139,1.107083895770167,0.017956402032764062,0.15620433850106882
0.8559999999999999,0.004,0.371,0.004789604529852784,1.1145104093428637,0.019306157002522722,0.1585254447295768
0.8570000000000002,0.00340000000000111,-0.629,0.004756458928067172,1.1145104093428637,0.018972221668274326,0.1585254447295768
0.8580000000000001,0.0059,0.371,0.004763563160901638,1.1145104093428637,0.019043795398674526,0.1585254447295768
0.859,0.002,0.371,0.004777536246244496,1.0904751496543614,0.019184571449585575,0.15101338803962575
0.8599999999999999,0.0042,1.371,0.004789659838279071,1.0904751496543614,0.019306714223898225,0.15101338803962575
0.8610000000000002,0.006400000000001821,-0.629,0.0047859551232129725,1.0888685651967598,0.019269389957713694,0.15051126101128864
0.8620000000000001,0.0105,-0.629,0.004756810806085082,1.0872596067791713,0.01897576676919859,0.15000839201792884
0.863,0.0022,-0.629,0.004761330354149826,1.0920793706291472,0.019021300315501772,0.15151477637750851
0.8639999999999999,-0.0014,-0.629,0.004757255605758122,1.0920793706291476,0.018980248037285104,0.15151477637750865
0.8650000000000002,0.0018999999999971134,0.371,0.0047465956200945375,1.092079370629149,0.018872850805559557,0.15151477637750907
0.8660000000000001,-0.0046,-0.629,0.004720667863097556,1.0861123105986161,0.01861163381951417,0.14964981241195863
0.867,0.0074,2.371,0.004689502812385478,1.0861123105986161,0.018297652142737878,0.14964981241195863
0.8679999999999999,-0.0005,-0.629,0.004551339200388539,1.0877229660965677,0.016905681278802903,0.1501532118162256
0.8690000000000002,-0.001900000000000444,0.371,0.004581986472556401,1.063082240682267,0.01721444643990548,0.14245192093804585
0.8700000000000001,-0.0029,-0.629,0.0045700863358227066,1.0647277352422457,0.017094554933229242,0.14296620905382929
0.871,-0.004,-0.629,0.004569144950379805,1.0647277352422457,0.017085070662448302,0.14296620905382929
0.8719999999999999,-0.0072,1.371,0.004570552470404408,1.0663706906766213,0.017099251146269877,0.14347970358320175
0.8730000000000002,0.0019000000000015988,1.371,0.004613174481735652,1.0647277352422466,0.017528659418664428,0.14296620905382956
0.8740000000000001,0.0055,0.371,0.004626418371192528,1.064727735242247,0.017662088966305063,0.1429662090538297
0.875,-0.0021,0.371,0.004536873902780949,1.0647277352422484,0.016759946287390266,0.14296620905383012
0.8759999999999999,-0.0046,0.371,0.004564909253796587,1.0586065131455586,0.017042396863268534,0.1410530627846383
0.8770000000000002,-0.002000000000000311,-2.629,0.00458039770173678,1.0586065131455593,0.017198439890435485,0.14105306278463853
0.8780000000000001,-0.0027,-1.629,0.004521943290276061,1.0586065131455595,0.01660952334109404,0.14105306278463858
0.879,0.0023,0.371,0.004504443434273126,1.0586065131455595,0.016433215778436493,0.14105306278463858
0.8799999999999999,0.0016,0.371,0.004519040677950022,1.0586065131455618,0.016580280100209212,0.14105306278463928
0.8810000000000002,0.0019999999999984015,2.371,0.004568586148779185,1.033271672482278,0.017079440847654514,0.13313483091363076
0.8820000000000001,-0.0016,-0.629,0.004452950038108266,1.0315760027328436,0.015914430071327642,0.1326048608841711
0.883,-0.0013,-1.629,0.004443816228666748,1.029877541105845,0.015822408760972715,0.1320740182723967
0.8839999999999999,-0.0023,-0.629,0.004469468172562332,1.0315760027328444,0.016080846984972964,0.13260486088417137
0.8850000000000002,0.004199999999997247,-1.629,0.0045176391115347376,1.0332716724822788,0.016566159597815364,0.13313483091363104
0.8860000000000001,-0.002,1.371,0.004362740003097808,1.0315760027328444,0.015005581941532849,0.13260486088417137
0.887,-0.0013,0.371,0.004400787207885308,1.0429047651412497,0.015388899949457685,0.13614558840456664
0.8879999999999999,-0.0034,0.371,0.004451251723539741,1.044582045075626,0.01589731989041231,0.1366698108225994
0.8890000000000002,0.0016000000000001777,-2.629,0.00444116690094038,1.012002494766823,0.01579571731196659,0.12648729430209277
0.8900000000000001,0.002,-0.629,0.004445679221665503,1.0120024947668214,0.015841178044263018,0.1264872943020923
0.891,0.0006,0.371,0.004426574352995357,1.0201214386896371,0.01564870029875694,0.1290248149197664
0.8919999999999999,-0.0042,1.371,0.004426436339422876,1.0201214386896376,0.015647309839511236,0.12902481491976653
0.8929999999999998,0.0074,1.371,0.004432706680685445,1.0149600240669876,0.015710482278464406,0.12741164993847712
0.8940000000000001,0.0035,0.371,0.004405147501479925,1.021342866511511,0.015432829038703298,0.1294065638652537
0.895,0.002,-0.629,0.004470780591672667,1.0213428665115103,0.01609406934603065,0.1294065638652535
0.8959999999999999,0.0078,1.371,0.004467572910782114,1.0213428665115099,0.016061752600138472,0.12940656386525337
0.8969999999999998,-0.0005,-0.629,0.004476813032025357,0.9879972932624068,0.01615484498071481,0.11898463209282463
0.8980000000000001,0.0027,-0.629,0.004528750902594363,0.9862237838106468,0.016678108678890878,0.11843033379463905
0.899,-0.0064,-0.629,0.0045292265692978536,0.9742361377067348,0.016682900926159414,0.1146836766634604
0.8999999999999999,-0.0075,1.371,0.004553481160229117,0.9373538034240747,0.016927261097444805,0.1031563543220419
0.9009999999999998,-0.0108,1.371,0.004555559617655202,0.9392195976094361,0.016948201141912544,0.10373949558508057
0.9020000000000001,-0.0017,0.371,0.004561186658091382,0.9410816926673696,0.01700489245320744,0.10432148071103975
0.903,-0.0028,0.371,0.004571613724308732,0.9392195976094353,0.017109943067917733,0.10373949558508032
0.9039999999999999,-0.0105,-0.629,0.004594372418852485,0.9392195976094353,0.01733923238113286,0.10373949558508032
0.9049999999999998,-0.013,1.371,0.004597674169962725,0.9392195976094357,0.017372496865746368,0.10373949558508046
0.9060000000000001,0.0008,-0.629,0.004705615935287428,0.9336110289159336,0.018459988645687833,0.10198657564491326
0.907,0.0026,-0.629,0.00474316562336494,0.9354842879778994,0.018838294271881953,0.10257205000428467
0.9079999999999999,0.0044,0.371,0.0047332767944474165,0.942405567456712,0.01873866629073207,0.10473524875835126
0.9089999999999998,-0.0036,1.371,0.004735403972687026,0.9442613797638126,0.018760097187689218,0.10531527025333506
0.9100000000000001,-0.0022,0.371,0.004732852175670991,0.9461135518813321,0.018734388341158217,0.10589415403186184
0.911,-0.0011,0.371,0.004715604426759633,0.9373538034240657,0.018560620707219925,0.10315635432203908
0.9119999999999999,-0.0022,-1.629,0.004700780708227451,0.9354842879778954,0.018411274696401775,0.10257205000428342
0.9129999999999998,0.001,0.371,0.004620555586497274,0.9354842879778954,0.017603022578568335,0.10257205000428342
0.9140000000000001,0.0017,-0.629,0.004636968798554611,0.9336110289159281,0.017768382419970762,0.10198657564491152
0.915,-0.0008,-0.629,0.0046349107472711615,0.9336110289159281,0.017747647963324467,0.10198657564491152
0.9159999999999999,-0.0001,0.371,0.004632063066609332,0.9336110289159281,0.017718958148012276,0.10198657564491152
0.9169999999999998,-0.0038,-0.629,0.004665469148351751,0.9405460934124142,0.01805551776592895,0.10415408281234988
0.9180000000000001,0.0056,0.371,0.004615805282181675,0.9119372529475138,0.01755516420901236,0.09521258460549238
0.919,0.0019,-0.629,0.0046161070444529,0.9119372529475138,0.01755820440377355,0.09521258460549238
0.9199999999999999,-0.0013,0.371,0.004621268517426229,0.9138549409252598,0.017610205215637248,0.09581194491984572
0.9209999999999998,0.0033,-0.629,0.004612448783232312,0.9138549409252598,0.017521348150827336,0.09581194491984572
0.9220000000000002,0.0077,0.371,0.004615136760404114,0.9138549409252598,0.017548428985295923,0.09581194491984572
0.923,0.0036,0.371,0.004558896196207067,0.9047829313120148,0.0169818165060616,0.09297655011281239
0.9239999999999999,0.0029,-0.629,0.004560752475422049,0.897571586155481,0.01700051814931801,0.09072269330707129
0.9249999999999998,0.0065,-0.629,0.00453522067262298,0.897571586155481,0.016743290322928924,0.09072269330707129
0.9260000000000002,0.005,-0.629,0.004530688800446949,0.8995199008436212,0.01669763261365991,0.09133162579113238
0.927,0.0025,0.371,0.00451391091586281,0.8995199008436212,0.01652859876920525,0.09133162579113238
0.9279999999999999,-0.0023,-0.629,0.004518333224505598,0.8594371139260638,0.016573152647705654,0.07880402377982736
0.9289999999999998,0.0057,-0.629,0.0045919133790828385,0.8435813851155428,0.017314458045378806,0.07384842374767535
0.9300000000000002,0.0067,0.371,0.0045892783266636,0.8435813851155428,0.017287910417247875,0.07384842374767535
0.931,0.0002,0.371,0.004738701022138949,0.8435813851155428,0.018793314304031913,0.07384842374767535
0.9319999999999999,-0.0024,0.371,0.004765289141130527,0.811561552067101,0.01906118430560608,0.06384084304415885
0.9329999999999998,0.0067,-0.629,0.004783085804450265,0.8259137076799331,0.01924048214284621,0.06832651151555752
0.9340000000000002,-0.0072,-0.629,0.004792847679294722,0.8094015400612418,0.019338831087003554,0.06316574600550477
0.935,0.0019,0.371,0.0047894027037872254,0.8072357482876101,0.0193041236451229,0.06248884253980462
0.9359999999999999,-0.0061,-1.629,0.004887497937337563,0.7903334447139091,0.020292413579204752,0.057206142694579167
0.9369999999999998,-0.0076,-0.629,0.004883818817016961,0.7798257841168154,0.020255347174981748,0.05392204495204915
0.9380000000000002,-0.004,-0.629,0.004886160165453435,0.7798257841168154,0.02027893579400225,0.05392204495204915
0.9390000000000001,0.0021,-0.628999999999778,0.004875229738350398,0.7798257841168152,0.020168813918655434,0.053922044952049115
0.94,-0.0012,1.370999999999889,0.004872598367578235,0.7356124347054648,0.020142303382385273,0.040103463770271366
0.9409999999999998,-0.0019,0.371000000000111,0.004869056844172811,0.7356124347054649,0.020106623239668654,0.0401034637702714
0.9420000000000002,-0.0027,1.371,0.004879729558344799,0.7467424953444458,0.020214148708580418,0.04358208840616888
0.9430000000000001,-0.0034,1.370999999999778,0.004862391776064497,0.7356124347054648,0.02003947400638775,0.040103463770271366
0.944,0.0078,-0.628999999999889,0.004807895248791489,0.7243113652520949,0.0194904323516911,0.036571391494330904
0.9449999999999998,-0.0034,0.370999999999889,0.004795021516993094,0.7714472458007157,0.01936073206871156,0.051303389875084184
0.9460000000000002,0.0042,-0.628999999999889,0.004841883830379563,0.7691745922178252,0.019832860539498783,0.050593087478831726
0.9470000000000001,0.0078,0.370999999999889,0.004788977149065298,0.758373821445275,0.01929983626608459,0.04721738014759881
0.948,0.0067,-0.628999999999889,0.0047890107193409425,0.7668952037752002,0.019300174479923354,0.049880680148046364
0.9489999999999998,0.0056,0.370999999999889,0.004850836930974872,0.7668952037752002,0.019923061244231554,0.049880680148046364
0.9500000000000002,0.003,-0.629,0.004809000295064278,0.7985138410530211,0.019501565472726298,0.0597628698463592
0.9510000000000001,0.0023,-0.628999999999889,0.004760409498664679,0.7903334447139092,0.019012022879954942,0.0572061426945792
0.952,-0.0032,0.371,0.004636907419025462,0.7798257841168126,0.01776776403344349,0.05392204495204828
0.9529999999999998,-0.0068,0.371,0.00463536095471106,0.8237913284282359,0.01775218371358467,0.06766317633786637
0.9540000000000002,-0.0018,0.371000000000111,0.0046526977072989415,0.8237913284282359,0.017926848041831346,0.06766317633786637
0.9550000000000001,-0.0108,1.370999999999778,0.004611750104557981,0.8216634670310622,0.01751430910238422,0.06699812775295036
0.956,-0.0072,-0.628999999999778,0.004435251332655137,0.8435813851155219,0.01573611914007703,0.07384842374766883
0.9569999999999999,0.0015,1.370999999999778,0.004450615161933475,0.8435813851155219,0.015890906659054103,0.07384842374766883
0.9580000000000002,-0.0061,-0.629,0.004503860562084878,0.8724251567287794,0.016427343457268047,0.08286334808461876
0.9590000000000001,-0.0013,-0.628999999999889,0.004494914013003942,0.8744295019229895,0.016337208757737295,0.08348979252167804
0.96,0.0012,0.371,0.004508593704389186,0.8669657163425735,0.01647502892297953,0.08115703718105045
0.9609999999999999,0.0052,0.371,0.004504857237133115,0.8689826540578607,0.016437384759807157,0.08178741732479343
0.9620000000000002,-0.006,-0.629,0.004524187774583639,0.8689826540578599,0.016632136073314575,0.0817874173247932
0.9630000000000001,-0.0045,0.371,0.004522561349773324,0.8553534668857022,0.016615750167390298,0.07752770771474146
0.964,-0.0001,-0.629,0.004528415116351724,0.8553534668857022,0.01667472569939644,0.07752770771474146
0.9649999999999999,0.001,0.371,0.004528805098430716,0.8533043147513893,0.01667865469114447,0.07688725917377327
0.9660000000000002,0.0072,1.371,0.004528289327532992,0.8608865512326361,0.01667345840210916,0.07925703553658028
0.9670000000000001,-0.003,0.371,0.00453564773705113,0.8629176981805821,0.016747592911956637,0.07989185667919893
0.968,0.0007,-0.629,0.004589809358209448,0.8704161960540246,0.017293260454272572,0.08223546111055544
0.9689999999999999,-0.0029,-0.629,0.0045666594200842285,0.8724251567287652,0.017060029439923324,0.08286334808461432
0.9700000000000002,0.0003999999999979128,-0.629,0.00456505038720147,0.8704161960540231,0.01704381875420411,0.08223546111055495
0.9710000000000001,-0.0043,-0.629,0.004572348475409514,0.8857917101854474,0.01711734553887047,0.08704097331592778
0.972,0.0001,0.371,0.004563795651488584,0.8838131330169325,0.017031177541883213,0.08642258249977042
0.9729999999999999,0.0023,-0.629,0.0044987773555886035,0.8857917101854466,0.016376131164567306,0.0870409733159275
0.9740000000000002,-0.002699999999999023,0.371,0.0044881766062451305,0.8877658776802064,0.01626933072696497,0.08765798591859095
0.9750000000000001,-0.0005,-0.629,0.004480004810943243,0.8857917101854449,0.01618700151740059,0.08704097331592697
0.976,0.0024,0.371,0.004432530260448751,0.8857917101854449,0.015708704879728672,0.08704097331592697
0.9769999999999999,0.0028,0.371,0.004432530260448751,0.8838131330169309,0.015708704879728672,0.0864225824997699
0.9780000000000002,0.008599999999996936,0.371,0.004462146728202808,0.8857917101854449,0.016007084891733796,0.08704097331592697
0.9790000000000001,0.0017,0.371,0.004456723670760879,0.89309817733167,0.015952448668465558,0.089324559851585
0.98,0.0119,0.371,0.004498727845096986,0.89309817733167,0.016375632356228454,0.089324559851585
0.9809999999999999,0.0054,0.371,0.004465518102562228,0.895056229570636,0.016041050816711446,0.08993653574082554
0.9820000000000002,0.004399999999999512,-1.629,0.004484101841041488,0.895056229570636,0.016228278279371375,0.08993653574082554
0.9830000000000001,0.0033,0.371,0.004523494095821154,0.8970100076550179,0.01662514739798716,0.09054717577216591
0.984,-0.0014,0.371,0.004482214279318502,0.8950562295706361,0.016209261471079383,0.08993653574082557
0.9849999999999999,0.0106,0.371,0.004425152033613275,0.8950562295706361,0.015634370714357314,0.08993653574082557
0.9860000000000002,-0.0006000000000006216,0.371,0.004557827394338722,0.9042258315007105,0.016971048540180046,0.0928024323616952
0.9870000000000001,-0.002,0.371,0.004521394569480221,0.8983988285460945,0.016603995088399978,0.09098124228116837
0.988,-0.0009,0.371,0.004458422477569631,0.8983988285460945,0.015969563808603097,0.09098124228116837
0.9889999999999999,0.0002,-0.629,0.004446623062883018,0.8964480773547026,0.01585068705648391,0.09037154828461312
0.9900000000000002,-0.0008000000000011103,-0.629,0.004467619590982862,0.8964480773547043,0.016062222893860712,0.09037154828461368
0.9910000000000001,-0.0033,1.371,0.004484071452969585,0.8891691373822266,0.016227972125601293,0.08809656517959814
0.992,-0.0008,0.371,0.0044842076926665244,0.8911358227639063,0.01622934471340434,0.08871123929878579
0.9929999999999999,0.0015,0.371,0.00451002829521624,0.8838131330169339,0.01648948213974236,0.08642258249977085
0.9940000000000002,3.1086244689494e-15,-2.629,0.004504169691050135,0.8764292633027029,0.01643045787000391,0.08411480431874083
0.9950000000000001,0.007,0.371,0.004440879625966613,0.8744295019229783,0.015792823073840917,0.08348979252167453
0.996,-0.0032,0.371,0.004430231960479168,0.8744295019229787,0.015685549965435377,0.08348979252167467
0.9969999999999999,0.0005,1.371,0.004443257933823168,0.8724251567287695,0.01581678405165515,0.08286334808461568
0.9980000000000002,-0.008199999999996625,-0.629,0.004416525156251763,0.87442950192298,0.015547456643710182,0.08348979252167506
0.9990000000000001,-0.0006,2.371,0.0043654300359547695,0.8724251567287709,0.015032683486619852,0.0828633480846161
1.0,-0.0031,-0.629,0.004329208138456109,0.8724251567287712,0.014667755085966197,0.08286334808461619
1.001,-0.0005,0.37099999999933386,0.004325442195274246,0.8724251567287712,0.014629813958714086,0.08286334808461619
1.0020000000000002,-0.0012000000000016431,-2.629,0.004322259259886418,0.8704161960540315,0.014597746518831707,0.08223546111055759
1.0030000000000001,-0.0049,0.371,0.004334109012762476,0.9003453531134962,0.014717130418180456,0.09158961527518675
1.004,-0.0085,0.371,0.004281085663217295,0.9003453531134962,0.014182930735584093,0.09158961527518675
1.005,-0.003,2.370999999999334,0.004277383005252288,0.9094616292802096,0.014145627194283217,0.09443884529196749
1.0060000000000002,-0.0038000000000015985,-0.629,0.0041393093020933025,0.9003453531134991,0.012754562143977698,0.09158961527518765
1.0070000000000001,-0.0074,2.370999999999334,0.00416588902257683,0.8983988285461098,0.013022347532256529,0.09098124228117312
1.008,-0.0034,-0.629,0.0041928559916150875,0.8983988285461131,0.013294034372571057,0.09098124228117416
1.009,0.005,-0.629,0.004148690317247859,0.8964480773547212,0.01284907400263962,0.09037154828461895
1.0100000000000002,-0.0011999999999975574,-0.629,0.004148485890979779,0.8944930718864879,0.012847014448717442,0.08976052464281663
1.0110000000000001,0.0043,0.37099999999977795,0.004151127589299478,0.896448077354722,0.012873629032971427,0.0903715482846192
1.012,0.0018,-0.629,0.004160503014976471,0.9255358209777046,0.012968084578760506,0.09946272441129676
1.013,0.0025,0.371,0.004124141470187777,0.9255358209777046,0.012601749259482306,0.09946272441129676
1.0140000000000002,0.0017999999999990229,0.371,0.004138907708960321,0.9255358209777046,0.012750516173174046,0.09946272441129676
1.0150000000000001,-0.0004,1.370999999999556,0.004167614863679877,0.9255358209777046,0.013039735037522935,0.09946272441129676
1.016,-0.0026,-0.629,0.004168150424241429,0.9274253908821593,0.013045130703478526,0.10005329661338032
1.017,-0.008,1.370999999999556,0.004159785714584054,0.9330711413783419,0.01296085792021777,0.10181783747269675
1.0180000000000002,0.003199999999997913,-0.629,0.004149110445769983,0.9330711413783419,0.012853306713795991,0.10181783747269675
1.0190000000000001,-0.0015,0.3709999999995559,0.00417374093015192,0.9311930278589019,0.013101453936706045,0.10123084588570982
1.02,-0.0029,-1.629,0.004180923817758683,0.929311118728802,0.013173820098266406,0.10064266800646646
1.021,-0.0018,0.37099999999977795,0.004180757233861606,0.9362780334456606,0.013172141798692581,0.10282012974332183
1.0219999999999998,-0.0008,-0.629,0.00418770691152813,0.9431934883324681,0.013242158416568464,0.10498150806083373
1.0230000000000001,-0.0019,-0.628999999999778,0.004199030871837371,0.9450477533822413,0.013356245060562459,0.10556104597107961
1.024,-0.0011,0.371,0.004199594315670574,0.9431934883324681,0.013361921644924628,0.10498150806083373
1.025,-0.0004,-0.629,0.004197227779200194,0.9431934883324681,0.013338079261480854,0.10498150806083373
1.0259999999999998,0.005,0.371,0.004239847994031555,0.9431934883324681,0.01376746943449701,0.10498150806083373
1.0270000000000001,0.0057,-0.629,0.004242315361541448,0.9431934883324681,0.013792327670574879,0.10498150806083373
1.028,0.0006,1.371,0.004233076397555139,0.9450477533822413,0.013699246949131582,0.10556104597107961
1.029,-0.0084,-0.629,0.004150750660842774,0.9537368381439241,0.012869831553867214,0.10827676022420146
1.0299999999999998,0.0039,-0.629,0.004158891823365538,0.953736838143924,0.01295185214428503,0.10827676022420142
1.0310000000000001,-0.0041,0.371,0.004038555779995962,0.962347471910597,0.011739490482407114,0.110967955153233
1.032,0.0064,-0.629,0.004013182264527586,0.970881742001911,0.011483857369338494,0.11363528313571256
1.033,0.0028,0.371,0.004009663182229835,0.9568744732056349,0.011448403316310638,0.10925740668949532
1.0339999999999998,-0.0009,-0.629,0.004040961145730086,0.9587022776715477,0.011763724062946991,0.10982867452450236
1.0350000000000001,-0.0111,1.371,0.0041538218579389,0.9587022776715477,0.012900773252722802,0.10982867452450236
1.036,-0.002,1.371,0.004036583884029404,0.9587022776715477,0.01171962402341341,0.10982867452450236
1.037,-0.001,-0.629,0.004042618315167539,0.9859550992476834,0.011780419714864295,0.11834635826473616
1.0379999999999998,0.0023,0.371,0.004166652624814947,0.9859550992476834,0.013030040672669779,0.11834635826473616
1.0390000000000001,0.0048,-0.629,0.004174352085249893,0.9942867584316193,0.013107611202555047,0.1209503615882791
1.04,0.004,-0.629,0.0042741306596917735,0.9942867584316193,0.01411286046073991,0.1209503615882791
1.041,0.0019,-0.629,0.004278164699501087,0.9925244874825029,0.014153502608099541,0.12039957580753927
1.0419999999999998,0.0055,-0.629,0.004265854548820213,0.9841779097259078,0.01402948029259431,0.11779090978573546
1.0430000000000001,-0.0025,-0.629,0.004372191556061543,0.9859550992476834,0.015100804454568692,0.11834635826473616
1.044,0.0021,0.371,0.004370522403727059,0.9877290911340829,0.015083988077351201,0.11890080734458201
1.045,0.0014,0.371,0.004415924790612401,0.9513699901996095,0.01554140807950705,0.1075370180219281
1.0459999999999998,0.0054,0.371,0.004442226250415847,0.9513699901996095,0.01580639004687314,0.1075370180219281
1.0470000000000002,0.0061,-0.629,0.0044372098540003645,0.9532083497286715,0.015755850852425514,0.10811158477002242
1.048,-0.0005,0.371,0.004438000561615404,0.9463660800517744,0.015763817074110932,0.10597307999133794
1.049,0.0002,0.371,0.004436754446292113,0.9445144031366114,0.015751262710497725,0.1053943509849344
1.0499999999999998,0.0024,-0.629,0.004447780797644064,0.9249912202137711,0.015862351003540946,0.09929251315229315
1.0510000000000002,0.0016,0.371,0.004438742685420115,0.9376086908794166,0.01577129382358686,0.10323601765994214
1.052,0.0045,2.371,0.004445423889347882,0.951899499260674,0.015838605622033954,0.1077025124720031
1.053,-0.0006,0.371,0.0045279004006590455,0.9141163807046484,0.016669540041341736,0.09589365614199305
1.0539999999999998,0.0001,1.371,0.0045027884553819775,0.9160295067368833,0.016416542195836784,0.09649159065135242
1.0550000000000002,-0.0003,0.371,0.004422232520639623,0.9179386455273957,0.01560495720281497,0.09708827897547209
1.056,-0.0086,0.371,0.004412350132067764,0.8905701859892104,0.015505394106864516,0.08853445337791349
1.057,-0.005,1.371,0.004396262834421301,0.8978377674684624,0.015343317788218317,0.0908058864632442
1.0579999999999998,0.0004,0.371,0.004341505531568486,0.8978377674684797,0.014791648871510564,0.09080588646324957
1.0590000000000002,0.0012,0.371,0.00434073754495812,0.8958857945925539,0.014783911559420423,0.09019581063751528
1.06,0.0019,-0.629,0.004338116110066559,0.9089073972043487,0.014757501125167756,0.09426562383202844
1.061,0.0059,2.371,0.004342510529078417,0.9069792483583798,0.01480177402119312,0.09366299404457039
