time_sec,bts_raw,diy_raw,bts_rms,diy_rms,bts_norm_rms,diy_norm_rms
0.0,-0.0029,1.864,0.00500938071382491,0.7639856767030075,0.0031370211947315445,0.0
0.001000000000000112,-0.0021,-0.136,0.005046636777747619,0.7639877031527955,0.0032272565260930823,5.541075322822701e-08
0.0020000000000000018,0.0034,0.864,0.005047822482289331,0.7702781168616556,0.003230128338919049,0.00017205896287368893
0.0030000000000001137,0.0027,-0.136,0.005025957019939079,0.770280126757318,0.0031771695173795156,0.00017211392097491005
0.0040000000000000036,0.002,0.864,0.005014707486666874,0.7702821366477361,0.003149922802198169,0.00017216887893273066
0.0050000000000001155,-0.0071,-0.136,0.004956861198427898,0.7765215623444439,0.0030098173149919034,0.00034277822717222793
0.006000000000000005,-0.006,1.864,0.004949169314105978,0.7827112516970166,0.0029911873348624136,0.0005120275968385084
0.007000000000000117,-0.0023,-1.136,0.004957540583126022,0.7827132296661672,0.003011462805602086,0.0005120816819489051
0.008000000000000007,-0.0034,-1.136,0.004899019575028128,0.7893003394588469,0.002869723126169501,0.0006921980200766409
0.009000000000000119,0.0097,-0.13600000000000173,0.004876962604144062,0.7958329296059945,0.0028163004650777522,0.0008708235861938376
0.010000000000000009,0.0079,-1.136,0.004838681726141812,0.8210097486843537,0.0027235830025323297,0.0015592524420689985
0.01100000000000012,-0.0001,1.864,0.004835066477464377,0.8272919880007025,0.0027148267591718,0.0017310324755763042
0.01200000000000001,0.0043,0.864,0.004833405006232896,0.8335268798218587,0.0027108026248072207,0.0019015178506185156
0.013000000000000123,0.0032,-1.1359999999999963,0.004824822389772446,0.8575978165638304,0.0026900152640740977,0.002559707727168992
0.014000000000000012,0.0043,0.864,0.004880069845681368,0.8632063378603654,0.0028238262995384394,0.0027130657779739034
0.015000000000000124,0.0033,1.864,0.005054183825331274,0.8691836444030181,0.003245535707192975,0.002876507803416686
0.016000000000000014,0.0007,-0.136,0.0049952103989404,0.8691854255905606,0.0031027002567560846,0.0028765565077783503
0.017000000000000126,-0.0018,0.864,0.004971792532967368,0.8691872067744529,0.0030459814659509043,0.002876605212040208
0.018000000000000016,0.0004,-0.136,0.004970174891025343,0.8691889879546951,0.0030420634874718626,0.0028766539162022554
0.019000000000000128,0.0087,-0.136,0.005007195967083543,0.8691907691312873,0.003131729671006515,0.0028767026202644996
0.020000000000000018,0.0011,0.864,0.005001433759147348,0.8691925503042295,0.0031177734263646934,0.0028767513242269364
0.02100000000000013,-0.0015,1.864,0.004998906622610977,0.8691943314735217,0.003111652624037631,0.0028768000280895694
0.02200000000000002,-0.0022,-0.136,0.005008827204553495,0.8923036150633862,0.003135680578271862,0.003508694693271469
0.02300000000000013,-0.0044,-1.136,0.004974422750302637,0.8980872827462799,0.0030523519331396337,0.003666841904533717
0.02400000000000002,-0.0051,-2.136,0.0050259411156766,0.9038339412779348,0.0031771309967671977,0.0038239771465092593
0.025000000000000133,0.0058,-1.136,0.00503926884864882,0.9095442921493236,0.0032094111754661955,0.00398011960059771
0.026000000000000023,-0.0018,0.8639999999999931,0.005120317100104941,0.9152190149668127,0.0034057125303701527,0.004135287849791295
0.027000000000000135,-0.0007,-1.136,0.005109482157076732,0.9208587683962356,0.0033794699654963616,0.004289499904489376
0.028000000000000025,0.0029,0.864,0.00510960886512043,0.9260842499899705,0.003379776856270786,0.004432384210238063
0.029000000000000137,-0.0115,-1.136,0.0051594032994704804,0.9260859217377283,0.0035003805059976778,0.004432429922104706
0.030000000000000027,-0.0057,1.864,0.005173671783088329,0.926087593482468,0.0035349392116611183,0.004432475633888824
0.03100000000000014,-0.0039,-0.136,0.005274941053172567,0.9312837363281952,0.0037802164948907663,0.004574557708002889
0.03200000000000003,0.0041,-0.136,0.005274941053172566,0.9312853987423699,0.003780216494890764,0.004574603164654293
0.03300000000000014,0.0026,-0.136,0.0053411775555145405,0.9364527007051608,0.003940643338409629,0.0047158966206359235
0.03400000000000003,0.0015,-0.136,0.005463836290891727,0.9415916457813567,0.004237726563682951,0.004856414692764094
0.03500000000000014,0.0004,-1.136,0.005543058029337675,0.9470743652853522,0.0044296040479641,0.00500633284975893
0.03600000000000003,-0.0141,0.8639999999999931,0.005587928054930447,0.9683268089700598,0.0045382806283984735,0.005587454533355193
0.037000000000000144,0.004,-0.136,0.0054349981963188725,0.9736589931518872,0.004167879812694565,0.005733256488883653
0.038000000000000034,-0.0029,0.864,0.005386233835629658,0.9936352812167668,0.0040497710330190334,0.006279483281646305
0.039000000000000146,-0.0007,-1.136,0.005434071509322867,0.9984799641585091,0.004165635348321559,0.006411955121090406
0.040000000000000036,0.0051,-1.136,0.005426123998835453,0.9984815146948437,0.004146386233766171,0.0064119975185811875
0.04100000000000015,0.0105,0.864,0.005443723252563276,0.9984830652287704,0.0041890121669603065,0.00641203991600613
0.04200000000000004,0.0058,0.864,0.005452955605000116,1.0186635298949929,0.004211373208188736,0.006963849664408312
0.04300000000000015,-0.0019000000000020205,-0.13600000000000695,0.005489440711329666,1.0384518971659753,0.004299741256575113,0.007504937996401351
0.04400000000000004,-0.011,-1.136,0.005498875480383098,1.0434257849521555,0.004322592557067355,0.00764094278188415
0.04500000000000015,-0.007299999999997269,-0.136,0.0054967845425309145,1.0434272686988555,0.004317528241353822,0.007640983353095306
0.04600000000000004,0.005,-1.136,0.005587345383040351,1.0434287524434456,0.004536869379180441,0.00764102392424877
0.04700000000000015,-0.009899999999997825,1.864,0.005745074450255663,1.0483790285011876,0.004918894025558728,0.007776383076335889
0.04800000000000004,-0.0001,-0.136,0.0057388317606524054,1.0533060397512695,0.004903774039558441,0.00791110608114524
0.049000000000000155,0.0016999999999982235,-1.136,0.005736873344594058,1.0533075095801008,0.004899030695700772,0.007911146271789559
0.050000000000000044,-0.0063,-0.136,0.005752878635305084,1.0533089794068813,0.0049377960015002074,0.007911186462377802
0.051000000000000156,0.0012999999999997558,-1.135999999999993,0.005745867552970651,1.038462333094915,0.004920814944699278,0.00750522335392001
0.052000000000000046,0.0002,-0.136,0.005747891044963817,1.038462333094915,0.004925715904470272,0.00750522335392001
0.05300000000000016,0.0012999999999997558,-0.136,0.005774570304587837,1.0381233828542633,0.0049903338908911755,0.007495955180460758
0.05400000000000005,0.0002,-1.136,0.005814243277511716,1.0381233828542633,0.005086423050103224,0.007495955180460758
0.05500000000000016,0.0009000000000005551,-1.136,0.005813590560748718,1.0331254659598235,0.00508484215005118,0.00735929334884932
0.05600000000000005,0.0034,-0.136,0.005778892959235474,1.0331254659598235,0.005000803493243699,0.00735929334884932
0.05700000000000016,-0.0056999999999992005,0.864,0.005750443585914154,1.0179844986896758,0.004931898237068406,0.0069452823992456605
0.05800000000000005,-0.0021,0.864,0.005792051396801616,1.0179844986896758,0.005032673633268266,0.0069452823992456605
0.05900000000000016,-0.0011000000000001555,1.8639999999999932,0.005885800834616751,1.0183301521611863,0.005259737651725944,0.006954733864229408
0.06000000000000005,-0.0018,0.864,0.005976569622967389,1.0234003265656613,0.005479582445612303,0.0070933714877312775
0.061000000000000165,0.0007999999999995115,0.864,0.005924462934549901,1.038462333094915,0.0053533784454994965,0.00750522335392001
0.062000000000000055,-0.0014,1.864,0.005931054834747158,1.0237441514572168,0.005369344230286523,0.007102772952466686
0.06300000000000017,0.008300000000001466,-1.136,0.0059163064236674254,1.0186756883467767,0.005333623125566583,0.006964182122175303
0.06400000000000006,0.0149,0.864,0.005993331772054856,1.0190211073657571,0.00552018088565087,0.006973627176345734
0.06500000000000017,0.003599999999999023,-0.136,0.006002222003664304,1.013929034815976,0.005541713299725089,0.006834390775251191
0.06600000000000006,-0.0008,-0.136,0.006132476543889582,0.9984970199257609,0.0058571937976906385,0.006412421489867918
0.06700000000000017,0.00030000000000135447,-0.136,0.006202162920311766,0.9984970199257609,0.006025976342215092,0.006412421489867918
0.06800000000000006,0.0064,-0.136,0.006202461612058423,0.9984970199257609,0.006026699782801583,0.006412421489867918
0.06900000000000017,-0.0037999999999992007,-0.136,0.006227540588604112,0.9984970199257609,0.0060874418344445905,0.006412421489867918
0.07000000000000006,-0.0002,-0.136,0.006182885932909997,1.0036673893350838,0.005979286886521128,0.006553798821366146
0.07099999999999995,-0.0039,1.8639999999999863,0.006196180427060792,1.0036673893350838,0.006011486559773509,0.006553798821366146
0.07200000000000006,-0.0007,0.864,0.006412997028604521,0.9884312311944748,0.006536623029518915,0.006137184995607343
0.07299999999999995,-0.0072,0.864,0.006587048015215711,0.9884312311944748,0.006958179866098477,0.006137184995607343
0.07400000000000007,-0.0079,0.864,0.006589084313366347,1.0040179717728448,0.006963111842776279,0.006563385062811761
0.07499999999999996,-0.0119,0.864,0.00657264487424504,0.9894988006486358,0.006923295016189701,0.006166376356740292
0.07600000000000007,-0.0007,0.864,0.006621493079430651,0.9846115000847623,0.007041606869811286,0.006032739191336919
0.07699999999999996,0.0007,-1.136,0.006947292010691061,0.9992016899790224,0.007830701890168441,0.006431689817492088
0.07800000000000007,0.0084,-0.136,0.007317862852754338,1.0381233828542635,0.008728235853924645,0.007495955180460764
0.07899999999999996,-0.0039,-0.136,0.007317117303552089,1.0753103921996063,0.008726430110852838,0.008512787776244809
0.08000000000000007,0.0109,-1.136,0.0073048929042799525,1.0708148155430743,0.008696822240270873,0.00838986181468775
0.08099999999999996,0.0011,-0.136,0.007332007076477374,1.0562142681976592,0.008762493598305469,0.007990627976891497
0.08200000000000007,0.0102,-1.136,0.007324337744150669,1.0607717241377805,0.00874391823980121,0.008115245950623374
0.08299999999999996,0.0116,-1.136,0.0074074169688116125,1.0656399862731862,0.008945138674200622,0.008248362533840134
0.08400000000000007,0.0102,0.864,0.007429598594003218,1.0845701635083231,0.008998863251854727,0.00876598472490958
0.08499999999999996,-0.0076,1.864,0.007510528610362042,1.0893320747993003,0.00919487823772074,0.008896193276340296
0.08600000000000008,-0.0007,0.8639999999999584,0.007666633300336976,1.089655096080729,0.009572968592520461,0.008905025892188438
0.08699999999999997,0.0014,-2.1359999999999864,0.007588153899279348,1.1034945210687637,0.009382889072199113,0.009283447784200689
0.08800000000000008,0.0072,-1.136,0.007577643145460217,1.108175115964466,0.0093574317035491,0.009411432839772428
0.08899999999999997,0.001,-0.136,0.007705975847504048,1.108175115964466,0.00966825745039854,0.009411432839772428
0.09000000000000008,-0.0044,-0.136,0.007874157948783331,1.1220997622694202,0.010075599666406638,0.009792185002877327
0.09099999999999997,0.0036,1.864,0.007865443857383603,1.12209976226942,0.010054493869331549,0.00979218500287732
0.09200000000000008,0.008,1.864,0.007810480238420506,1.1217860835546736,0.009921370295669729,0.009783607847914528
0.09299999999999997,-0.0044,0.864,0.007939766700351906,1.1217860835546734,0.010234506078267242,0.009783607847914523
0.09400000000000008,-0.0058,-0.136,0.008234131833390706,1.1217860835546734,0.010947467473656311,0.009783607847914523
0.09499999999999997,-0.0101,-0.136,0.008421272625235595,1.1217860835546734,0.011400728220642812,0.009783607847914523
0.09600000000000009,-0.0137,0.864,0.008413190895187198,1.126078188956191,0.011381154022187374,0.009900970140651584
0.09699999999999998,-0.0024,0.864,0.008410396610198616,1.1391664312245064,0.01137438617810201,0.010258851873929721
0.09800000000000009,0.002,-0.136,0.008665394894713841,1.1254529617831865,0.01199199985698099,0.009883874079944554
0.09899999999999998,0.0056,-0.136,0.00934918460212034,1.1300426092854305,0.013648159534971659,0.01000937229197071
0.10000000000000009,-0.0006,-1.136,0.00965826520642861,1.1300426092854305,0.01439676225384827,0.01000937229197071
0.10099999999999998,0.0026,-0.136,0.00986376086487244,1.1479112152204012,0.014894479051615882,0.01049796713398034
0.10200000000000009,-0.0065,-1.1359999999999861,0.010029377175765315,1.1819459796456961,0.015295606844484643,0.011428605506538935
0.10299999999999998,0.0073,-0.136,0.010151458362899898,1.1863170859490735,0.015591291230171566,0.011548127980842662
0.10400000000000009,0.0018,-0.136,0.010188680973073736,1.1863170859490735,0.01568144553552561,0.011548127980842662
0.10499999999999998,0.0032,-0.136,0.010210650549212885,1.1866137061583504,0.01573465652386032,0.011556238692154778
0.1060000000000001,0.0018,-1.136,0.010214670128687535,1.1825413384981234,0.01574439206883312,0.011444884855106998
0.10699999999999998,-0.0073,-1.136,0.010211833206020529,1.186910252239406,0.015737520954980745,0.011564347376522727
0.1080000000000001,-0.011,0.864,0.010233826134716087,1.186910252239406,0.015790788503924492,0.011564347376522727
0.10899999999999999,-0.0142,0.864,0.010241133531590473,1.1866137061583502,0.015808487243644243,0.011556238692154773
0.1100000000000001,0.0006,1.864,0.010375857593997083,1.1693366617081247,0.016134793061640836,0.011083819364409095
0.11099999999999999,0.0028,0.864,0.010531047513078866,1.1693366617081247,0.016510667813234736,0.011083819364409095
0.1120000000000001,0.001,-0.136,0.010582000733659192,1.164901840843521,0.01663407807881034,0.010962554694542413
0.11299999999999999,0.0101,0.864,0.010581872914007022,1.1472978861535785,0.016633768495686044,0.010481196412213085
0.1140000000000001,0.0054,-0.136,0.010551793397630927,1.1472978861535785,0.016560914982952583,0.010481196412213085
0.11499999999999999,0.013,-1.136,0.010492932065462103,1.1604500718197863,0.016418351028165138,0.010840826598308666
0.1160000000000001,0.0093,-0.136,0.010590648966232605,1.1645996906973957,0.01665502436378485,0.010954292773973648
0.11699999999999999,-0.0019,0.864,0.010649376810395008,1.1687345763510175,0.01679726500651987,0.0110673560879228
0.1180000000000001,0.0056,-0.13599999999998613,0.010747562229468302,1.1687345763510175,0.017035073107862255,0.0110673560879228
0.119,0.0045,0.864,0.010792086010173327,1.1687345763510175,0.01714291107254154,0.0110673560879228
0.1200000000000001,-0.0042,0.864,0.010878427820080517,1.1731549086000832,0.017352033588636996,0.011188224584587974
0.121,-0.0166,0.864,0.010945467431024203,1.1731549086000832,0.017514405585861446,0.011188224584587974
0.12200000000000011,-0.0152,-0.136,0.01094411424683326,1.1601467622496702,0.017511128132179914,0.010832532974730517
0.123,0.0047,1.864,0.011023238250113459,1.1601467622496704,0.017702768898887104,0.010832532974730524
0.12400000000000011,0.0021,0.864,0.011058625511130625,1.1601467622496702,0.01778847793220006,0.010832532974730517
0.125,-0.0099,-0.136,0.01103529613933815,1.1556766763867459,0.017731973477018815,0.01071030402727298
0.1260000000000001,-0.0211,-2.136,0.0109793317251116,1.15537211370024,0.01759642594648355,0.010701976138783136
0.127,-0.023,-3.136,0.010992861559849321,1.1508834830260113,0.017629195621867346,0.0105792401064874
0.1280000000000001,-0.0027,-3.136,0.011045591815532411,1.1466842290343755,0.017756909921054005,0.010464416720260827
0.129,0.0107,-0.136,0.011022025845747182,1.1508834830260113,0.0176998324182658,0.0105792401064874
0.13000000000000012,0.0085,-1.136,0.011060437081841725,1.15537211370024,0.017792865612115474,0.010701976138783136
0.131,0.002,-1.136,0.011037144277588609,1.1687345763510173,0.01773644972463794,0.011067356087922793
0.13200000000000012,0.0118,0.864,0.011078294354904324,1.1731549086000832,0.01783611647606503,0.011188224584587974
0.133,0.0063,1.864,0.01111852279420438,1.1734548558852291,0.01793355099190462,0.01119642627065853
0.13400000000000012,0.0111,0.864,0.01108195940121752,1.1693366617081247,0.0178449933308292,0.011083819364409095
0.135,0.0154,0.864,0.011035493062552333,1.164901840843521,0.017732450431093227,0.010962554694542413
0.13600000000000012,0.0089,1.864,0.011011477128403687,1.1472978861535783,0.0176742831007935,0.010481196412213078
0.137,0.0002,0.864,0.011011324706896409,1.1427775417632222,0.017673913931220343,0.010357593207728465
0.13800000000000012,-0.0143,0.864,0.011010984845944158,1.125452961783187,0.01767309077755315,0.009883874079944566
0.139,-0.0162,1.864,0.010991269641556464,1.1211584628412814,0.017625339946856843,0.009766446338817633
0.14000000000000012,-0.0035,-1.136,0.010993023852443119,1.138548391405684,0.017629588699515305,0.010241952342498329
0.14100000000000001,-0.0049,-1.1359999999999444,0.011013317354150768,1.1430854601413438,0.017678740184086366,0.010366012853438808
0.14200000000000013,-0.0154,0.8639999999999722,0.011007440432093826,1.1297311359666382,0.017664506098319974,0.010000855440821863
0.14300000000000002,-0.0219,-0.13600000000002777,0.010997590323179157,1.115901720910152,0.01764064883192419,0.009622707257958567
0.14400000000000013,-0.0208,-1.136,0.011004084021036857,1.1112536709123446,0.017656376767627945,0.009495612102209065
0.14500000000000002,-0.0063,-1.136,0.01098881619642386,1.1112536709123448,0.017619397627373575,0.009495612102209072
0.14600000000000013,-0.0045,-2.136,0.010943754725027914,1.1112536709123448,0.017510257359322524,0.009495612102209072
0.14700000000000002,0.0231,-1.136,0.010858186034245144,1.1065860976454045,0.017303007361497345,0.009367983106906992
0.14800000000000013,0.0351,0.864,0.010867488993859658,1.1018987530113677,0.017325539415479218,0.009239813488121583
0.14900000000000002,0.0243,-1.136,0.01087037190246992,1.1065860976454045,0.017332521908698894,0.009367983106906992
0.15000000000000013,0.021,1.864,0.010856023837683585,1.1112536709123448,0.017297770455000572,0.009495612102209072
0.15100000000000002,0.0182,-3.136,0.010885274911231618,1.1069040837986996,0.017368617453753937,0.009376678043428392
0.15200000000000014,0.0157,0.864,0.010904045120736987,1.1112536709123446,0.017414079477814134,0.009495612102209065
0.15300000000000002,0.0088,-0.136,0.010893119058676529,1.1112536709123448,0.017387616219844974,0.009495612102209072
0.15400000000000014,0.0067,0.864,0.010869687061535118,1.1155862994417263,0.017330863202915856,0.009614082449560375
0.15500000000000003,-0.003,-0.136,0.010894030601871661,1.1155862994417263,0.017389824005467035,0.009614082449560375
0.15600000000000014,0.0024,0.864,0.010895630258196285,1.1155862994417263,0.017393698422228196,0.009614082449560375
0.15700000000000003,-0.0088,0.864,0.010970227257347568,1.1155862994417263,0.017574374645861396,0.009614082449560375
0.15800000000000014,-0.0044,-1.136,0.010947060195764028,1.1155862994417254,0.01751826331099251,0.00961408244956035
0.15900000000000003,-0.0167,-0.136,0.010896925439694422,1.1291079315619734,0.017396835391605855,0.00998381469020343
0.16000000000000014,-0.0181,0.864,0.010839732352580114,1.1245144692275333,0.017258311977590476,0.00985821216632771
0.16100000000000003,-0.0104,-0.136,0.010864103820596625,1.1062680200900352,0.0173173404218405,0.009359285671109366
0.16200000000000014,-0.0013,-0.136,0.01086057626977891,1.1015793220008487,0.017308796585390373,0.009231079043773462
0.16300000000000003,0.0023,-1.136,0.010901612660673028,1.105949851053732,0.017408187984811804,0.009350585733879195
0.16400000000000015,-0.0099,1.864,0.010876011624179945,1.1195878717902625,0.01734618148793804,0.009723500476715854
0.16500000000000004,0.0148,-1.136,0.010862628462561167,1.1238883721463497,0.01731376705935426,0.00984109231906168
0.16600000000000015,0.0112,-1.136,0.010799132219013265,1.1238883721463497,0.017159977206817924,0.00984109231906168
0.16700000000000004,0.0145,-0.136,0.010759054177097074,1.1281724794692054,0.017062906958062396,0.00995823591426887
0.16800000000000015,0.011700000000000555,-0.136,0.01075871909047604,1.14092828634821,0.017062095367972083,0.010307027614608241
0.16900000000000004,0.0142,0.864,0.010759778164527238,1.1451486475455428,0.01706466047785982,0.010422428151165978
0.17000000000000015,0.012099999999996535,-0.136,0.010752620369291659,1.140619785625915,0.017047324077905157,0.01029859204541957
0.17100000000000004,-0.0035,0.864,0.01076467224867264,1.1360728699107427,0.01707651410001077,0.010174262281051224
0.17200000000000015,-0.013199999999999601,0.864,0.0106409953706677,1.1315076827548076,0.01677696490201475,0.010049432906822697
0.17300000000000004,-0.0114,0.8639999999999722,0.010532224112034357,1.1315076827548076,0.016513517572051144,0.010049432906822697
0.17400000000000015,-0.0032999999999983125,-0.13600000000002777,0.01060055907603567,1.1133758470997115,0.016679026954175606,0.009553640374966137
0.17500000000000004,0.0043,-1.1359999999999721,0.01060018221741771,1.1133758470997115,0.016678114191025464,0.009553640374966137
0.17600000000000016,0.00549999999999638,-0.136,0.01066846040933583,1.1177002493025232,0.016843486069420346,0.009671885783631946
0.17700000000000005,-0.0108,-0.136,0.01049057611180795,1.0999807755224984,0.016412644836037705,0.009187368775223297
0.17800000000000016,-0.0043000000000012655,-1.136,0.010266478845129504,1.0633257100941516,0.015869874371667248,0.008185081525339682
0.17900000000000005,-0.01,0.864,0.010275081052572759,1.025704286918769,0.01589070918236258,0.0071563704227808195
0.18000000000000016,-0.008200000000000311,1.864,0.010222055509108765,1.0453579020755022,0.015762279687099055,0.007693774125530164
0.18100000000000005,-0.0096,0.864,0.01019659870692326,1.0407329499183602,0.015700622530149262,0.007567310551553284
0.18200000000000016,-0.013899999999998533,0.864,0.010196608825916454,1.0360873528133858,0.01570064703866164,0.007440282467112568
0.18300000000000005,-0.0073,-0.136,0.010128151392279941,1.0733449045873096,0.015534841031318341,0.008459043958014278
0.18400000000000016,-0.0011000000000002442,-0.136,0.010109816669774375,1.0591115874115737,0.01549043377015023,0.008069851573221614
0.18500000000000005,-0.0022,-0.136,0.010053826675893182,1.0542131781453816,0.015354824284905592,0.007935910654146913
0.18600000000000017,0.00040000000000015544,-0.136,0.009945876664354059,1.068511747520569,0.015093366040633657,0.00832688727931053
0.18700000000000006,0.0011,-0.136,0.00999220926251437,1.0538792937273356,0.015205585016758191,0.007926780999316626
0.18800000000000017,-0.0028999999999998445,-0.136,0.010085705877253144,1.048956451018416,0.015432036689957964,0.007792171978089319
0.18900000000000006,-0.0022,-2.136,0.010034761898809256,1.0486208928421157,0.01530864880912074,0.007782996556417861
0.19000000000000017,-0.007999999999998224,0.864,0.010095137416359229,1.0337069159402796,0.015454880167418505,0.00737519237658385
0.19100000000000006,-0.0,0.864,0.010219924647623705,1.0337069159402796,0.015757118675120203,0.00737519237658385
0.19200000000000017,-0.0064999999999998444,-1.136,0.010210534780850851,1.03370691594028,0.015734376129330964,0.007375192376583862
0.19300000000000006,-0.0058,-0.136,0.010114616224197267,1.0337069159402803,0.015502058438409221,0.007375192376583868
0.19400000000000017,-0.00029999999999953366,-0.136,0.009889916471108642,1.0387020350788012,0.014957828733444372,0.00751177770703365
0.19500000000000006,0.0018,-0.136,0.00971136474827366,1.034047313855087,0.01452537097546401,0.007384500134895325
0.19600000000000017,0.0011000000000008882,-0.136,0.00970821719157845,1.034047313855087,0.014517747496452356,0.007384500134895325
0.19700000000000006,0.0051,-0.136,0.009702097673967834,1.0199557030249657,0.014502925836802207,0.0069991825341680376
0.19799999999999995,-0.0032,0.864,0.00943917407687857,1.0152150342401502,0.013866116807395973,0.006869554832691687
0.19900000000000007,0.0004,0.864,0.008763526132614184,1.0101037749326314,0.012229676729857994,0.0067297937935308265
0.19999999999999996,0.008,-0.136,0.00842766454180168,1.0101037749326314,0.011416209638931456,0.0067297937935308265
0.20100000000000007,-0.0069,-1.136,0.008163675686535088,0.989750360901676,0.010776820521494021,0.006173254959499644
0.20199999999999996,0.0043,-1.136,0.007965978923586537,0.9492173067118544,0.010297992888205258,0.005064928922196156
0.20300000000000007,-0.0015,-1.136,0.007810702161868345,0.9437486772161483,0.009921907801078088,0.004915396038982559
0.20399999999999996,0.0075,-0.136,0.007787364921755125,0.9437486772161483,0.009865384288582272,0.004915396038982559
0.20500000000000007,-0.0037,-0.13600000000002777,0.00775853644429899,0.9437486772161483,0.009795560830546026,0.004915396038982559
0.20599999999999996,0.0129,-1.136,0.007799209671547943,0.9437486772161483,0.009894072636462144,0.004915396038982559
0.20700000000000007,0.0016,-1.1359999999999166,0.00779604654595634,0.9437486772161483,0.009886411449105138,0.004915396038982559
0.20799999999999996,0.0034,1.8639999999999446,0.007780537536841184,0.9382481740633192,0.009848848152577128,0.004764991610192159
0.20900000000000007,0.0088,-0.136,0.0077822615540784745,0.933092474381414,0.00985302377528925,0.004624015404174903
0.20999999999999996,0.0073,-0.136,0.007607632237524027,0.933092474381414,0.009430066205820289,0.004624015404174903
0.21100000000000008,-0.0004,-0.136,0.00739130175454512,0.9327152333478184,0.008906107130172893,0.0046137002165279216
0.21199999999999997,-0.0095,-1.136,0.007319712617070961,0.9327152333478184,0.008732716039925975,0.0046137002165279216
0.21300000000000008,0.0068,1.864,0.007323917679837132,0.9327152333478184,0.008742900831129058,0.0046137002165279216
0.21399999999999997,0.0002,-1.136,0.007382959675926171,0.9327152333478184,0.008885902359481428,0.0046137002165279216
0.21500000000000008,-0.0056,-1.136,0.007454639166723358,0.9106337613392778,0.009059512288252457,0.004009909782813224
0.21599999999999997,-0.0002,-1.136,0.007374380837502212,0.9275287791401151,0.00886512414926875,0.004471883066190329
0.21700000000000008,-0.0017,-2.136,0.007297259072903449,0.9223131603458934,0.008678332866158623,0.004329268446447784
0.21799999999999997,0.0058,-1.136,0.007313680834545434,0.9279081287289743,0.008718106877347212,0.00448225590966282
0.21900000000000008,0.0022,-0.136,0.0072217812075903364,0.9330924743814139,0.008495523157620444,0.0046240154041749006
0.21999999999999997,-0.0066,-0.136,0.0070991755349767,0.9275287791401151,0.008198568451990577,0.004471883066190329
0.22100000000000009,-0.0033,-0.136,0.007001340436051338,0.933092474381414,0.007961608836808642,0.004624015404174903
0.22199999999999998,-0.0009,-0.136,0.006993434820526323,0.9327152333478184,0.007942461193139233,0.0046137002165279216
0.2230000000000001,-0.0129,-0.136,0.006898348662702798,0.9323378396755764,0.007712159597755961,0.004603380855166685
0.22399999999999998,0.0019,0.864,0.006804902525047134,0.9267696141311734,0.007485830181602181,0.0044511246416689635
0.2250000000000001,0.0156,-1.136,0.006821607387529579,0.9319602931792571,0.007526289871723485,0.004593057315020814
0.22599999999999998,-0.0083,-0.136,0.006811303658152626,0.9319602931792574,0.0075013339226324095,0.004593057315020824
0.2270000000000001,0.008,-1.136,0.006801435859369596,0.9371222217238743,0.007477433810832009,0.0047342038415546074
0.22799999999999998,0.005,0.864,0.0067351840594155705,0.942629295143519,0.007316969916026799,0.004884787926132841
0.2290000000000001,0.0024,1.864,0.006726837532335017,0.942629295143519,0.0072967543710246675,0.004884787926132841
0.22999999999999998,0.0045,-0.136,0.006661269237427476,0.942629295143519,0.007137945946439952,0.004884787926132841
0.2310000000000001,-0.002,-0.136,0.006763528853384022,0.9263897983293481,0.00738562187779667,0.004440739050181806
0.23199999999999998,-0.0002,-3.136,0.0067693236875208595,0.9207856041634301,0.007399657144098754,0.00428749931939066
0.2330000000000001,0.0016,0.864,0.006643099675634004,0.9151470915762864,0.007093938709590422,0.00413332119398396
0.23399999999999999,-0.0032,-0.136,0.00663671990103995,0.9151470915762864,0.007078486699531049,0.00413332119398396
0.2350000000000001,-0.0046,1.8639999999999168,0.006637072188067776,0.9204033189892672,0.007079339949535026,0.004277046205983127
0.236,0.0131,-1.1359999999999721,0.006660473271039366,0.925629699173693,0.007136018091395127,0.004419955082578483
0.2370000000000001,-0.0137,-0.13600000000002777,0.006662270055064668,0.9308267348858777,0.007140369957503273,0.004562061571017168
0.238,-0.0101,-1.136,0.0066823966965413465,0.9359949149243413,0.007189117301468827,0.004703379036887768
0.2390000000000001,0.0196,-1.136,0.00670572523929155,0.9415085822117082,0.007245619748684227,0.0048541434225913204
0.24,-0.0163,-1.136,0.006702707740671475,0.9204033189892653,0.0072383112743260565,0.004277046205983075
0.2410000000000001,-0.0022,-1.136,0.006678305716393991,0.9204033189892653,0.007179208821873238,0.004277046205983075
0.242,-0.0065,0.864,0.00671596854730301,0.914762450034094,0.007270429355371877,0.00412280364861854
0.2430000000000001,0.0055,0.864,0.006685023906175936,0.909473622270847,0.007195480483914113,0.0039781872205208995
0.244,0.0091,-0.136,0.006661969161475254,0.9147624500340938,0.007139641183985985,0.004122803648618538
0.2450000000000001,0.0058,-1.136,0.00666251184331079,0.9204033189892653,0.007140955576063341,0.004277046205983075
0.246,0.0029,0.864,0.006763857307922139,0.9422558722738796,0.007386417404778417,0.004874577141438264
0.2470000000000001,0.0055,-0.136,0.006780676193503113,0.9473617045355657,0.007427153262347254,0.005014189784769539
0.248,-0.0014,-0.136,0.006798637103256472,0.9473617045355657,0.0074706551375456455,0.005014189784769539
0.2490000000000001,-0.0036,-1.136,0.006792329078321093,0.9469901477799957,0.007455376907363799,0.005004030026647052
0.25,-0.0017,-0.136,0.006792398747049539,0.9469901477799957,0.007455545647164384,0.005004030026647052
0.2510000000000001,-0.0035,0.864,0.006798531603859337,0.9682428410375842,0.007470399614764745,0.005585158534503848
0.252,0.0012,-0.136,0.00680059131889357,0.9686062453074968,0.00747538830785401,0.005595095373028901
0.2530000000000001,-0.0064,-0.136,0.006813492031281451,0.9837917100863421,0.007506634229579272,0.006010323051755752
0.254,0.0002,0.864,0.006968698202974353,0.9841493728407106,0.007882548345496598,0.006020102895667435
0.2550000000000001,-0.0085,-0.136,0.006931128218940214,1.004616268677209,0.007791552689981261,0.0065797447487618895
0.256,-0.0009,0.864,0.007075669994699533,1.004616268677209,0.008141637311327346,0.0065797447487618895
0.2570000000000001,-0.0073,-0.136,0.006965446632177217,1.0199557030249649,0.007874672941134673,0.006999182534168013
0.258,0.0047,-0.136,0.006965458482590474,1.0199557030249655,0.007874701643199637,0.0069991825341680315
0.2590000000000001,0.0032,-0.136,0.0069933292189309415,1.004616268677211,0.007942205422831042,0.006579744748761944
0.26,0.0018,-1.136,0.006960358931533245,1.004616268677211,0.007862350373876104,0.006579744748761944
0.2610000000000001,-0.0017,-0.136,0.006970369432466313,1.004616268677211,0.00788659611466784,0.006579744748761944
0.262,-0.0028,-0.136,0.006984780708279775,1.0046162686772109,0.007921500667415763,0.006579744748761938
0.2630000000000001,0.0096,-1.136,0.0069807625705113835,1.0192653813785915,0.007911768614299812,0.006980306545913914
0.264,0.0143,-0.136,0.00696278389461809,0.999098622984083,0.007868223708964705,0.006428871578492802
0.2650000000000001,0.01,1.864,0.006977299050109487,0.994258511687362,0.007903379861483869,0.00629652474500524
0.266,0.0035,-0.136,0.006963557465013981,0.9942585116873619,0.007870097320228352,0.006296524745005237
0.2670000000000001,-0.0153,0.864,0.006966686006436862,1.0343875997512135,0.007877674743666256,0.0073938048301950676
0.268,-0.0018,-1.136,0.007111862155469724,1.0350678359293104,0.008229295836569395,0.007412405043842178
0.26900000000000013,0.0051,-0.136,0.007430627974044215,1.0499624821000118,0.009001356441937529,0.0078196806488361
0.27,0.0029,0.864,0.0076423175131416325,1.0499624821000115,0.009514075008929871,0.007819680648836093
0.27100000000000013,0.0011,-1.136,0.007700063843788956,1.0545469568509218,0.009653938395778366,0.007945037418399989
0.272,0.0065,-1.136,0.007696423299737599,1.0736727357215021,0.0096451208862451,0.008468008093313897
0.27300000000000013,-0.0014,-0.136,0.007724981522771438,1.0784827643712123,0.009714289779768077,0.008599532354172292
0.274,-0.0058,-1.136,0.007660453706202298,1.0832714353567388,0.009558001425683424,0.008730472616223197
0.27500000000000013,-0.0021,-1.136,0.0076873339562162,1.0829465099586841,0.009623106217003232,0.008721587934670243
0.276,0.0041,-1.136,0.007531270275901122,1.0832714353567385,0.009245115188859537,0.00873047261622319
0.27700000000000014,0.0052,0.864,0.00748649027967872,1.0832714353567385,0.009136656662325986,0.00873047261622319
0.278,0.0027,-1.136,0.007446344915765358,1.0788090342011074,0.009039423357625122,0.008608453797544555
0.27900000000000014,-0.0035,0.864,0.0074431876710535924,1.0740004667875376,0.009031776413939749,0.008476969492374014
0.28,-0.0143,0.864,0.007441261910408855,1.0548806299443052,0.009027112162497047,0.007954161294819774
0.28100000000000014,-0.01,-0.136,0.0074278285365045925,1.0548806299443052,0.008994576118215254,0.007954161294819774
0.28200000000000003,0.0049,-0.136,0.007425154764071346,1.0548806299443052,0.00898810015924117,0.007954161294819774
0.28300000000000014,0.0067,-0.13600000000005552,0.007427827147412568,1.0166007095511238,0.008994572753791697,0.006907444403490087
0.28400000000000003,0.0013,-1.136,0.007459948551336516,1.0162544678532508,0.00907237178089473,0.0068979768541868524
0.28500000000000014,0.006,-1.136,0.007529449866491383,1.0162544678532508,0.009240706101344488,0.0068979768541868524
0.28600000000000003,0.0016,-1.136,0.007521770928942466,0.9960267487389801,0.00922210747869695,0.006344874991578202
0.28700000000000014,0.0053,-1.1359999999998889,0.00741042475679028,0.9911716369113986,0.008952423629086983,0.00621211798720028
0.28800000000000003,0.0063,0.8639999999999445,0.0073049286347365355,1.0108003534771182,0.008696908780534389,0.006748840868894704
0.28900000000000015,0.0009,-0.136,0.007235905497544286,1.0111484627974376,0.008529732621800158,0.006758359486014728
0.29000000000000004,-0.0056,0.864,0.006969255402902904,1.0111484627974376,0.007883897900841246,0.006758359486014728
0.29100000000000015,-0.0071,-0.136,0.006777348462682775,1.0114964523149723,0.007419093396069427,0.0067678748272763595
0.29200000000000004,-0.0009,-0.136,0.006807840296097292,1.0118443221533289,0.007492945553336707,0.00677738689605947
0.29300000000000015,-0.0016999999999998223,-1.136,0.0068181185884999196,1.0118443221533289,0.0075178398932945175,0.00677738689605947
0.29400000000000004,-0.0009,0.864,0.006930716157063103,1.0067159493421431,0.007790554663455976,0.006637157909390517
0.29500000000000015,-0.011799999999996291,1.864,0.006896919997649292,1.026733101583854,0.007708699327106456,0.007184502082327947
0.29600000000000004,0.0049,-1.136,0.006892174761312818,1.0267331015838534,0.007697206218921469,0.007184502082327935
0.29700000000000015,0.007099999999998712,-0.136,0.006904191813829123,1.021679466503033,0.007726311889290924,0.007046316706094678
0.29800000000000004,0.0013,-1.136,0.006883493392080052,1.0263902779449166,0.0076761796759400175,0.007175127995602136
0.29900000000000015,-0.0005000000000017764,0.864,0.006885915168626723,1.0314208318014126,0.007682045293135271,0.007312682244415989
0.30000000000000004,-0.0085,1.864,0.006877208037931244,1.0314208318014126,0.007660956355099714,0.007312682244415989
0.30100000000000016,-0.007099999999999756,0.864,0.006877195285293787,1.0360873528133812,0.0076609254678200196,0.00744028246711244
0.30200000000000005,-0.006,-2.136,0.006868994310559428,1.0310795667870458,0.007641062455071875,0.00730335077634373
0.30300000000000016,-0.01469999999999629,0.864,0.00690057898998237,1.0310795667870458,0.007717561518944799,0.00730335077634373
0.30400000000000005,0.002,1.864,0.006896982656286246,1.0310795667870458,0.0077088510882500905,0.00730335077634373
0.30500000000000016,-0.014699999999997491,-0.136,0.0069294462787382605,1.0310795667870458,0.007787478979141372,0.00730335077634373
0.30600000000000005,-0.0034,1.864,0.0068783176928816445,1.0310795667870458,0.00766364397347921,0.00730335077634373
0.30700000000000016,-0.0016000000000012213,-1.136,0.006878187739641101,1.030738188783945,0.0076633292227383295,0.007294016218734838
0.30800000000000005,-0.0071,-1.136,0.006852832393448928,1.030738188783945,0.007601917795321204,0.007294016218734838
0.30900000000000016,-0.0055999999999969356,-0.136,0.006853525126074519,1.0502976116538407,0.007603595615021773,0.007828844350358296
0.31000000000000005,0.0082,-0.136,0.006848435193688049,1.0552141975257152,0.007591267642414313,0.00796328228614566
0.31100000000000017,-0.004500000000001043,-0.136,0.006848435193688049,1.0506326343084516,0.007591267642414313,0.007838005128854108
0.31200000000000006,-0.0092,-2.136,0.006856323196984606,1.0555476596951905,0.007610372628725329,0.00797240039511308
0.31300000000000017,0.004599999999997979,-0.136,0.006851480137827861,1.060439904710338,0.0075986425906644384,0.008106172760397065
0.31400000000000006,-0.0045,-0.136,0.00680620739349374,1.0607717241377739,0.007488990613066626,0.008115245950623191
0.31500000000000017,0.003499999999999689,-1.136,0.006664061156145472,1.0607717241377739,0.0071447080593452636,0.008115245950623191
0.31600000000000006,0.0021,2.864,0.006604664236517257,1.0460310042670788,0.007000846895277428,0.0077121792691740845
0.31700000000000017,0.014400000000001753,1.864,0.006596877899086992,1.0506326343084516,0.006981988146817841,0.007838005128854108
0.31800000000000006,0.0223,1.864,0.006425953944609769,1.0506326343084516,0.006568005078132067,0.007838005128854108
0.3190000000000002,0.017999999999998555,-0.136,0.006507031174362443,1.0506326343084516,0.006764376619360516,0.007838005128854108
0.32000000000000006,0.0115,-1.136,0.006503305351816544,1.0552141975257152,0.006755352562693635,0.00796328228614566
0.3210000000000002,-0.0022999999999980016,1.864,0.006512431363370594,1.0548806299443005,0.006777456043037058,0.007954161294819646
0.32200000000000006,0.0067,0.864,0.006511536584657022,1.0502976116538407,0.0067752888615043565,0.007828844350358296
0.3230000000000002,0.008199999999999668,0.864,0.006494629463848647,1.0649792776800842,0.006734339295504087,0.008230296277757485
0.32400000000000007,0.0067,-1.136,0.006585588216752804,1.0649792776800842,0.006954644189374956,0.008230296277757485
0.32499999999999996,-0.0024,0.864,0.006563996822379537,1.060439904710338,0.006902349168895302,0.008106172760397065
0.32600000000000007,0.0013,-0.136,0.006716858554212531,1.060439904710338,0.007272584979448571,0.008106172760397065
0.32699999999999996,-0.002,-0.136,0.006709018507143922,1.060439904710338,0.007253596144594905,0.008106172760397065
0.32800000000000007,-0.0045,-0.136,0.006829781075053494,1.0740004667875334,0.007546086794009646,0.0084769694923739
0.32899999999999996,0.0017,-0.136,0.00682445227291542,1.0740004667875331,0.007533180271525502,0.008476969492373893
0.33000000000000007,-0.0005,-0.136,0.00693090313245101,1.0736727357214977,0.007791007523589543,0.008468008093313776
0.33099999999999996,0.0002,-0.136,0.00682640301326003,1.0736727357214977,0.007537905024568695,0.008468008093313776
0.3320000000000001,-0.002,-1.136,0.006761773557191763,1.0781563958061036,0.007381370496494697,0.008590608211008212
0.33299999999999996,0.0071,-1.136,0.006816254373945226,1.0968705817213633,0.007513324708372656,0.009102324387630034
0.3340000000000001,0.0107,-0.136,0.006840081531092674,1.101579322000844,0.007571034814976074,0.009231079043773334
0.33499999999999996,-0.0031,-0.136,0.006884358356235538,1.11558629944172,0.007678274645697103,0.009614082449560205
0.3360000000000001,0.0023,-0.136,0.006914379619746106,1.1294195767491828,0.007750987068200676,0.009992336240880735
0.33699999999999997,-0.0057,-2.136,0.006943946109925536,1.1297311359666322,0.007822598015725175,0.0100008554408217
0.3380000000000001,-0.0013,0.864,0.006924169244835027,1.1300426092854259,0.007774697840912379,0.010009372291970584
0.33899999999999997,0.0023,-1.136,0.006997446581670548,1.1297311359666335,0.007952177801875559,0.010000855440821736
0.3400000000000001,-0.0014,0.864,0.0072744299933891554,1.1339931701550865,0.008623040134244569,0.010117395473576688
0.34099999999999997,-0.0068,0.864,0.007562020024153358,1.129419576749184,0.009319592023787156,0.009992336240880764
0.3420000000000001,-0.0075,0.864,0.007854835209463782,1.1336827822324147,0.01002879939816227,0.01010890830123703
0.34299999999999997,-0.0136,-0.136,0.008029947153301107,1.138239245652822,0.010452925905737116,0.010233499135749731
0.3440000000000001,-0.006,1.8639999999998336,0.008096548973112601,1.138239245652822,0.010614237559390047,0.010233499135749731
0.345,-0.0052,-1.1359999999999444,0.008119731460292764,1.1508834830260073,0.010670386255527844,0.010579240106487291
0.3460000000000001,0.005,-0.13600000000005552,0.008350703801732496,1.137311304199445,0.011229808362178791,0.010208125728923424
0.347,0.0013,-1.1359999999998889,0.008494143032813494,1.1376207021182398,0.01157722258644279,0.010216585830836346
0.3480000000000001,-0.0023,0.863999999999889,0.008490111404259383,1.1421614559693714,0.011567457858229374,0.010340747106683625
0.349,0.001,-1.136,0.008492807998390584,1.1379300159131718,0.01157398909205701,0.010225043632486691
0.3500000000000001,0.0017,-1.1359999999999444,0.008495501657076259,1.1333723093062025,0.011580513216145399,0.010100418804581108
0.351,0.001,-0.136,0.008455460852692788,1.1195878717902594,0.011483533157838096,0.009723500476715769
0.3520000000000001,-0.0067,-0.136,0.00861984994141221,1.119273489113223,0.011881688580901354,0.00971490407277826
0.353,-0.006,-0.136,0.008853954762256252,1.105949851053729,0.012448697648902206,0.00935058573387911
0.3540000000000001,-0.0067,0.864,0.00883020812778225,1.105949851053729,0.0123911825706876,0.00935058573387911
0.355,-0.0013,-0.136,0.008961221137669353,1.0918192543656362,0.012708500105474982,0.00896420211327397
0.3560000000000001,0.0008,-1.136,0.008939241565542067,1.0962286962990233,0.012655264906549913,0.009084772827779317
0.357,-0.0043,-0.136,0.009006451636513252,1.077503362111368,0.012818049763197656,0.00857275181549155
0.3580000000000001,0.0048,1.864,0.009008488195205439,1.0730169732932369,0.012822982370915097,0.008450077083967104
0.359,-0.0018,0.864,0.0089888982682336,1.0685117475205672,0.012775534965968635,0.00832688727931048
0.3600000000000001,0.0018,-0.136,0.008994956281570647,1.0733449045873051,0.012790207660378732,0.008459043958014157
0.361,-0.0037,0.864,0.009051404985339403,1.077829928416099,0.012926928155063038,0.008581681365600067
0.3620000000000001,-0.0011,0.864,0.00905043213833961,1.077829928416099,0.012924571889742779,0.008581681365600067
0.363,-0.0055,0.864,0.009034729336744459,1.059443822870098,0.012886539221874738,0.008078936139301274
0.3640000000000001,0.0036,-0.136,0.009078297604594667,1.0643181589316626,0.012992062905065419,0.008212218806486912
0.365,0.0046,-1.136,0.009067146459944473,1.0643181589316626,0.012965054490149175,0.008212218806486912
0.3660000000000001,0.0014,-1.136,0.00906132763028598,1.0643181589316622,0.012950961105956478,0.0082122188064869
0.367,-0.0034,0.864,0.009062341738618739,1.0206455577669709,0.012953417307492764,0.007018045755501937
0.3680000000000001,0.0104,-1.136,0.008951951200102162,1.0206455577669709,0.01268604803190619,0.007018045755501937
0.369,0.0046,-1.136,0.008686631068671201,1.0056666569869828,0.012043434522700616,0.0066084663128352355
0.3700000000000001,-0.0045,-1.136,0.008553355385893741,1.0056666569869828,0.01172063672466139,0.0066084663128352355
0.371,0.0002,-0.136,0.00875415395413949,1.0060165427086816,0.012206977025670295,0.006618033503445236
0.3720000000000001,0.0045,1.864,0.008753404458674539,0.9855787259145634,0.012205161724628988,0.0060591867806574955
0.373,0.011,-0.136,0.008728573604869902,0.9855787259145634,0.012145020633887369,0.0060591867806574955
0.3740000000000001,0.0023,-0.136,0.008691653036595803,0.9855787259145633,0.012055597883293502,0.006059186780657492
0.375,-0.0144,-1.136,0.00867645989582168,0.9859357404027549,0.01201879962959124,0.006068948898535515
0.3760000000000001,-0.0025,-1.136,0.008675916032976832,0.9806718893643538,0.01201748237707305,0.005925015427965415
0.377,-0.0138,-2.136,0.008674945883280836,0.9806718893643538,0.01201513264470545,0.005925015427965415
0.3780000000000001,-0.0,-1.136,0.008691989627141248,0.9806718893643538,0.01205641311593494,0.005925015427965415
0.379,0.0126,-1.136,0.008713504429515016,0.9806718893643538,0.012108522628238833,0.005925015427965415
0.3800000000000001,0.0078,0.864,0.008711903501677571,0.9806718893643538,0.012104645131834558,0.005925015427965415
0.381,0.0035,-1.136,0.008712449717447475,0.9855787259145634,0.012105968083209519,0.0060591867806574955
0.3820000000000001,0.0099,1.864,0.008748193982501491,0.9908165090416344,0.012192541791267221,0.006202407456560558
0.383,0.0088,0.864,0.008747759006599284,0.9859357404027549,0.012191488266269215,0.006068948898535515
0.3840000000000001,-0.0079,1.864,0.008723422400376548,0.9862926256601957,0.012132544258354699,0.006078707482759123
0.385,0.0088,1.864,0.008664665657073946,0.9915266375875941,0.011990233621014309,0.0062218250398898
0.3860000000000001,0.0066,0.864,0.00868058671507421,0.9915266375875941,0.012028794912600574,0.0062218250398898
0.387,0.0008,0.864,0.008678837882439587,0.9915266375875941,0.01202455918623376,0.0062218250398898
0.3880000000000001,-0.0119,-1.136,0.008693389730712892,0.9922362579053786,0.012059804209797942,0.0062412287263506555
0.389,-0.0199,-1.136,0.008701169987032652,0.9918815112068148,0.012078648229621068,0.006231528618364111
0.3900000000000001,-0.0214,-0.136,0.008727906349475652,0.9870060090435072,0.012143404520823792,0.006098214065574249
0.391,-0.0224,-1.136,0.008759787950520185,0.9817478964957931,0.012220622737985916,0.005954437506906554
0.3920000000000001,-0.0167,0.864,0.008734024122910945,0.9764614701358356,0.01215822195602773,0.005809886742200063
0.393,-0.0105,-1.136,0.008702024280002458,0.9761009903855661,0.012080717353438608,0.005800029871033303
0.39400000000000013,0.0062,-2.136,0.00859575291649463,0.9813893585350109,0.01182332484626809,0.005944633731562223
0.395,0.0228,-1.136,0.00857870179748429,0.9654373538472267,0.011782026512198902,0.0055084459708309285
0.39600000000000013,0.0163,0.864,0.00856361486261282,0.965801813744254,0.011745485492455613,0.005518411674168668
0.397,0.0066,0.864,0.008562471012102729,0.965801813744254,0.011742715051380026,0.005518411674168668
0.39800000000000013,-0.0025,-0.136,0.008562325326222295,0.9607939805420151,0.01174236219570201,0.005381478693433453
0.399,0.0022,-0.136,0.008569539836681052,0.9607939805420163,0.011759835961669551,0.005381478693433484
0.40000000000000013,-0.0021,-1.136,0.008572038610848461,0.9768218168570991,0.01176588806946767,0.005819739975853834
0.401,0.0182,-1.136,0.008583774578695687,0.9718707689307681,0.011794312944133436,0.005684359717978569
0.40200000000000014,0.0211,-1.136,0.008583406582549474,0.9925908778193746,0.011793421646162126,0.00625092536757062
0.403,0.0132,0.864,0.00863957966730441,0.9925908778193746,0.011929474583127687,0.00625092536757062
0.40400000000000014,0.0154,-1.136,0.008618912822590597,0.9925908778193747,0.011879418850326255,0.006250925367570623
0.405,0.0133,-1.136,0.008600762856324034,0.9873625074490926,0.01183545907444489,0.006107962071814221
0.40600000000000014,0.0115,-0.136,0.008604341874614597,0.9922362579053853,0.011844127566695386,0.006241228726350838
0.40700000000000003,0.0025,-0.136,0.008627761618227354,0.9922362579053853,0.011900850905201665,0.006241228726350838
0.40800000000000014,0.0039,-0.1359999999999445,0.008617858596989495,0.9922362579053853,0.011876865483533599,0.006241228726350838
0.40900000000000003,-0.0065,0.863999999999889,0.008605638073596551,0.9715085857952712,0.01184726700045011,0.005674456269857845
0.41000000000000014,-0.013,-1.1359999999999444,0.008631353186117494,0.9661661361587099,0.01190954979296787,0.005528373618216205
0.41100000000000003,-0.0043,-0.136,0.008648933544939072,0.9661661361587099,0.011952129962118613,0.005528373618216205
0.41200000000000014,-0.0075,-0.1359999999999445,0.008646937357812377,0.9658018137442569,0.011947295135573043,0.005518411674168747
0.41300000000000003,-0.01,0.8639999999999445,0.00865108775306337,0.9604276202908885,0.011957347520374927,0.005371461027272518
0.41400000000000015,0.0002,-0.13600000000005552,0.008711184420517317,0.9604276202908885,0.012102903495173584,0.005371461027272518
0.41500000000000004,0.0013,-1.1359999999999444,0.008758779898479199,0.9604276202908885,0.012218181204974357,0.005371461027272518
0.41600000000000015,0.0025,-0.135999999999889,0.008746987980746185,0.9607939805420168,0.01218962081796638,0.005381478693433499
0.41700000000000004,-0.0029,1.864,0.008746149715623193,0.9557599084811261,0.012187590514086213,0.005243828243688998
0.41800000000000015,-0.005400000000000955,0.864,0.008766744858382892,0.9553916178362128,0.012237472582552037,0.00523375779330692
0.41900000000000004,-0.0097,-0.136,0.008704962526085288,0.9553916178362128,0.01208783387571686,0.00523375779330692
0.42000000000000015,-0.02189999999999469,0.864,0.008693093452868733,0.9553916178362123,0.012059086615757457,0.005233757793306905
0.42100000000000004,0.002,-0.136,0.008720986952884336,0.950328928869248,0.012126645529709362,0.005095324849799168
0.42200000000000015,-0.0011999999999993559,0.864,0.008739555462901272,0.9553916178362105,0.012171619031412182,0.005233757793306856
0.42300000000000004,0.0017,0.864,0.00873383058890623,0.9553916178362093,0.012157753210722768,0.0052337577933068225
0.42400000000000015,0.004299999999999533,0.864,0.008680494848619054,0.9607939805420133,0.012028572409223962,0.005381478693433402
0.42500000000000004,0.0022,-0.136,0.008709783151752701,0.9661661361587052,0.012099509579177412,0.005528373618216074
0.42600000000000016,1.2878587085650374e-15,-0.136,0.008661264746771258,0.9661661361587047,0.011981996511782089,0.005528373618216062
0.42700000000000005,0.0058,-0.136,0.008890120130115212,0.9611602011495887,0.01253629128089015,0.005391492541214822
0.42800000000000016,0.007599999999998246,-0.136,0.008888493528805821,0.9456113693732716,0.01253235160254811,0.004966329043131533
0.42900000000000005,-0.0003,-0.136,0.008977319598946501,0.9404960348146457,0.01274749107324785,0.0048264565712893516
0.43000000000000016,0.0010999999999980017,-1.136,0.008892001362877641,0.9408701561481407,0.012540847684433965,0.004836686454610785
0.43100000000000005,-0.0079,0.864,0.008858563796945664,0.9568639299003301,0.01245986087251377,0.005274016338543981
0.43200000000000016,-0.001800000000000222,-0.136,0.008938124681413948,0.9729565094013892,0.012652559778879897,0.005714047942993839
0.43300000000000005,-0.0028,0.864,0.008893546071321649,0.9729565094013892,0.012544589015740222,0.005714047942993839
0.43400000000000016,-0.0035000000000005773,0.864,0.008873746693420401,0.9676220540957395,0.012496634314208202,0.00556818388640449
0.43500000000000005,-0.0061,-0.136,0.008838763301940139,0.9463554196729176,0.012411903465320872,0.0049866741746950015
0.43600000000000017,0.0014999999999979795,-0.136,0.008798418137524537,0.9245997626628235,0.012314186237665526,0.004391792747551364
0.43700000000000006,-0.0076,1.864,0.008790886528551813,0.9189846524845083,0.012295944449355594,0.004238254531955528
0.43800000000000017,-0.0039000000000007327,-1.136,0.008845011747222476,0.9186016178267477,0.01242703739175271,0.004227780924849641
0.43900000000000006,-0.0072,-0.136,0.008764927846995244,0.9189846524845083,0.01223307172515088,0.004238254531955528
0.44000000000000017,0.007599999999998557,-0.136,0.008659976139558222,0.9137202641487983,0.011978875465524912,0.004094306369657671
0.44100000000000006,0.0011,-0.136,0.008409355888638137,0.9137202641487983,0.011371865518510603,0.004094306369657671
0.44200000000000017,-0.0006999999999996004,-1.136,0.008115338391689096,0.9141053442269683,0.01065974610841063,0.004104835906244872
0.44300000000000006,0.0011,0.864,0.0079416522328183,0.9084253688279665,0.010239072895826151,0.003949524031731903
0.4440000000000002,0.002599999999999667,-1.136,0.007895478693423573,0.9030994299324433,0.010127239164918294,0.003803892845802714
0.44500000000000006,0.0011,0.864,0.00792018671771926,0.8869297430949847,0.010187082758815802,0.0033617528369824772
0.4460000000000002,0.0047999999999992,-0.136,0.007616337036731888,0.8814739354062677,0.00945114949692121,0.00321257055016028
0.44700000000000006,0.0012,-0.136,0.007441445300036453,0.8810745936482668,0.009027556337808986,0.003201651045646699
0.4480000000000002,-0.0041999999999985565,0.864,0.007412149067868538,0.8751802728343351,0.008956599963490955,0.003040478161913183
0.44900000000000007,0.0023,1.864,0.007409446822443789,0.8810745936482668,0.008950055042056735,0.003201651045646699
0.4500000000000002,0.004799999999998801,-0.136,0.007410759059981392,0.886532858927621,0.008953233321685957,0.0033509005322333034
0.45100000000000007,-0.0006,1.864,0.007416027301923633,0.8869297430949847,0.00896599316551533,0.0033617528369824772
0.4520000000000002,-0.011899999999997492,-0.136,0.007220474051332094,0.8869297430949847,0.008492357185005931,0.0033617528369824772
0.45300000000000007,-0.0006,-0.136,0.006928067766013205,0.9042677468696797,0.0077841401789721,0.003835839021763146
0.45399999999999996,0.0037,-0.136,0.006816093903977829,0.8985255858431022,0.0075129360451818335,0.0036788267584794343
0.45500000000000007,-0.0028,-1.136,0.0066855914464217445,0.8931406149250897,0.0071968550838248215,0.003531581415194791
0.45599999999999996,-0.0064,-1.136,0.006553311086605436,0.8931406149250897,0.006876467988574746,0.003531581415194791
0.4570000000000001,0.0012,-0.136,0.006470226169905295,0.8989171750739021,0.006675233767881531,0.003689534279762946
0.45799999999999996,-0.0014,-0.136,0.006479048721887895,0.9482129910969771,0.006696602259820345,0.005037467158756712
0.4590000000000001,0.0069,-0.136,0.00665052427861362,0.9482129910969771,0.007111921326097721,0.005037467158756712
0.45999999999999996,0.0058,-0.136,0.006908549726476654,0.9482129910969783,0.007736866887602351,0.005037467158756746
0.4610000000000001,-0.0032,-1.136,0.00680350252485763,0.9485840688696145,0.0074824393381339015,0.005047613819685657
0.46199999999999997,0.0029,-0.136,0.006806811084468068,0.9485840688696147,0.0074904527711523936,0.00504761381968566
0.4630000000000001,-0.0116,0.864,0.006771539013174472,0.9485840688696147,0.007405022730888656,0.00504761381968566
0.46399999999999997,-0.0098,-0.136,0.006785334360412077,0.9431117675541738,0.007438435485703961,0.004897980535120683
0.4650000000000001,-0.0007,0.864,0.006793313069083036,0.9482129910969795,0.00745776016321833,0.005037467158756779
0.46599999999999997,0.0007,-0.136,0.006792141414757623,0.9431117675541744,0.0074549223804478764,0.0048979805351206974
0.4670000000000001,-0.0069,-1.136,0.007035080636577854,0.9431117675541744,0.008043328639014023,0.0048979805351206974
0.46799999999999997,-0.0004,-1.136,0.007511940017498808,0.9212795161464323,0.009198296709165719,0.00430100472927993
0.4690000000000001,0.0007,-1.1359999999999444,0.007556272802336647,0.9156440450616863,0.009305672075987112,0.00414690976997969
0.47,0.0083,-0.13600000000005552,0.007500539524356491,0.9376075279588372,0.009170684364541336,0.004747473937949421
0.4710000000000001,0.0057,-1.1359999999998334,0.007178342251214579,0.9372321042606934,0.00839031267079345,0.004737208443083799
0.472,0.0032,1.8639999999999446,0.007189675431374201,0.9427385357939944,0.008417761981305828,0.004887774976076988
0.4730000000000001,0.0053,0.864,0.007219800914846442,0.9372321042606933,0.008490726827758307,0.004737208443083797
0.474,0.0075,0.863999999999889,0.007218369579288032,0.9368565301201528,0.008487260089063886,0.004726938834557642
0.4750000000000001,0.0111,-1.1359999999999444,0.007220250586465908,0.9364808053562115,0.008491815946234983,0.004716665107421619
0.476,0.0202,-0.13600000000005552,0.007217602345539958,0.9419916286330232,0.00848540182535592,0.004867351727187922
0.4770000000000001,0.0137,-1.1359999999999444,0.0072686881408965155,0.947470399552816,0.008609133191112377,0.005017161915050654
0.478,0.0126,-0.1359999999999445,0.007256578592456218,0.9529176709678806,0.008579803492773451,0.005166110788069239
0.4790000000000001,0.0025,0.8640000000000555,0.007216758931346758,0.9583339800178887,0.008483359050269526,0.005314213033661035
0.48,-0.0012,1.864,0.007235424124584219,0.9633546011946224,0.008528566721702652,0.005451495685680099
0.4810000000000001,-0.0124,1.864,0.007388510868672833,0.9583339800178887,0.00889934751885162,0.005314213033661035
0.482,0.0043,1.864,0.007351096829055502,0.9583339800178887,0.008808729565504547,0.005314213033661035
0.4830000000000001,0.0065,-0.136,0.007447792122070081,0.9633546011946224,0.009042928535754677,0.005451495685680099
0.484,0.0007,-0.136,0.007445760508179057,0.9579666789762433,0.009038007904497559,0.005304169642751536
0.4850000000000001,0.0025,-0.136,0.007448252320010603,0.9525482814087145,0.009044043149304327,0.005156010289241429
0.486,-0.0055,-0.136,0.007442806550032023,0.9525482814087145,0.009030853327117117,0.005156010289241429
0.4870000000000001,-0.0098,-1.136,0.00744196849872671,0.9525482814087145,0.009028823541109938,0.005156010289241429
0.488,-0.0008,0.864,0.007405727504782557,0.936104929787502,0.008941046740420351,0.004706387256716464
0.4890000000000001,-0.0146,-0.136,0.007395982169030622,0.9309373605063561,0.008917443237843438,0.0045650864912463425
0.49,-0.0055,-0.136,0.007363537031857987,0.9361049297875019,0.0088388601188667,0.004706387256716461
0.4910000000000001,-0.004,0.864,0.007329598498706297,0.956863929900333,0.008756659948950186,0.00527401633854406
0.492,0.0003,-0.136,0.007331792361982178,0.9618922240720278,0.008761973553201878,0.005411508799082852
0.4930000000000001,0.0061,-0.136,0.007352037770794667,0.9618922240720278,0.008811008555303406,0.005411508799082852
0.494,-0.0088,0.864,0.0073600408867544355,0.9618922240720278,0.008830392348021089,0.005411508799082852
0.4950000000000001,-0.0069,-0.136,0.007360040886754437,0.9622580267050967,0.008830392348021092,0.005421511217870388
0.496,-0.0015,-1.136,0.007382814790052856,0.9618922240720279,0.008885551441445231,0.005411508799082854
0.4970000000000001,-0.0001,-0.136,0.007414915272703246,0.9618922240720279,0.008963299796580986,0.005411508799082854
0.498,-0.0015,0.864,0.007433606728450821,0.9618922240720279,0.00900857107662042,0.005411508799082854
0.4990000000000001,-0.0026,-1.136,0.007421824013053122,0.9615262822731773,0.00898003297795128,0.005401502574979819
0.5,0.0035,0.864,0.007419593153438777,0.9456113693732752,0.008974629767431266,0.0049663290431316304
0.5010000000000001,-0.0067,-1.136,0.007404067138608996,0.9456113693732752,0.008937025282540003,0.0049663290431316304
0.502,-0.0056,1.864,0.007405150333705271,0.9456113693732752,0.008939648814339935,0.0049663290431316304
0.5030000000000001,-0.0045,-0.136,0.0073259672054937315,0.9510692884864266,0.008747864845232666,0.00511556906423325
0.504,-0.0078,-0.136,0.00732706194649092,0.9564960643495377,0.008750516341559312,0.005263957511832803
0.5050000000000001,-0.0013,-1.136,0.007332821429780261,0.9615262822731773,0.008764465987022747,0.005401502574979819
0.506,0.0049,0.864,0.007340647020211069,0.9618922240720278,0.00878341980745554,0.005411508799082852
0.5070000000000001,-0.0042,2.864,0.0073146535258908855,0.9568639299003331,0.008720462765667873,0.005274016338544063
0.508,-0.0155,-0.136,0.007330762310964427,0.9568639299003331,0.008759478737992765,0.005274016338544063
0.5090000000000001,-0.0198,0.864,0.007353916935634318,0.9622580267050969,0.00881555995027472,0.0054215112178703905
0.51,-0.005,0.864,0.007335331104904856,0.9622580267050967,0.008770544497274059,0.005421511217870388
0.5110000000000001,0.0048,-0.136,0.007312942504180825,0.9676220540957425,0.008716318618521937,0.005568183886404572
0.512,0.0029,-0.136,0.0073394089755406235,0.9626236903310355,0.008780421225229844,0.005431509835680551
0.5130000000000001,0.0109,-0.136,0.007343028299152053,1.0088112598641892,0.008789187338205693,0.006694451573888239
0.514,0.0033,-1.136,0.00748313574452279,1.0237441514572068,0.009128531875123903,0.007102772952466412
0.5150000000000001,-0.0003,-0.136,0.00782864641774822,1.0284455056194068,0.009965369340083277,0.007231325644403945
0.516,0.0185,-0.136,0.007844909528730497,1.0234003265656504,0.010004759094500163,0.00709337148773098
0.5170000000000001,0.0265,-0.136,0.00829291588431334,1.0284455056194046,0.011089844250891333,0.007231325644403885
0.518,0.0098,-0.136,0.008399120433132182,1.0284455056194055,0.01134707493083252,0.007231325644403909
0.5190000000000001,0.0032,1.864,0.008409012539929362,1.0427599092862503,0.011371033917389958,0.007622735238611605
0.52,-0.0026,-1.136,0.008522793609661438,1.0381233828542478,0.011646615163740727,0.007495955180460333
0.5210000000000001,-0.0045,0.864,0.008553301796426003,1.0427599092862496,0.01172050692932421,0.0076227352386115865
0.522,0.0067,-0.136,0.008539924224132071,1.0381233828542482,0.011688106038256917,0.007495955180460345
0.5230000000000001,-0.0009,-1.136,0.008591138463733891,1.023400326565646,0.011812148499921325,0.0070933714877308585
0.524,-0.0046,-1.136,0.008581518404306075,1.018330152161171,0.01178884842045003,0.006954733864228989
0.5250000000000001,-0.001,0.864,0.008564489288901739,1.0179844986896625,0.011747603379790557,0.006945282399245296
0.526,-0.0086,0.864,0.00849948638808818,1.0324439500323315,0.011590164357070895,0.0073406581420440535
0.5270000000000001,-0.004,0.864,0.008258438580840197,1.0371058674717262,0.011006339162704737,0.007468132485764686
0.528,0.0003,0.864,0.008147308342540066,1.0374451501512922,0.010737178311518136,0.007477409749353266
0.5290000000000001,-0.0052,-1.136,0.008129690730943735,1.0420846942347632,0.0106945079150025,0.007604272321436954
0.53,-0.015,-0.136,0.008130020571202197,1.041746922592145,0.010695306798241494,0.007595036375277471
0.5310000000000001,-0.0027,0.864,0.008163631891378795,1.0270758107930138,0.01077671444828005,0.007193873040113581
0.532,0.0121,-1.136,0.008069485383603917,1.011844322153312,0.010548688714181518,0.006777386896059009
0.5330000000000001,0.0022,-0.136,0.008058034263505594,0.9963800195867357,0.010520953749514382,0.006354534744256946
0.534,0.004,-0.136,0.008125471437267683,1.016600709551109,0.010684288656098499,0.0069074444034896805
0.5350000000000001,0.0054,-0.136,0.008125920190309565,1.016600709551109,0.010685375549752046,0.0069074444034896805
0.536,0.001,-0.136,0.008122178727263576,1.0213349465507096,0.010676313611313458,0.0070368962357856175
0.5370000000000001,0.002,-1.136,0.008150113641207438,1.0213349465507096,0.010743972831071879,0.0070368962357856175
0.538,0.0009,-0.136,0.008150113641207438,1.0213349465507096,0.010743972831071879,0.0070368962357856175
0.5390000000000001,0.002,-1.136,0.008149815363367265,1.0213349465507096,0.010743250392979608,0.0070368962357856175
0.54,-0.0028,-2.136,0.008041881440536646,1.0263902779449043,0.01048183111605393,0.007175127995601802
0.5410000000000001,-0.0021,-1.136,0.008023033924918703,1.0310795667870356,0.010436181854214164,0.007303350776343451
0.542,0.0055,-1.136,0.008031235620124172,1.0310795667870356,0.010456046611965471,0.007303350776343451
0.5430000000000001,-0.0035999999999986234,0.864,0.00819497418999435,1.0506326343084416,0.010852626458391324,0.007838005128853836
0.544,0.0026,0.864,0.008259929524391774,1.0506326343084416,0.011009950273789822,0.007838005128853836
0.5450000000000002,0.005900000000000555,-1.136,0.008212989857207276,1.0649792776800742,0.010896260957838985,0.008230296277757213
0.546,0.0084,-0.136,0.008230018079904164,1.0649792776800742,0.010937503836333594,0.008230296277757213
0.5470000000000002,-0.005399999999998712,-0.136,0.00824380751004146,1.0604399047103281,0.01097090225975017,0.00810617276039679
0.548,0.0004,-1.136,0.008266319761936819,1.0653096831983304,0.011025427625437926,0.008239330806392465
0.5490000000000002,-0.001399999999999689,0.864,0.00836040758528375,1.079461278013345,0.011253311224049134,0.008626288594705104
0.55,0.0,-0.136,0.008357220995433541,1.0937515438034526,0.011245593205536942,0.0090170381686452
0.5510000000000002,-0.0014000000000007993,1.864,0.008355296410029306,1.089008957703452,0.011240931800562839,0.008887358040565826
0.552,-0.005,0.864,0.008329237321399676,1.0845701635083072,0.011177815887342575,0.008765984724909142
0.5530000000000002,-0.0014000000000007327,0.864,0.008310396809782388,1.0701573018627701,0.011132183589407565,0.008371882919528466
0.554,-0.0047,-1.136,0.00830832561351374,1.0701573018627701,0.011127167088415834,0.008371882919528466
0.5550000000000002,0.0043999999999986454,0.864,0.008287951518137344,1.074655629081301,0.011077820403503153,0.008494884091788035
0.556,-0.0017,-0.136,0.008297076883945627,1.0890089577034519,0.01109992231983049,0.008887358040565821
0.5570000000000002,-0.004999999999997558,-0.136,0.008315625013863615,1.08424562731158,0.011144846460307561,0.008757110685583219
0.558,0.006,0.864,0.00833200146095759,1.0463673929916428,0.011184510718268767,0.00772137740115653
0.5590000000000002,-0.0044999999999992,-0.136,0.008260115991427126,1.0880390306757821,0.011010401902677885,0.00886083659034358
0.56,-0.0009,0.864,0.008020282267447859,1.0832714353567245,0.010429517255286317,0.008730472616222808
0.5610000000000002,-0.006999999999999267,-0.136,0.00803263493819173,1.08294650995867,0.01045943580331344,0.008721587934669855
0.562,-0.0037,2.864,0.008020783534129832,1.0877155294679492,0.010430731338589433,0.008851990851503837
0.5630000000000002,-0.018500000000001442,1.863999999999667,0.008022745334767096,1.0921415400174392,0.010435482880001214,0.008973014614243421
0.5640000000000001,-0.025,-1.1359999999998889,0.008009774921694695,1.096549685977606,0.010404068141076778,0.009093549891970257
0.5650000000000002,0.005100000000004841,-0.135999999999889,0.008027723184512722,1.0921415400174392,0.010447539385009268,0.008973014614243421
0.5660000000000001,0.0269,0.863999999999778,0.008044473617578202,1.0968705817213538,0.010488109448482654,0.009102324387629772
0.5670000000000002,0.01499999999999758,-1.136000000000111,0.007833566933453006,1.1015793220008345,0.009977286980283063,0.009231079043773073
0.5680000000000001,0.0041,-2.135999999999778,0.00751689960416771,1.1062680200900212,0.00921030898044089,0.009359285671108985
0.5690000000000002,0.013899999999999356,-0.13600000000011103,0.007452804542986306,1.1245144692275195,0.009055068773199977,0.009858212166327334
0.5700000000000001,0.011,-1.1359999999998889,0.007447655879499845,1.1109369297525278,0.009042598552064069,0.009486951208488432
0.5710000000000002,0.00310000000000151,-0.135999999999889,0.007476869510666385,1.1112536709123293,0.00911335486421919,0.009495612102208647
0.5720000000000001,0.0099,0.863999999999889,0.007467149503707982,1.1112536709123293,0.009089812708758336,0.009495612102208647
0.5730000000000002,0.0034000000000003997,-0.13600000000011103,0.007455228744172972,1.111253670912329,0.009060940262947785,0.00949561210220864
0.5740000000000001,0.0052,-1.136000000000111,0.007590647332716925,1.106904083798684,0.009388928244585506,0.009376678043427967
0.5750000000000002,0.003499999999999667,-2.135999999999889,0.007598110533437431,1.1025373373923812,0.009407004346007,0.009257274785096099
0.5760000000000001,0.002,-1.1359999999997779,0.007601246996637311,1.097832706167112,0.009414600956232158,0.00912863248593804
0.5770000000000002,-0.0023000000000020205,0.864,0.00755241730002082,1.1115703218169697,0.009296333930933584,0.009504270528013548
0.5780000000000001,-0.0114,-1.136,0.007545954524719234,1.106904083798684,0.009280680890610708,0.009376678043427967
0.5790000000000002,-0.0025999999999977573,-1.136,0.007547381518216249,1.1065860976453887,0.009284137112699039,0.00936798310690656
0.5800000000000001,0.0075,0.864,0.007575066185158161,1.1199021662127333,0.009351190226530918,0.00973209446744185
0.5810000000000002,0.000999999999999778,-1.136,0.007439892226087777,1.1373113041994343,0.009023794744993426,0.010208125728923132
0.5820000000000001,-0.0,-1.136,0.007436295100256907,1.1327511081635457,0.009015082395724027,0.010083432830674853
0.583,-0.0123,1.864,0.007426770211331041,1.1327511081635457,0.008992012822132184,0.010083432830674853
0.5840000000000001,-0.0011,-0.136,0.007495978437570454,1.1373113041994343,0.009159637272224751,0.010208125728923132
0.585,0.0004,-1.136,0.0074930417388513505,1.1373113041994343,0.009152524497708982,0.010208125728923132
0.5860000000000001,-0.0087,-0.136,0.0075311867126242734,1.1373113041994343,0.00924491279603587,0.010208125728923132
0.587,-0.0098,-1.136,0.0076595106001977435,1.1415450376773317,0.009555717193967304,0.010323891913888673
0.5880000000000001,0.0004,0.864,0.007664889121834608,1.1415450376773317,0.00956874413860495,0.010323891913888673
0.589,-0.0062,0.864,0.007678140033119666,1.1415450376773317,0.009600838252817608,0.010323891913888673
0.5900000000000001,0.0,-1.136,0.007677214344477448,1.1544579435525852,0.009598596206488145,0.010676979291212106
0.591,-0.0054,0.864,0.007672261820009895,1.1415450376773317,0.0095866010400816,0.010323891913888673
0.5920000000000001,-0.0163,1.864,0.0076703230051978705,1.1415450376773317,0.009581905171044692,0.010323891913888673
0.593,-0.012,-0.136,0.007651697307181744,1.1544579435525852,0.009536793158250968,0.010676979291212106
0.5940000000000001,-0.0004,1.864,0.0076436331171519925,1.1544579435525852,0.009517261442259534,0.010676979291212106
0.595,0.0087,-0.136,0.007644338879961188,1.1675294741657452,0.009518970821465092,0.011034404065030725
0.5960000000000001,0.005,-0.136,0.007630544683876375,1.1633903053832872,0.009485560854777217,0.010921223634241873
0.597,0.0061,0.864,0.007589749346061525,1.1678308662960983,0.009386753293319146,0.011042645258599422
0.5980000000000001,0.0126,1.864,0.007598371660079003,1.1845358048812797,0.00940763680275494,0.011499421061844012
0.599,-0.0012,1.864,0.00759826773156649,1.1804562688468465,0.009407385084704852,0.011387871214504465
0.6000000000000001,-0.003,-0.136,0.007607509885221179,1.180158101032088,0.009429769864784015,0.011379718185842104
0.601,-0.0012,-0.136,0.007631947415358581,1.1845358048812797,0.009488958313520326,0.011499421061844012
0.6020000000000001,0.0002,-1.136,0.007631455029933275,1.1713536119394132,0.009487765740893701,0.011138970364055298
0.603,-0.0041,-0.136,0.007619151980351142,1.1842386642132516,0.009457967376844713,0.011491296119233593
0.6040000000000001,-0.0052,-1.136,0.007620761970594945,1.1798598578659711,0.009461866822675594,0.011371563096790407
0.605,-0.0041,1.864,0.007647181055751771,1.1798598578659711,0.009525854658544152,0.011371563096790407
0.6060000000000001,-0.0074,-0.136,0.007634630603911177,1.1795615392913397,0.009495457078624748,0.011363405945786515
0.607,-0.0067,0.864,0.007637875438027737,1.1795615392913397,0.00950331616653936,0.011363405945786515
0.6080000000000001,-0.011,-3.136,0.0076398989969588115,1.1836441590956623,0.009508217288436024,0.0114750401149846
0.609,0.0013,-0.136,0.00761685104167797,1.1836441590956623,0.009452394432691328,0.0114750401149846
0.6100000000000001,0.0067,-1.136,0.0076098585772375535,1.200129008120845,0.009435458469001665,0.011925797842494193
0.611,0.002,0.864,0.007611944426720284,1.195808390386623,0.009440510460528063,0.011807655915422828
0.6120000000000001,0.0034,-1.136,0.007585610825553196,1.195808390386623,0.009376729669508796,0.011807655915422828
0.613,0.0099,-1.136,0.00760886074538762,1.1745662079699761,0.009433041689606809,0.011226814813460367
0.6140000000000001,0.0063,-0.136,0.007387853387793558,1.1571092937474956,0.008897755079963595,0.010749477170135002
0.615,0.0052,0.864,0.006967764739568598,1.1571092937474965,0.007880287468451,0.010749477170135026
0.6160000000000001,0.0027,0.864,0.006994962176873938,1.1612708504318674,0.007946160497134957,0.010863269770302839
0.617,0.0147,0.864,0.006543533966268886,1.1568051082393611,0.006852787502757443,0.010741159595119386
0.6180000000000001,-0.0002,1.864,0.0063773956831867425,1.1701512070202336,0.006450395477210803,0.011106092094555358
0.619,0.0016,0.864,0.006365764639317128,1.1577174249933142,0.006422224731642174,0.010766105763940987
0.6200000000000001,0.0071,0.864,0.006370275029720324,1.1577174249933142,0.006433149035762079,0.010766105763940987
0.621,0.0024,0.864,0.0063042355712521585,1.157717424993315,0.006273199438558949,0.010766105763941011
0.6220000000000001,-0.0052,-0.136,0.006446016919636719,1.157717424993315,0.006616598220000486,0.010766105763941011
0.623,-0.0143,-0.136,0.006577256175283749,1.1574133993111535,0.006934463728968888,0.01075779255916817
0.6240000000000001,-0.0057,-0.136,0.0065685454765215595,1.1574133993111535,0.006913366148966143,0.01075779255916817
0.625,-0.0024,-0.136,0.006577213550391225,1.157717424993315,0.006934360490169717,0.010766105763941011
0.6260000000000001,0.0001,1.864,0.006676585922097642,1.1406197856259161,0.00717504342725381,0.0102985920454196
0.627,-0.0025,-0.136,0.006673967250990522,1.140928286348213,0.007168700925384368,0.010307027614608326
0.6280000000000001,0.0015,-1.136,0.006670470668497051,1.1541530592618758,0.007160232095166932,0.010668642608854651
0.629,-0.0083,-2.136,0.006582155918827761,1.1499657446279103,0.006946331058357137,0.010554145689538582
0.6300000000000001,-0.0047,-2.136,0.006577008621446842,1.150271738784266,0.006933864145970816,0.010562512719794024
0.631,0.0014,-0.136,0.0066782196273848194,1.1457631271042465,0.007179000311648291,0.010439230331705168
0.6320000000000001,0.0115,-1.136,0.006710037963616266,1.1460702433358332,0.007256065299489568,0.01044762804371453
0.633,0.0104,0.864,0.006711492922414252,1.1418532884192842,0.007259589254395969,0.01033232064767528
0.6340000000000001,-0.0034,-0.136,0.00662067869918021,1.1281724794692085,0.007039634415826203,0.009958235914268955
0.635,0.0093,-0.136,0.00662051192125248,1.1460702433358332,0.007039230474561668,0.01044762804371453
0.6360000000000001,0.014,-1.136,0.0066377892679560825,1.1418532884192842,0.007081076739053862,0.01033232064767528
0.637,0.0035,-1.136,0.00658734030581427,1.1463772772905132,0.0069588878029076245,0.010456023505964043
0.6380000000000001,0.0046,-0.136,0.006559378321630252,1.1598433733613527,0.006891163018195921,0.010824237182294643
0.639,-0.0016,-2.136,0.006565220495233648,1.1728548846060667,0.00690531294214032,0.0111800208010086
0.6400000000000001,-0.0005,-1.136,0.00653805877860911,1.1684334173286184,0.006839526430042637,0.011059121268401657
0.641,-0.0012,-1.136,0.006538331716786658,1.1642974621394269,0.006840187494693574,0.010946028709330386
0.6420000000000001,0.0013,-2.136,0.006622002100022589,1.1598433733613487,0.007042839733322544,0.010824237182294534
0.643,-0.0008,0.864,0.006554598160349506,1.1463772772905094,0.006879585320722979,0.010456023505963941
0.6440000000000001,0.0028,1.864,0.006506350918495784,1.1505776515619988,0.0067627290187533785,0.01057087752485207
0.645,-0.0037,-0.136,0.006510660907617217,1.1370018220881144,0.006773167944812341,0.010199663324870155
0.6460000000000001,-0.0029,0.864,0.006455730990564999,1.1412367036761517,0.006640125998214021,0.010315460903481873
0.647,-0.0065,-2.136,0.0065003346917559025,1.158932730164164,0.006748157532765337,0.010799336774804727
0.6480000000000001,0.0,-0.136,0.00676188987222784,1.1719543517816025,0.007381652215085382,0.011155396849106877
0.649,-0.004,-1.136,0.006660094759282763,1.1589327301641623,0.0071351013242924016,0.010799336774804678
0.6500000000000001,-0.0061,0.864,0.006665309496559724,1.1457631271042368,0.007147731578178753,0.0104392303317049
0.651,-0.0011,-1.136,0.0066594473619988,1.1457631271042366,0.007133533308182,0.010439230331704895
0.6520000000000001,-0.0025,1.864,0.006668100402848604,1.1499657446278988,0.007154491238949642,0.010554145689538266
0.653,-0.0021,-0.136,0.006671707937080783,1.1502717387842545,0.007163228797686766,0.010562512719793709
0.6540000000000001,-0.0079,-1.136,0.006685191071251024,1.1547627473467557,0.007195885362861441,0.010685313772491654
0.655,0.0004,-1.136,0.006682197170337142,1.15057765156199,0.0071886340428726145,0.010570877524851831
0.6560000000000001,-0.0028,-0.136,0.006748694605573029,1.1327511081635497,0.007349692873876635,0.010083432830674963
0.657,-0.0053,-1.136,0.006776355390369574,1.1370018220881057,0.007416688144418754,0.010199663324869919
0.6580000000000001,0.0009,0.864,0.00675170512764294,1.1366922557154675,0.007356984450815981,0.010191198616795818
0.659,-0.0031,-2.136,0.006751705127642908,1.114639499487433,0.007356984450815903,0.009588193380442938
0.6600000000000001,0.002,-0.136,0.006753428194375828,1.114639499487433,0.007361157771377238,0.009588193380442938
0.661,-0.003,-0.136,0.006733232607804034,1.114639499487433,0.00731224344027326,0.009588193380442938
0.6620000000000001,-0.007,1.864,0.006730867559196643,1.1099861639694064,0.007306515219889678,0.009460953698706026
0.663,-0.0033,-0.136,0.006724197799578482,1.1099861639694064,0.007290360857193309,0.009460953698706026
0.6640000000000001,0.0047,-1.136,0.00665157073302407,1.1056315904575065,0.007114455870827879,0.009341883293056635
0.665,0.008,-1.136,0.006672240642844535,1.1056315904575065,0.007164519027411788,0.009341883293056635
0.6660000000000001,0.0106,-0.136,0.006755771954715821,1.1009401819370197,0.007366834430923188,0.009213602552342342
0.667,-0.0032,1.864,0.006763422012531951,1.0962286962990162,0.007385363105970705,0.009084772827779123
0.6680000000000001,-0.00140000000000282,0.864,0.006635683087449118,1.0914968735527206,0.007075975505162181,0.008955387010242056
0.669,-0.0141,-0.136,0.006699089870575469,1.077503362111361,0.007229548681809214,0.008572751815491355
0.6700000000000002,-0.006099999999995582,-1.136,0.006717322336406928,1.0726889417474246,0.007273708274171219,0.008441107468660594
0.671,0.0138,-0.136,0.006696254783790695,1.0678528157630771,0.007222682014520004,0.008308869608591361
0.6720000000000002,0.016399999999996293,-1.136,0.006701651861110972,1.062994687907261,0.007235753901592921,0.008176030134666336
0.673,-0.0003,-0.136,0.006720136966379203,1.067523197361527,0.0072805253944321045,0.00829985660268508
0.6740000000000002,0.006200000000001288,0.864,0.006577758304635617,1.0720325775324648,0.006935679901684988,0.008423160004203874
0.675,0.012,-0.136,0.006615840142182116,1.0765230688084781,0.007027915282131875,0.008545946912345118
0.6760000000000002,-0.0006999999999996669,0.864,0.006700683147570614,1.0813204184194898,0.007233407647638399,0.008677124480633746
0.677,0.0008,1.864,0.006766252645304759,1.0668636550415749,0.007392218985506102,0.00828182223689357
0.6780000000000002,-0.0035999999999992006,-0.136,0.006780809891046198,1.071704244678888,0.007427477081903919,0.008414182150010673
0.679,0.0,0.864,0.006780607081123927,1.071704244678888,0.0074269858700416694,0.008414182150010673
0.6800000000000002,0.01379999999999547,-0.136,0.006767963707683128,1.0532112073515456,0.007396363231151931,0.007908513006927301
0.681,-0.0066,0.864,0.00676342989305589,1.053879293727327,0.007385382192841783,0.00792678099931639
0.6820000000000002,0.0013999999999984678,-0.136,0.006766992705553203,1.0587792477005236,0.007394011434163169,0.00806076415648608
0.683,-0.0055,-1.136,0.00667131782924108,1.0542131781453712,0.007162283944514533,0.007935910654146627
0.6840000000000002,0.0009999999999987122,1.864,0.006601940962336124,1.053879293727327,0.006994251041549223,0.00792678099931639
0.685,-0.0048,-0.136,0.006595911391585589,1.0584468036387715,0.006979647235957439,0.008051673886410178
0.6860000000000002,-0.0030000000000010435,0.864,0.006542930412849291,1.0633257100941411,0.006851325677833466,0.008185081525339397
0.687,-0.0077,1.864,0.006402167720761517,1.0633257100941411,0.006510394113236808,0.008185081525339397
0.6880000000000002,0.002799999999999756,1.863999999999778,0.006409118096595696,1.0633257100941411,0.006527228137029163,0.008185081525339397
0.6890000000000001,0.0017,-0.136,0.006402167720761517,1.0633257100941411,0.006510394113236808,0.008185081525339397
0.6900000000000002,0.0005999999999972466,-0.136,0.006436157096546927,1.0492919018849265,0.006592717425574128,0.007801344465507822
0.6910000000000001,-0.0118,-0.13600000000011103,0.006465780094669098,1.0446843661964906,0.006664465237071921,0.007675357123241844
0.6920000000000002,-0.013299999999999045,-1.136,0.006514005146026304,1.0400564189453574,0.006781267792977245,0.007548811652138753
0.6930000000000001,-0.009,-1.136,0.006546095828884991,1.020990310344616,0.006858992412716439,0.00702747258666157
0.6940000000000002,-0.002399999999999933,-1.136,0.006594341668935294,1.020990310344616,0.0069758453194750936,0.00702747258666157
0.6950000000000001,-0.0021,-1.1359999999996668,0.006590118654644179,1.0008583089475958,0.006965617049127108,0.006476988006179329
0.6960000000000002,0.009100000000002332,1.864,0.006701203488137617,1.0056666569869779,0.007234667928477024,0.006608466312835102
0.6970000000000001,0.0196,1.863999999999889,0.006714331067703493,1.019955703024956,0.007266463329476958,0.00699918253416777
0.6980000000000002,0.0046999999999996,0.864,0.006782743161443373,1.0053166494926906,0.007432159522197731,0.006598895792504874
0.6990000000000001,0.0029,0.863999999999889,0.006788530713285211,1.0053166494926906,0.007446177150557607,0.006598895792504874
0.7000000000000002,0.0010999999999989564,-0.13600000000011103,0.00681697595146419,1.0053166494926906,0.007515072391291114,0.006598895792504874
0.7010000000000001,-0.0036,-1.1359999999997779,0.007069556570892113,1.0203006886998003,0.008126830411055741,0.007008615739080877
0.7020000000000002,-0.0022000000000008215,0.864,0.007085641860195269,1.0155616303185957,0.008165789475902947,0.0068790320720916445
0.7030000000000001,-0.0059,0.863999999999889,0.0071128226426557615,1.0005066193490608,0.00823162216604103,0.006467371490797102
0.7040000000000002,-0.004800000000001221,-0.136,0.007110898012273659,1.0005066193490608,0.008226960652129153,0.006467371490797102
0.7050000000000001,-0.0103,-0.136,0.007075036281701188,0.9956733525485977,0.008140102438977104,0.006335211811560964
0.7060000000000002,-0.009599999999998622,-1.136,0.007075627705976265,0.9960267487389676,0.008141534886740442,0.006344874991577859
0.7070000000000001,-0.0034,-1.136,0.0070748637524437556,1.0008583089475958,0.008139684567815345,0.006476988006179329
0.7080000000000002,-0.010999999999998001,-2.136,0.007082177881581088,1.0012098750100278,0.008157399613282774,0.006486601143620216
0.7090000000000001,-0.002,-0.136,0.007087555261664507,1.0012098750100278,0.008170423793042903,0.006486601143620216
0.71,0.0042,-1.136,0.0071416076231600005,0.9862926256601905,0.008301340273123518,0.0060787074827589795
0.7110000000000001,0.0009,-0.136,0.007145552641367604,0.9862926256601905,0.008310895228416942,0.0060787074827589795
0.712,-0.0016,-1.136,0.007139811917146223,0.991526637587589,0.0082969910179924,0.00622182503988966
0.7130000000000001,-0.0009,-0.136,0.007162128788098564,0.9707838141510167,0.008351043165033881,0.005654638289187928
0.714,0.0082,-0.136,0.007174840761095416,0.9707838141510167,0.008381831954155823,0.005654638289187928
0.7150000000000001,0.0118,-0.136,0.007189780380976899,0.9658018137442448,0.008418016172467712,0.0055184116741684155
0.716,0.0042,-0.136,0.007145866373912886,0.9658018137442448,0.008311655098279767,0.0055184116741684155
0.7170000000000001,0.0067,-0.136,0.007202203550849427,0.9711462675857587,0.00844810547155024,0.005664549128305884
0.718,0.0092,0.864,0.007372953296136105,0.9550231851654275,0.008861666600224648,0.005223683459403722
0.7190000000000001,0.0052,-0.136,0.007444584041352198,0.954654610304357,0.009035158465700759,0.0052136052374837346
0.72,-0.0047,-0.136,0.007336908691624541,0.9750187514849186,0.008774365460774059,0.0057704373921010944
0.7210000000000001,-0.0036,-0.136,0.007322986137490098,0.9750187514849187,0.0087406446069467,0.005770437392101097
0.722,-0.0072,-1.136,0.007194077080908774,0.9803129578666634,0.008428422911701308,0.00591520089184298
0.7230000000000001,-0.0039,-1.136,0.007004712065234657,0.9803129578666634,0.007969775026270205,0.00591520089184298
0.724,0.0091,-1.136,0.0070062470878078705,0.9855787259145582,0.007973492898099841,0.006059186780657352
0.7250000000000001,0.0109,0.864,0.007036610151101414,0.9855787259145583,0.008047033170178186,0.006059186780657356
0.726,0.0094,-1.136,0.007006791173608435,0.9855787259145583,0.007974810690623627,0.006059186780657356
0.7270000000000001,0.0051,0.864,0.0070356319269661086,0.9852215820551281,0.008044663881270526,0.006049421125283452
0.728,-0.0014,-1.136,0.0070420180212425534,0.9643431477016131,0.008060131197794796,0.00547852626244474
0.7290000000000001,0.0072,-0.136,0.00705832292761936,0.9643431477016131,0.008099622181941225,0.00547852626244474
0.73,0.004,1.864,0.007075292909916522,0.9639781363137344,0.0081407240003985,0.005468545479274449
0.7310000000000001,-0.0026,0.864,0.006939640300013378,0.9639781363137344,0.007812169211839467,0.005468545479274449
0.732,-0.0019,-0.136,0.006914681610219978,0.9636129866615261,0.00775171849840582,0.005458560915437745
0.7330000000000001,-0.004,-1.136,0.006913452089304612,0.9686062453074877,0.007748740560976785,0.005595095373028652
0.734,-0.0019,-1.136,0.006891583313793307,0.9636129866615261,0.007695773714859398,0.005458560915437745
0.7350000000000001,-0.0041,0.864,0.006944287471682799,0.963612986661526,0.007823424804388215,0.005458560915437742
0.736,-0.0037,-1.136,0.006937547963129366,0.9689695132855437,0.0078071015076278645,0.005605028484822115
0.7370000000000001,0.0046,-1.136,0.006971479760356382,0.9689695132855437,0.007889285362927887,0.005605028484822115
0.738,0.0035,-0.136,0.006935300107245034,0.9689695132855436,0.007801657131619802,0.005605028484822112
0.7390000000000001,0.0068,-1.136,0.006994506568060565,0.9477331156231051,0.007945056998592244,0.005024345559780605
0.74,-0.0062,-0.136,0.006992907199788049,0.9531788856572282,0.00794118327950214,0.0051732533794015935
0.7410000000000001,-0.008,-0.136,0.00699271525101317,0.9585937187760164,0.007940718373672538,0.005321315267486831
0.742,-0.0066,-0.136,0.006898065915341347,0.9585937187760164,0.0077114747749602655,0.005321315267486831
0.7430000000000001,-0.008,0.864,0.006777130855645469,0.9535480309302252,0.007418566345139982,0.005183347198527438
0.744,-0.0015,-0.136,0.006722110714691969,0.9484755014785501,0.0072853058734809965,0.005044645179184121
0.7450000000000001,-0.0127,-1.136,0.00675626207304222,0.9488464765878311,0.007368021512566613,0.005054789032911059
0.746,-0.0051,-2.136,0.0067730006000031595,0.9492173067118521,0.007408562739089036,0.005064928922196092
0.7470000000000001,-0.0116,-1.136,0.006734143623134338,0.9275287791401127,0.00731444994739049,0.004471883066190262
0.748,-0.0028,-0.136,0.006455727148235556,0.9275287791401151,0.0066401166919740715,0.004471883066190329
0.7490000000000001,0.0074,-1.136,0.006470318795083138,0.92714927433774,0.0066754581089078,0.004461505978596971
0.75,0.0197,1.864,0.006463836328300113,0.9267696141311743,0.006659757375211939,0.004451124641668988
0.7510000000000001,0.0049,-0.136,0.006463674283100946,0.9323378396755776,0.006659364896761379,0.0046033808551667185
0.752,0.0067,0.864,0.006517504812523848,0.9323378396755799,0.0067897440927472885,0.004603380855166782
0.7530000000000001,0.0013,-0.136,0.006513790036755801,0.9323378396755798,0.006780746791715732,0.004603380855166779
0.754,-0.0034,-0.136,0.006497549318446036,0.9477331156231157,0.006741411273039597,0.005024345559780894
0.7550000000000001,0.001,0.864,0.006479971088670502,0.9531788856572386,0.006698836260503779,0.005173253379401879
0.756,-0.0026,-1.136,0.006469210863561967,0.9582265172957268,0.006672774664726842,0.005311274598958983
0.7570000000000001,-0.0062,0.864,0.006486450951474057,0.9531788856572386,0.006714530687281367,0.005173253379401879
0.758,-0.0029,0.864,0.006519681917440973,0.9535480309302357,0.006795017107739242,0.005183347198527723
0.7590000000000001,-0.0093,-1.136,0.00643228025424999,0.9542858930882497,0.006583327594430766,0.005203523123042025
0.76,-0.0031,-0.136,0.006438696036756006,0.9542858930882498,0.0065988668167591075,0.005203523123042029
0.7610000000000001,-0.0009,0.864,0.006487764456077359,0.9492173067118591,0.0067177120357826406,0.0050649289221962835
0.762,0.009,-0.136,0.0066084252358824605,0.9546546103043723,0.007009956151281331,0.005213605237484151
0.7630000000000001,0.0054,-0.136,0.006623197417128871,0.9495879920204711,0.007045734828075205,0.00507506485168377
0.764,0.0066,-0.136,0.006651516950254307,0.9495879920204711,0.007114325607307257,0.00507506485168377
0.7650000000000001,-0.001,-1.136,0.0069834035061825134,0.9550231851654415,0.007918165041627274,0.005223683459404105
0.766,0.0139,0.864,0.007073343790357749,0.9550231851654416,0.008136003172948396,0.0052236834594041074
0.7670000000000001,0.0161,-1.136,0.007138484948614484,0.9761009903855701,0.008293777059442828,0.005800029871033412
0.768,0.0104,-1.136,0.0071083711767823765,0.9761009903855701,0.008220840578942545,0.005800029871033412
0.7690000000000001,-0.0063,-2.136,0.007054166921818315,0.9707838141510259,0.008089556208214752,0.00565463828918818
0.77,-0.0041,-1.136,0.007051367729575322,0.9757403774588451,0.00808277647860845,0.005790169358321842
0.7710000000000001,0.0018,0.864,0.007036697115395049,0.9963800195867414,0.008047243800368994,0.006354534744257101
0.772,0.0,-1.136,0.007044513310478691,0.9963800195867414,0.008066174864982316,0.006354534744257101
0.7730000000000001,0.0015,0.864,0.007017877192927271,0.9915266375875902,0.008001661369986613,0.006221825039889693
0.774,-0.009,0.864,0.007008218891320535,0.9918815112068086,0.007978268666783141,0.006231528618363941
0.7750000000000001,-0.0101,-0.136,0.0069517910149402996,0.9918815112068075,0.007841598616673669,0.0062315286183639105
0.776,-0.0064,-1.136,0.0069055831672127175,0.9866493818271123,0.007729681789929653,0.006088462537162634
0.7770000000000001,-0.0031,-0.136,0.006842076834703414,0.9870060090434976,0.007575867501618859,0.006098214065573986
0.778,0.006,-0.136,0.00682630111097481,0.9866493818271089,0.007537658214103359,0.006088462537162543
0.7790000000000001,0.0049,-1.136,0.00682497575059928,0.9817478964957824,0.00753444815055753,0.0059544375069062625
0.78,-0.0005,-0.136,0.00679017479747844,0.9817478964957824,0.007450159172981393,0.0059544375069062625
0.7810000000000001,-0.003,-1.136,0.0067784050469171155,0.9607939805419989,0.0074216524755442445,0.00538147869343301
0.782,-0.0005,-1.136,0.0067766694758731125,0.9607939805419978,0.007417448869157322,0.00538147869343298
0.7830000000000001,0.0003,-0.136,0.0067756530150466935,0.9607939805419978,0.007414986969809119,0.00538147869343298
0.784,0.0086,1.864,0.006777458637715934,0.955759908481107,0.0074193602433844175,0.0052438282436884755
0.7850000000000001,-0.0037,0.864,0.006839653691711519,0.9506991807474598,0.007569998574851296,0.005105448927670549
0.786,0.0075,0.864,0.006865171495245808,0.9506991807474598,0.007631803478941865,0.005105448927670549
0.7870000000000001,-0.003,1.864,0.006862632416961388,0.9506991807474598,0.007625653753334167,0.005105448927670549
0.788,-0.0095,-0.136,0.006853795720030834,0.9506991807474597,0.007604251001896864,0.0051054489276705466
0.7890000000000001,-0.0008,0.864,0.006880592813382772,0.9561280572642811,0.007669154385226747,0.005253894815037443
0.79,0.0003,0.864,0.006859788013980317,0.956496064349521,0.007618764521931325,0.005263957511832345
0.7910000000000001,0.0028,-0.136,0.0069134736993315534,0.9615262822731605,0.007748792901125917,0.005401502574979361
0.792,-0.0034,-0.136,0.006923190006282853,0.9668943691614523,0.0077723260950558985,0.005548286245436035
0.7930000000000001,-0.0025999999999978237,-0.136,0.006900028606905348,0.9668943691614523,0.007716228474223975,0.005548286245436035
0.794,0.0072,0.864,0.006854692917415701,0.9665303212460375,0.007606424041525745,0.005538331807223936
0.7950000000000002,-0.0052000000000000665,0.864,0.006881966479324268,0.9873625074490741,0.007672481446337339,0.006107962071813714
0.796,-0.0055,-0.136,0.006769502417642738,0.9824645798858095,0.007400090033944699,0.005974034324307439
0.7970000000000002,-0.004099999999997669,1.864,0.006780491848024533,0.96225802670508,0.007426706771934869,0.005421511217869929
0.798,0.0064,-1.136,0.006681566670207945,0.96225802670508,0.007187106952190151,0.005421511217869929
0.7990000000000002,-9.999999999975576e-05,-1.136,0.006675875561464949,0.9622580267050801,0.007173322911978492,0.0054215112178699326
0.8,0.001,0.864,0.006641554866509679,0.9572316540798427,0.007090197134433342,0.005284071299633052
0.8010000000000002,-0.009099999999998002,-1.136,0.006359381263067781,0.9357289032322755,0.006406763998263034,0.004696105277472479
0.802,-0.0001,0.864,0.0064082995446886285,0.9412441287776272,0.006525245579163574,0.00484691227180575
0.8030000000000002,-0.00369999999999929,-2.136,0.0064526992529899815,0.9357289032322756,0.006632783036669547,0.004696105277472482
0.804,-0.0005,0.864,0.006451893984549793,0.956496064349521,0.006630832651768819,0.005263957511832345
0.8050000000000002,-0.009600000000000244,-1.136,0.006478673457823966,0.9615262822731605,0.00669569335872905,0.005401502574979361
0.806,-0.0107,-0.136,0.00648164908492394,0.9611602011495749,0.006702900418979203,0.005391492541214446
0.8070000000000002,-0.007399999999998979,0.864,0.0065032641885476375,0.9561280572642811,0.006755252863991769,0.005253894815037443
0.808,-0.0028,1.864,0.006506142475928725,0.9506991807474598,0.0067622241644524125,0.005105448927670549
0.8090000000000002,-0.0035000000000012213,-0.136,0.006502149448111621,0.9452391245921923,0.006752552928409881,0.004956150471805808
0.81,-0.009,-0.136,0.006493836808218159,0.9607939805419977,0.006732419459215932,0.005381478693432977
0.8110000000000002,-0.012599999999998246,0.864,0.006490159478861452,0.9607939805419978,0.006723512854543028,0.00538147869343298
0.812,-0.0047,-0.136,0.006491259218812496,0.9764614701358236,0.0067261764584894855,0.005809886742199735
0.8130000000000002,0.006200000000003686,-0.135999999999889,0.006485904271897831,0.9970861857873512,0.006713206612553246,0.0063738439821727595
0.8140000000000001,0.0228,0.863999999999889,0.006482737905924933,1.0019126370467093,0.006705537576893196,0.006505817298900174
0.8150000000000002,0.01629999999999871,-0.13599999999977797,0.006450395206140806,1.0070654705072397,0.006627202564418395,0.006646715131652896
0.8160000000000001,0.0105,1.863999999999778,0.006449647823227144,1.007414870406489,0.00662539238004121,0.006656269038051254
0.8170000000000002,0.001400000000000311,-0.136,0.006314177855166105,1.0022638332804619,0.006297279955634684,0.006515420323835034
0.8180000000000001,0.0028,-0.13600000000011103,0.006174499753472037,1.0026149064971057,0.005958975302291203,0.006525019985019806
0.8190000000000002,-0.0047999999999992,-1.1359999999996668,0.006095831292222475,1.0029658568258215,0.005768437872376886,0.006534616285986773
0.8200000000000001,-0.0012,1.863999999999778,0.006065279603755545,0.988431231194455,0.005694440744333861,0.0061371849956068
0.8210000000000002,0.004899999999999755,-0.136,0.00605933701670826,0.9887872157490409,0.0056800476159435676,0.0061469189512292355
0.8220000000000001,0.0038,-0.135999999999889,0.006101740711233636,0.9835386257868388,0.005782750666764735,0.00600340277583826
0.8230000000000002,0.0013000000000001554,0.863999999999778,0.0061213631584544825,0.9838963805415781,0.0058302768367533495,0.006013185135385848
0.8240000000000001,0.002,-1.1359999999998889,0.0061273913070915694,0.9786215601695788,0.0058448771979426745,0.005868951722009024
0.8250000000000002,0.0073999999999981355,-0.135999999999889,0.006063014305324873,0.9940080923427221,0.005688954121942711,0.006289677338969439
0.8260000000000001,-0.001,0.863999999999778,0.00597846528848552,0.9992016899790026,0.005484173805733815,0.0064316898174915475
0.8270000000000002,-0.0020999999999994448,-1.1359999999998889,0.006014897476826686,0.9943620803665897,0.005572413685126634,0.006299356701938453
0.8280000000000001,0.0004,-0.136,0.006007718380470207,1.0146229871726378,0.005555025693202764,0.006853366040769908
0.8290000000000002,-0.0020999999999995115,-0.136,0.005995360903614932,1.0344871508758728,0.005525095504626171,0.007396526932087168
0.8300000000000001,0.0001,-0.135999999999889,0.0060326591947229575,1.0348272921388553,0.005615433111527803,0.007405827672573174
0.8310000000000002,-0.0020999999999992006,0.863999999999889,0.00605311434027345,1.0398170291784572,0.005664976102452083,0.0075422658362109185
0.8320000000000001,0.0015,-0.136,0.006093213139698481,1.0401554275192084,0.005762096626531707,0.007551518918652682
0.8330000000000002,0.004300000000001133,-0.136,0.006113465680163983,1.0401554275192084,0.005811148901715923,0.007551518918652682
0.8340000000000001,0.0094,-0.136,0.006155615863074679,1.0447829362042576,0.005913237939618226,0.0076780523977107665
0.8350000000000002,0.007199999999999112,0.864,0.006098888586182735,1.0686081196573731,0.005775842732271535,0.00832952245572705
0.8360000000000001,0.0032,-1.136,0.0060892428822712855,1.0637534412558154,0.0057524805410730595,0.008196777302845567
0.837,-0.003,-1.136,0.00604558292809546,1.0588765056273146,0.005646734790785044,0.008063423553729918
0.8380000000000001,-0.007,0.864,0.006047147130456137,1.039478520673399,0.0056505233369563476,0.00753300974146297
0.839,0.0042,0.864,0.006030840046687827,1.0444460371677589,0.005611027079100808,0.007668840311882116
0.8400000000000001,-0.0106,-1.136,0.006030709268751937,1.0441090294252229,0.005610710330922462,0.007659625253621856
0.841,-0.0088,0.864,0.0060307702988082685,1.039139901896373,0.005610858147593797,0.007523750631464986
0.8420000000000001,-0.0034,-0.136,0.006024682459293627,1.0437719128713545,0.005596113213265277,0.007650407220050821
0.843,0.0013,-1.136,0.0060720256205026146,1.0437719128713543,0.0057107798041391355,0.007650407220050815
0.8440000000000001,-0.0063,1.864,0.006102270191885027,1.0487190928524204,0.005784033085168539,0.007785681713765602
0.845,0.0028,-0.136,0.00607564810823343,1.0437719128713545,0.005719553580709345,0.007650407220050821
0.8460000000000001,0.0064,-0.136,0.006058924475672816,1.0388011727395425,0.005679048428882078,0.007514488503268309
0.847,-0.0012,-1.136,0.006196382383628261,1.058211574172766,0.006011975704784211,0.008045241828744502
0.8480000000000001,-0.0005,-0.136,0.006266400030416143,1.058211574172766,0.006181560596311317,0.008045241828744502
0.849,-0.003,-0.136,0.006244059996350137,1.0536430445493772,0.0061274523474969455,0.007920321058893766
0.8500000000000001,0.0046,-0.136,0.0062682504594426675,1.0490546196177577,0.006186042392260451,0.007794856276543281
0.851,0.0093,0.864,0.006366697543275176,1.0441090294252229,0.006424484253688238,0.007659625253621856
0.8520000000000001,0.0101,-0.136,0.00631877564643136,1.0588765056273146,0.006308415947327531,0.008063423553729918
0.853,-0.0008,-2.136,0.006383994829029283,1.0953591811425163,0.0064663788111733,0.009060997015493533
0.8540000000000001,0.0068,-1.136,0.006414949391844655,1.0960015758061266,0.006541351713264925,0.009078562499914464
0.855,-0.0022,-1.136,0.006458417993786992,1.1097618590416551,0.006646634002564913,0.009454820358974015
0.8560000000000001,-0.0059,-0.136,0.00641199451499578,1.123666842362905,0.0065341949107604,0.009835034862204863
0.857,0.0065,-0.136,0.006330662832333492,1.123666842362905,0.006337207076767837,0.009835034862204863
0.8580000000000001,0.0018,-0.136,0.006305549759023038,1.123666842362905,0.006276382441713082,0.009835034862204863
0.859,-0.0087,-2.136,0.006299447114491759,1.1054064019163572,0.0062616016491794406,0.00933572579201343
0.8600000000000001,-0.0022,-0.136,0.006303067896039808,1.1100789354869067,0.006270371293322574,0.00946349042065854
0.861,0.0015,1.864,0.006368458286185091,1.1144161311636094,0.006428748827107702,0.009582085650982359
0.8620000000000001,-0.0086,1.864,0.006254671031567202,1.1141002890985678,0.006153152600773491,0.009573449341891959
0.863,-0.005,-1.136,0.006329740126818315,1.1141002890985678,0.006334972255663712,0.009573449341891959
0.8640000000000001,-0.0013,0.864,0.006357726500708923,1.1141002890985676,0.006402756112994051,0.009573449341891952
0.865,-0.0002,0.864,0.005973735154217129,1.1141002890985687,0.005472717275221673,0.009573449341891983
0.8660000000000001,0.0045,-0.136,0.0057513447211802685,1.1141002890985687,0.004934080814366644,0.009573449341891983
0.867,-0.0092,0.864,0.00565530273860343,1.0956804255536232,0.0047014641820670245,0.009069781045029047
0.8680000000000001,-0.0034,0.864,0.005694292799020113,1.0956804255536232,0.004795899306206942,0.009069781045029047
0.869,-0.0016,0.864,0.005741986361320774,1.1003942586888784,0.004911414579289479,0.00919867495898975
0.8700000000000001,-0.0031,0.864,0.005722429642631318,1.1007140336089147,0.0048640476058231345,0.00920741880711659
0.871,-0.0074,-0.136,0.005721243189232782,1.0820663216991193,0.004861173979242935,0.008697520279634037
0.8720000000000001,0.0049,0.864,0.005766292157879151,1.100714033608919,0.004970283965250415,0.009207418807116707
0.873,-0.0031,-0.136,0.005759191984697618,1.1054064019163692,0.0049530871276808565,0.009335725792013758
0.8740000000000001,-0.0016,1.864,0.0058130776788762354,1.1054064019163712,0.0050835999343998226,0.009335725792013813
0.875,-0.0005,0.864,0.006056150383170527,1.1010337156562362,0.005672329491618849,0.009216160115754365
0.8760000000000001,-0.0092,-0.136,0.006160595400440768,1.1010337156562362,0.005925298532094885,0.009216160115754365
0.877,0.001,1.864,0.006168072552367333,1.1010337156562382,0.005943408423766046,0.009216160115754421
0.8780000000000001,0.0046,1.864,0.006175597262998808,1.101033715656239,0.00596163350408155,0.009216160115754445
0.879,0.0083,0.864,0.006181802143349577,1.1057247273285795,0.005976661914910774,0.00934443000514894
0.8800000000000001,0.005,0.864,0.006185517292048847,1.1057247273285795,0.0059856601191932085,0.00934443000514894
0.881,0.0076,0.864,0.006190549277325748,1.1057247273285793,0.005997847742121106,0.009344430005148934
0.8820000000000001,0.005,-1.136,0.006187781543249896,1.105406401916376,0.005991144205162041,0.009335725792013947
0.883,0.0072,-1.136,0.0062937444634490235,1.1100789354869256,0.006247789653163223,0.009463490420659056
0.8840000000000001,0.0021,2.864,0.006298911275642616,1.1100789354869256,0.006260303831025353,0.009463490420659056
0.885,0.0014,-0.136,0.006241230795500262,1.1100789354869256,0.006120599936122883,0.009463490420659056
0.8860000000000001,0.0018,-0.136,0.00621970058282561,1.1100789354869258,0.006068453099596831,0.009463490420659063
0.887,-0.0033,-0.136,0.006213293636349961,1.1103959213901773,0.006052935278405491,0.00947215800658502
0.8880000000000001,-0.0084,0.864,0.006233102137990096,1.1242930628097696,0.006100912077913384,0.009852158082752256
0.889,0.0007,-1.136,0.006196249532855705,1.1196798477547478,0.006011653936131781,0.009726015445259003
0.8900000000000001,-0.0004,-0.136,0.006182537199388681,1.119365490909889,0.005978442243219085,0.009717419747670313
0.891,0.0007,-1.136,0.006101559935650843,1.119679847754746,0.005782312822749617,0.009726015445258954
0.8920000000000001,0.0083,-0.136,0.00606275213103659,1.1196798477547438,0.005688319127762252,0.009726015445258893
0.893,-0.0066,0.864,0.006056185764808211,1.123979996198333,0.005672415187032276,0.009843597664994428
0.8940000000000001,-0.0044,-0.136,0.006065473383141395,1.1242930628097636,0.005694910083959472,0.009852158082752093
0.895,-0.0026,-0.136,0.006033647246504389,1.1107128168289417,0.005617826203296293,0.009480823118871908
0.8960000000000001,0.0141,1.864,0.006038520880826976,1.1153631207289216,0.005629630295348153,0.009607979904777669
0.897,-0.0102,1.864,0.006004610655591584,1.1199941163667924,0.005547498688074557,0.009734608730230942
0.8980000000000001,-0.0036,-0.136,0.006016700163619377,1.1199941163667892,0.005576779847918739,0.009734608730230857
0.899,-0.0055,-0.136,0.006083394673775312,1.1380205094480393,0.005738316000433439,0.010227518065832664
0.9000000000000001,0.0112,-0.136,0.0061232951836644265,1.1425596743883655,0.005834956261165435,0.010351635894886904
0.901,0.0047,1.864,0.006148285108313911,1.1467740317623025,0.005895482626380079,0.010466872264348778
0.9020000000000001,-0.0091,-3.136,0.006077653665704649,1.1467740317623025,0.0057244111025172165,0.010466872264348778
0.903,-0.0073,1.864,0.005993322598685543,1.1512786845670528,0.0055201586674685785,0.010590046401909097
0.9040000000000001,0.0075,1.864,0.006067657258130916,1.138638835795036,0.005700199496274749,0.010244425432021203
0.905,0.0057,1.864,0.0060299964082686204,1.1389478730867502,0.005608983760932136,0.010252875673034387
0.9060000000000001,-0.0033,-0.136,0.006026045777251222,1.1525007793711286,0.0055994152112409604,0.010623463066862774
0.907,-0.0048,0.864,0.006029058233790075,1.156983135601004,0.005606711473523512,0.01074602753226859
0.9080000000000001,-0.0004,-0.136,0.006056791836409707,1.1611451444376168,0.0056738831110701785,0.010859832495978024
0.909,-0.0041,0.864,0.006090021404143717,1.1652922881564833,0.005754366144965,0.010973230991500563
0.9100000000000001,-0.0128,-1.136,0.0060302005780294736,1.152806100642777,0.005609478266365207,0.01063181169792141
0.911,0.0039,-1.136,0.006047697281328483,1.1572872743157947,0.005651855819270314,0.010754343827778321
0.9120000000000001,0.0108,-0.136,0.0060474698855526275,1.139565696247973,0.005651305059715382,0.010269769280232741
0.913,0.0086,-0.136,0.005999337855474421,1.1215641385301924,0.005534727804205493,0.009777539036807168
0.9140000000000001,0.0068,0.864,0.005996910807009218,1.1218778793010973,0.005528849418261599,0.00978611788861856
0.915,-0.0022,-0.136,0.00605271016611554,1.1218778793010973,0.00566399718022502,0.00978611788861856
0.9160000000000001,-0.0008,-0.136,0.006058246933221576,1.1172546918456194,0.005677407400250446,0.00965970256821747
0.917,0.0068,-0.136,0.006181869638921779,1.1347044492831142,0.0059768253912601725,0.010136844518143914
0.9179999999999999,0.0079,0.864,0.006113509330638356,1.13013373439112,0.005811254624505837,0.010011863994836591
0.9190000000000003,-0.0007999999999995115,0.864,0.0061043305844861034,1.129822286194012,0.005789023419345512,0.010003347830609006
0.9200000000000002,0.0003,-0.136,0.006157109092471407,1.125231740028065,0.005916854587090489,0.009877825045739752
0.921,-0.0087,1.864,0.006222197549628271,1.1206223891893776,0.006074500829902007,0.009751788070444004
0.9219999999999999,0.0025,0.864,0.006391910083235446,1.125231740028065,0.006485549800024555,0.009877825045739752
0.9230000000000003,-0.008000000000004042,0.864,0.006394278617268906,1.1206223891893778,0.00649128646221715,0.009751788070444009
0.9240000000000002,-0.0171,-0.136,0.006395777020998225,1.1249189346519297,0.006494915642081909,0.009869271771136869
0.925,-0.0135,-0.136,0.006395764115048828,1.1066791541861976,0.006494884383475987,0.009370527622467534
0.9259999999999999,0.0032,0.864,0.0064030877511181816,1.1066791541861976,0.006512622455024834,0.009370527622467534
0.9270000000000003,-0.0036999999999971136,-1.136,0.006380873376432115,1.1242930628097478,0.006458818557089048,0.009852158082751661
0.9280000000000002,0.0028,0.864,0.006398862699441217,1.1060429611249145,0.00650238925006573,0.00935313171316177
0.929,-0.003,-0.136,0.006382356213883804,1.092235827209441,0.006462410034951177,0.00897559278043318
0.9299999999999999,0.0025,-0.136,0.0063414754239813,1.087486631010154,0.0063633955059116416,0.008845731907396518
0.9310000000000003,0.0010000000000047074,-1.136,0.006343125157815811,1.0827166032770243,0.0063673912119401755,0.00871530142193325
0.9320000000000002,0.0116,0.864,0.006307166422840951,1.0779254674594436,0.006280298051145475,0.00858429376211038
0.933,0.005,-0.136,0.0063007077183058645,1.0779254674594436,0.00626465487034412,0.00858429376211038
0.9339999999999999,0.004,-0.136,0.0062681703425466005,1.078251905922644,0.006185848346676911,0.008593219816550987
0.9350000000000003,0.0049999999999971135,0.864,0.00628456122836772,1.0351673216362576,0.0062255475756788315,0.007415125356968169
0.9360000000000002,-0.0015,0.864,0.0062831363740197856,1.0351673216362576,0.006222096534675292,0.007415125356968169
0.937,-0.0058,1.864,0.006281532639778964,1.0398170291784539,0.006218212241075822,0.007542265836210827
0.938,0.0018,-0.13600000000011103,0.006315208520970367,1.0398170291784539,0.0062997762598756115,0.007542265836210827
0.9390000000000003,-0.0007999999999980461,-1.1359999999997779,0.006269389092021006,1.054310857282416,0.006188800195345031,0.00793858156886184
0.9400000000000002,0.0036,0.864,0.00627250885703616,1.0546446050740208,0.006196356362053802,0.007947707487811737
0.9410000000000001,-0.0055,0.863999999999778,0.006287811520737985,1.0546446050740208,0.0062334198836516,0.007947707487811737
0.942,-0.0019,-1.1359999999997779,0.0062960924452436055,1.0500605566470034,0.006253476537201872,0.00782236237554533
0.9430000000000003,0.0035999999999979126,0.864,0.006256687243902783,1.0546446050740208,0.006158035928990176,0.007947707487811737
0.9440000000000002,-0.0011,0.864,0.00623217301580834,1.0546446050740208,0.006098661715445678,0.007947707487811737
0.9450000000000001,-0.0037,0.864,0.006299684697634595,1.0546446050740208,0.006262177082850164,0.007947707487811737
0.946,0.0003,0.863999999999778,0.00630460774983611,1.0731129408331552,0.00627410086652295,0.008452701197184168
0.9470000000000003,0.0040000000000022205,-1.1359999999996668,0.006147617355954935,1.0588765056273115,0.0058938653096526706,0.008063423553729833
0.9480000000000002,0.009,1.863999999999889,0.006069285240487821,1.0394785206733959,0.005704142519556298,0.007533009741462885
0.9490000000000001,0.0076,0.863999999999778,0.006067550359213929,1.0394785206733959,0.005699940583813774,0.007533009741462885
0.95,0.0072,-1.1359999999997779,0.006045220488693363,1.0444460371677555,0.005645856951418692,0.007668840311882025
0.9510000000000003,0.00029999999999968913,0.864,0.005941146967514899,1.0444460371677555,0.0053937876858896425,0.007668840311882025
0.9520000000000002,-0.0004,0.864,0.005998214705988571,1.0294715808186221,0.005532007501646574,0.007259382396658436
0.9530000000000001,-0.0095,0.864,0.005929160674649341,0.9853261006161486,0.005364756516339259,0.00605227905555483
0.954,-0.0008,0.864000000000111,0.005891147603909715,0.9853261006161395,0.0052726876912112,0.006052279055554581
0.9550000000000003,0.0002999999999971134,1.863999999999889,0.00591210983545875,0.9644499288855033,0.005323458860002101,0.005481446061329011
0.9560000000000002,-0.0062,0.863999999999778,0.005934790140204433,0.9431117675541418,0.0053783912548560795,0.004897980535119808
0.9570000000000001,-0.0087,-1.136,0.005951087926217213,0.9482129910969478,0.00541786499326209,0.005037467158755911
0.958,-0.0066,-1.1359999999997779,0.005981479508921373,0.9478417680482677,0.005491474340229091,0.005027316525433968
0.9590000000000003,0.0018000000000014654,0.864,0.006010397728844374,0.9529176709678485,0.005561515157277057,0.005166110788068362
0.9600000000000002,0.0051,0.864,0.006010397728844375,0.9474703995527837,0.005561515157277059,0.005017161915049771
0.9610000000000001,-0.0014,-0.136,0.00587867840616484,0.9423651562121707,0.005242486911207827,0.00487756537503398
0.962,-0.004,-0.136,0.005907395545470378,0.9372321042606608,0.005312040704822917,0.00473720844308291
0.9630000000000003,-0.004700000000001599,0.864,0.005808098233849922,0.9372321042606608,0.0050715395655729365,0.00473720844308291
0.9640000000000002,-0.0083,0.864,0.00577132219366557,0.9423651562121638,0.004982466866452474,0.004877565375033792
0.9650000000000001,0.0026,-0.136,0.005748771914014812,0.95833398001785,0.0049278493963728935,0.005314213033659976
0.966,0.0131,-2.136,0.0057483974601968265,0.9633546011945816,0.004926942457722165,0.005451495685678986
0.9669999999999999,0.0008,-0.136,0.005748052391359237,0.9633546011945816,0.004926106690396688,0.005451495685678986
0.9680000000000002,-0.0006,-1.136,0.005786196246384066,0.9683491921970532,0.005018492279081324,0.00558806657490428
0.9690000000000001,-0.0082,-0.136,0.005741524563581224,0.9683491921970532,0.004910296090977435,0.00558806657490428
0.97,0.0095,-0.136,0.005745187250191368,0.9629892151081486,0.0049191672304683244,0.005441504656841988
0.9709999999999999,0.0164,0.864,0.005745187250191368,0.9629892151081486,0.0049191672304683244,0.005441504656841988
0.9720000000000002,0.0052,-0.136,0.005735001344985371,0.9416179528802825,0.0048944966551389725,0.00485713402771894
0.9730000000000001,0.0034,-1.136,0.005735468902745663,0.9361049297874553,0.004895629094398206,0.004706387256715186
0.974,0.0016,-0.136,0.005679374611334736,0.930559245807756,0.004759766997332438,0.004554747414314633
0.9749999999999999,-0.0031,0.864,0.0054210506340628606,0.930559245807756,0.0041340983884284935,0.004554747414314633
0.9760000000000002,-0.0075,-2.136,0.005275913360046032,0.9357289032322461,0.003782571452008465,0.004696105277471675
0.9770000000000001,0.0049,-0.136,0.005267813569509473,0.930180977407163,0.0037629535104958638,0.004544404134592781
0.978,0.0002,0.864,0.005263936630441054,0.9249803134900885,0.003753563444968999,0.004402198437396494
0.9789999999999999,-0.0041,-0.136,0.005261516382578329,0.9249803134900884,0.0037477015302932273,0.004402198437396491
0.9800000000000002,-0.0052,-0.136,0.0052548141832655555,0.9249803134900884,0.003731468597659929,0.004402198437396491
0.9810000000000001,0.0035,-0.136,0.005261224838163584,0.9249803134900884,0.0037469954007642,0.004402198437396491
0.982,-0.0041,-1.136,0.005287897484171593,0.9249803134900884,0.003811597368803949,0.004402198437396491
0.9829999999999999,-0.0033,0.864,0.005177020031619283,0.9245997626627792,0.0035430487724643794,0.004391792747550152
0.9840000000000002,0.005,-0.136,0.005162754039194104,0.9245997626627792,0.003508496100546117,0.004391792747550152
0.9850000000000001,-0.0004,-0.136,0.005186858919806677,0.9301809774071629,0.0035668788619139915,0.004544404134592778
0.986,-0.0011,-1.136,0.005182325303949761,0.9298025551169401,0.0035558983050316697,0.004534056646950081
0.9869999999999999,-0.0073,-0.136,0.005189429457989508,0.9242190551421852,0.0035731047843621183,0.004381382773120503
0.9880000000000002,0.0036,1.864,0.005168065738201701,0.9072624058372978,0.0035213611987228214,0.003917724252792417
0.9890000000000001,0.0021,0.864,0.005172537171148389,0.9125640489475818,0.0035321911466862565,0.00406269110064209
0.99,-0.0044,-0.136,0.005277474889265494,0.9129496167148345,0.0037863535237496223,0.004073233972481699
0.9909999999999999,-0.0033,-0.136,0.0052653495889456794,0.9294239787491178,0.003756985673874594,0.0045237049462467415
0.9920000000000002,-0.0044,-1.136,0.005237678808328108,0.9238381907345938,0.0036899661931468685,0.004370968508810718
0.9930000000000001,-0.0036,0.864,0.00523885433812718,0.9242190551421922,0.003692813362433583,0.004381382773120695
0.994,0.0102,-0.136,0.005240999837741794,0.9238381907345962,0.0036980098284119097,0.004370968508810782
0.9949999999999999,-0.0036,-2.136,0.0052419938892641176,0.9182184233861217,0.003700417451737159,0.004217302948679704
0.9960000000000002,-0.0018,0.864,0.005233968638569346,0.9125640489475891,0.0036809800480113006,0.004062691100642291
0.9970000000000001,0.0029,-0.136,0.005268133791803289,0.9121783182050908,0.003763729098729011,0.0040521437724469565
0.998,0.0033,-0.136,0.0052532855484219146,0.9068744200921932,0.0037277661971075546,0.003907115264350831
0.9989999999999999,0.0018,0.864,0.005192695835215225,0.884147812636214,0.0035810160503489336,0.003285684402884622
1.0000000000000002,0.0008,-0.136,0.005140698292963816,0.9003674615106738,0.0034550764056034407,0.00372919056156926
1.0010000000000001,0.0095,-1.1359999999997779,0.0051241141679189564,0.9007582500179132,0.0034149091452651326,0.003739876188061259
1.002,-0.0007,-0.136,0.005124648301203386,0.9007582500179131,0.003416202832489089,0.003739876188061256
1.003,0.0029,1.863999999999556,0.005133248952282329,0.900367461510676,0.003437033873622245,0.003729190561569321
1.0040000000000002,0.009,-0.136,0.00504552339146397,0.8999765033149613,0.0032245598703098287,0.0037185002951566635
1.0050000000000001,-0.0077,-0.13600000000022205,0.0050450415643670974,0.894206786434181,0.0032233928702790284,0.0035607345512556248
1.006,-0.0055,-1.136,0.005046158599543471,0.8711497676500838,0.003226098363792558,0.0029302690022907094
1.007,-0.0077,-1.136,0.005007893444924495,0.8651878339775256,0.003133418983764464,0.0027672473288923127
1.0080000000000002,-0.0059,-1.136,0.004932930637474445,0.8595940423693034,0.0029518567611936785,0.002614292043124596
1.0090000000000001,-0.0041,-0.136,0.004898989599422499,0.8595940423693059,0.0028696505243317894,0.002614292043124666
1.01,-0.0027,-0.136,0.004929897842402164,0.8762682972894617,0.0029445112383583434,0.0030702288396487515
1.011,-0.007,-0.136,0.00495601497154609,0.870341426809327,0.003007767727487292,0.0029081659257095354
1.0120000000000002,-0.0005,-0.136,0.004972634144696474,0.8762682972894617,0.0030480198754138884,0.0030702288396487515
1.0130000000000001,0.0056,-1.1359999999993338,0.004961390679595139,0.882155348251457,0.0030207878575288115,0.003231202938307976
1.014,0.0045,1.864,0.0049816754548044455,0.925629699173671,0.0030699182062528035,0.004419955082577882
1.015,-0.0021,-1.1359999999997779,0.0049460957251638085,0.9418823013553327,0.0029837430080209846,0.0048643623085301395
1.0160000000000002,0.0005,-0.136,0.004939430778924251,0.9418823013553328,0.002967600303475465,0.004864362308530143
1.0170000000000001,0.0095,-1.1359999999995558,0.0048343587010334825,0.926009826740783,0.0027131125029126275,0.0044303491988996885
1.018,0.0033,0.864,0.004834204092632659,0.9260098267407831,0.0027127380366161204,0.004430349198899692
1.019,-0.0022,-0.136,0.004837169150855618,0.9418823013553328,0.002719919498721456,0.004864362308530143
1.0200000000000002,0.0003,-0.136,0.004816828658713385,0.9469901477799759,0.0026706542018742397,0.005004030026646512
1.0210000000000001,-0.008,-0.136,0.004789597180018241,0.9520705910688889,0.002604698723898395,0.00514294844004256
1.022,-0.0026,-0.136,0.004512267441494945,0.9924871243104137,0.0019329975773689503,0.006248088356697855
1.023,-0.0001,-0.136,0.004483577698810597,0.9976886395745077,0.0018635101392120335,0.006390317332921279
1.0240000000000002,0.0024,-0.136,0.004517729487156591,0.9928416546207703,0.0019462268197605501,0.00625778254781756
1.0250000000000001,-0.0052,-1.136,0.004521806418723638,0.9928416546207703,0.001956101273263046,0.00625778254781756
1.026,0.0013,-0.136,0.0045535912438892335,0.9924871243104137,0.0020330850962733396,0.006248088356697855
1.027,-0.0031,-0.136,0.004548744633359778,0.9777967481865474,0.0020213464566786413,0.005846398262494413
1.0280000000000002,0.0023,0.864,0.004537393486037756,0.9827179407897818,0.001993853629146961,0.00598096216363068
1.0290000000000001,-0.0014,-0.136,0.0045658938728025365,0.9774367608884126,0.002062882441449496,0.005836554856819804
1.03,-0.0036,-0.136,0.00456414028484657,0.9774367608884126,0.0020586351975483024,0.005836554856819804
1.031,0.0054,-1.136,0.00453449266735731,0.9774367608884126,0.001986827757187089,0.005836554856819804
1.0320000000000003,0.0043,-1.136,0.00453091045433015,0.9823597568721729,0.00197815152718641,0.005971168069157311
1.0330000000000001,0.0032,-0.136,0.004579174120727633,0.9823597568721729,0.002095047609905576,0.005971168069157311
1.034,0.0064,0.864,0.004596726782792746,0.9820014423073931,0.002137560696661291,0.005961370402299274
1.035,-0.0045,-1.136,0.004579966717787365,0.9820014423073931,0.0020969673043335613,0.005961370402299274
1.0360000000000003,-0.0031,-0.136,0.004580065533920686,0.9820014423073931,0.002097206640044188,0.005961370402299274
1.0370000000000001,0.0034,-1.136,0.004586707189095406,0.9820014423073931,0.0021132929329151485,0.005961370402299274
1.038,-0.0028,-1.136,0.004530074315108649,0.9869016683944368,0.001976126372304964,0.006095361000084235
1.039,-0.0105,0.864,0.004522127287906164,0.966059544671843,0.001956878428280522,0.005525459006361488
1.0400000000000003,0.0004,1.864,0.004521674509182828,0.9606867929962872,0.00195578178430282,0.005378547783089304
1.0410000000000001,-0.0011,-0.136,0.004526816338425361,0.9816429969523777,0.001968235452689985,0.005951569159144649
1.042,-0.0022,0.864,0.004549382905197533,0.9869016683944368,0.0020228923706779836,0.006095361000084235
1.043,0.0039,-1.136,0.004571682714110773,0.9869016683944368,0.0020769031929366026,0.006095361000084235
1.0440000000000003,-0.0015000000000003552,-0.136,0.004563279059175821,0.9816429969523777,0.0020565492825160995,0.005951569159144649
1.0450000000000002,-0.0023,-0.136,0.004456668883320796,0.9865450034598364,0.0017983361614320411,0.0060856084403151265
1.046,0.006,-1.136,0.004442485887303995,0.9872582044773683,0.0017639845093645964,0.006105110036564452
