time_sec,bts_raw,diy_raw,bts_rms,diy_rms,bts_norm_rms,diy_norm_rms
0.0,0.0015,0.679,0.007727311034214351,1.2890255248113132,0.009945003375493174,0.029663882860080034
0.001,-0.0148,0.679,0.007755096266170288,1.2891619760457809,0.010040149751680046,0.02967331226401395
0.002,0.0057,0.679,0.007756255895380065,1.2917194539060692,0.010044120728679834,0.029850045672771865
0.003,0.0031,0.679,0.007781467395246824,1.3101119967264916,0.010130453743799594,0.031121054442330733
0.004,-0.0039,-2.320999999999993,0.007883761421171875,1.3281174434012883,0.010480744354573308,0.032365313099055486
0.005,-0.0018,-1.321,0.007893694784817126,1.3281174434012886,0.010514759674499049,0.0323653130990555
0.006,-0.0077,-1.321,0.00799427354998157,1.3309389328466106,0.01085917663102917,0.03256029091496903
0.007,0.0013,-0.321,0.008227271794960269,1.323877710446484,0.011657044314940565,0.03207232817474363
0.008,0.0059,-2.321,0.008772379983379933,1.3295326965581638,0.013523685876190501,0.03246311356042166
0.009000000000000001,-0.004599999999999965,1.679,0.008810075899218039,1.3172546036045278,0.013652769908842411,0.031614641221936614
0.01,0.0155,0.679,0.008965864337994421,1.3101196281132006,0.014186244145260148,0.03112158180603056
0.011,0.0239,-0.321,0.008971365165231716,1.3229379009301687,0.014205080906403213,0.032007383041892
0.012,0.0103,0.679,0.00907324700197344,1.340771117386417,0.014553960036892757,0.03323973980335977
0.013000000000000001,-0.0016999999999999962,0.679,0.009076312680004575,1.3110762519654495,0.014564457993349654,0.03118768888634289
0.014,0.0004,-0.321,0.009304036134519229,1.2831303277406665,0.015344262945281887,0.029256497799285183
0.015,0.0021,-1.321,0.01043094622729941,1.2385176371243043,0.01920319821659733,0.02617355698133303
0.016,-0.0147,-0.321,0.010532057443462117,1.2490695287764888,0.01954943847203178,0.026902740920514614
0.017,0.0055,0.679,0.010556239734595387,1.2620111680242057,0.01963224711559018,0.02779706734057063
0.018000000000000002,0.0027999999999999588,1.679,0.010723063688576905,1.287504248232844,0.020203510825307577,0.0295587556957158
0.019,-0.0091,-0.321,0.010751694499745626,1.3000633406559547,0.020301552761193317,0.030426646381812215
0.02,0.0063,-2.321,0.010760863101181992,1.281663836666004,0.020332949267177342,0.02915515656362384
0.021,0.008,-0.321,0.011043867657178973,1.2792237646195723,0.021302056093069212,0.028986536433191056
0.022,-0.0122,-0.321,0.011043920355155615,1.266458029098308,0.021302236549418034,0.02810436576457747
0.023,-0.0097,-0.321,0.011439979551314268,1.2639886032783763,0.022658482102082184,0.02793371715423832
0.024,0.0267,-0.32100000000002776,0.011456545892488332,1.2639886032783765,0.022715211062700084,0.027933717154238334
0.025,0.011,-2.3209999999999726,0.012875497766744145,1.261514343544167,0.027574199788549584,0.02776273449832983
0.026000000000000002,-0.003300000000000045,-0.321,0.012910195082069963,1.2689226492255237,0.027693015561687635,0.028274682279586155
0.027,-0.0163,0.679,0.013215852253596444,1.281663836666004,0.0287396928855406,0.02915515656362384
0.028,0.0193,-0.321,0.013275223564273589,1.2918633598284968,0.028943001069879452,0.029859990229714462
0.029,0.0051,-0.321,0.013349459434549222,1.281663836666004,0.029197210718048174,0.02915515656362384
0.03,-0.008,-1.321,0.013382224921659197,1.281663836666004,0.02930941123404371,0.02915515656362384
0.031,-0.0041,-1.321,0.013391783349685858,1.3000633406559547,0.029342142642952665,0.030426646381812215
0.032,-0.0077,-0.321,0.013392201927137375,1.300063340655955,0.02934357599890695,0.03042664638181223
0.033,-0.0373,0.679,0.013427582683822891,1.281663836666004,0.029464732114886656,0.02915515656362384
0.034,-0.0093,2.679,0.013813915917877246,1.281663836666004,0.03078767256321976,0.02915515656362384
0.035,0.0087,-1.321,0.014013070351182114,1.281663836666004,0.031469647169750245,0.02915515656362384
0.036000000000000004,-0.00109999999999998,1.679,0.014251160815629271,1.281663836666004,0.03228495239853945,0.02915515656362384
0.037,0.0018,1.679,0.014280447990361425,1.281663836666004,0.03238524195339849,0.02915515656362384
0.038,-0.0007,0.679,0.014488393202539526,1.2762879535854639,0.03309731926898588,0.028783658473000785
0.039,0.0061,-1.3209999999999862,0.014622504933264351,1.2629963146095564,0.03355656485681658,0.02786514547209965
0.04,-0.0005,-0.3209999999999584,0.014661173073420838,1.2629963146095564,0.03368897812641284,0.02786514547209965
0.041,0.0053,2.679,0.014661898843157176,1.2629963146095566,0.03369146341645714,0.027865145472099662
0.042,-0.0002,1.679,0.014670623542236388,1.2629963146095566,0.03372133984513063,0.027865145472099662
0.043000000000000003,0.011000000000000008,0.679,0.01467796306956803,1.2629963146095564,0.03374647296007592,0.02786514547209965
0.044,0.0123,-1.321,0.014683573840791034,1.2629963146095566,0.03376568620797426,0.027865145472099662
0.045,0.0086,0.679,0.014688597167302765,1.2605201071253769,0.03378288783921321,0.027694028217766283
0.046,0.0147,-1.321,0.014810218317832191,1.2575406319349174,0.03419936130104733,0.027488132864810944
0.047,0.0093,0.679,0.014811913959062938,1.2520611771064634,0.03420516777114174,0.02710947749304616
0.048,0.0002,-0.321,0.014917784248569403,1.2390156135889983,0.034567704762316395,0.0262079694309785
0.049,-0.0059,-0.321,0.015099284416183426,1.239015613588998,0.03518922497323889,0.026207969430978483
0.05,0.0065,-0.321,0.015167237123382672,1.2390156135889983,0.03542191886805139,0.0262079694309785
0.051000000000000004,-0.0013999999999999473,0.679,0.015201092660387772,1.2364913830946707,0.03553785209707767,0.02603353356716113
0.052000000000000005,0.006200000000000044,-2.321,0.015926694776130124,1.2339619889678213,0.03802256814968778,0.025858740872736815
0.053,0.0126,-2.321,0.016822175994569484,1.2314273993896154,0.041089009812403675,0.02568358914887865
0.054,0.0039,-1.321,0.01685422691019556,1.2605201071253769,0.041198763385097564,0.027694028217766283
0.055,-0.0127,-1.321,0.016862931843521056,1.2545540807263642,0.041228572128900125,0.027281748526665327
0.056,-0.0195,-1.3210000000000137,0.016902860844021813,1.2515604028440148,0.041365303026394,0.027074871702788883
0.057,-0.0305,-2.3209999999999726,0.01708216880946507,1.2485595470248798,0.04197931636846083,0.02686749885067475
0.058,-0.0082,-0.321,0.017129827320101768,1.261506418123536,0.04214251581875645,0.027762186815542156
0.059000000000000004,-0.016699999999999906,-1.321,0.017142274378247956,1.2450480688377954,0.04218513890999698,0.026624839659203772
0.06,-0.0032,-2.321,0.017249593823504744,1.231928241910552,0.04255263831855912,0.025718199656109407
0.061,0.0135,-2.321,0.01733310911749454,1.234969510845075,0.042838623967047205,0.02592836523919961
0.062,0.0023,-0.321,0.017226523423240624,1.2349695108450747,0.042473637179184336,0.025928365239199596
0.063,0.0204,0.679,0.01733987703492129,1.245551461388438,0.0428617996892621,0.026659626385141792
0.064,0.0471,1.679,0.017339133920709075,1.2485595470248798,0.042859255005651124,0.02686749885067475
0.065,0.0145,1.679,0.017398425772736863,1.2485595470248798,0.043062291095715036,0.02686749885067475
0.066,-0.0072,1.679,0.01746459645933483,1.2430405032487573,0.043288882727182364,0.026486107701690055
0.067,-0.0189,2.679,0.01740651909520987,1.24855954702488,0.04309000546951763,0.026867498850674763
0.068,-0.0079,1.679,0.017412290620144728,1.251560402844015,0.043109769194488314,0.0270748717027889
0.069,-0.0045,-0.321,0.01756704360412162,1.2575406319349178,0.04363969767062473,0.02748813286481097
0.07,-0.0249,-0.321,0.017835754605422194,1.2629963146095566,0.04455985835367537,0.027865145472099662
0.07100000000000001,-0.0004000000000004094,-0.321,0.01784165449520539,1.244048709342694,0.044580061644893636,0.026555779350652772
0.07200000000000001,-0.0298999999999995,-0.32099999999998613,0.017824312687134785,1.244048709342694,0.04452067721373024,0.026555779350652772
0.073,0.0061,0.679,0.01836970873023144,1.2570420405527902,0.046388304490320886,0.02745367792156044
0.074,0.0587,-0.321,0.019916585934196984,1.2699024341330412,0.05168535439786914,0.028342389894672058
0.075,0.0094,1.679,0.01976413948067119,1.2723603823080052,0.05116332429070567,0.02851224534728689
0.076,0.0282,1.679,0.019863782155596726,1.2560442640356366,0.05150453574604878,0.027384727004020424
0.077,-0.0126,1.679,0.020149065015258403,1.261506418123536,0.052481444282500164,0.027762186815542156
0.078,0.014,0.679,0.020085958627521633,1.2644765488007172,0.05226534588472831,0.027967436419922113
0.079,0.0093,-0.321,0.020146406753867786,1.2644765488007172,0.052472341463467534,0.027967436419922113
0.08,0.005,-2.321,0.02075019072659984,1.2644765488007172,0.05453990948292015,0.027967436419922113
0.081,0.001,-1.321,0.021157250374862588,1.2718676005059737,0.05593382444053229,0.02847819187257291
0.082,-0.0098,-0.321,0.02125598362544841,1.2664501346151664,0.05627192170807675,0.0281038202197117
0.083,-0.0325,-0.321,0.02124314795190032,1.2664501346151664,0.056227967861445016,0.0281038202197117
0.084,-0.0236,-0.321,0.02091787786823525,1.2767711986557042,0.05511412904981258,0.028817052915961632
0.085,-0.026,-0.321,0.020917003844321096,1.2455514613884378,0.055111136085483035,0.02665962638514178
0.08600000000000001,-0.009199999999999533,-0.321,0.020904779274940964,1.2455514613884378,0.055069274873785795,0.02665962638514178
0.08700000000000001,0.024399999999999936,-0.321,0.02091997993739936,1.2380033086454263,0.05512132727165132,0.026138014532772737
0.088,0.0197,-1.321,0.02095378023966181,1.224808022392539,0.05523707135755252,0.025226159945399586
0.089,-0.0107,-0.321,0.020970277699256898,1.2222544503773232,0.05529356444349297,0.025049696448387324
0.09,0.0014,-1.321,0.020992432904393406,1.2359843005545104,0.055369431633868,0.025998491846082834
0.091,0.005,1.679,0.02104063693552972,1.2359843005545104,0.05553449913762298,0.025998491846082834
0.092,-0.0047,-0.321,0.02106600106933201,1.2037071655794742,0.055621354824854016,0.023767994300960677
0.093,0.004,-1.321,0.021110765021034962,1.190131690178642,0.05577464229047944,0.02282986690586066
0.094,-0.0039,-0.32099999999997225,0.021091979642325218,1.187503553559955,0.05571031456730748,0.02264825065396095
0.095,-0.019,0.6789999999999723,0.021059461581172726,1.223792134807877,0.05559896132454207,0.025155957470320522
0.096,-0.0023,-0.321,0.021043708654572276,1.223792134807877,0.055545017780621056,0.025155957470320522
0.097,-0.0178,-0.321,0.020994906439754026,1.2207230192461849,0.05537790188620587,0.02494386755802362
0.098,-0.0234,-0.321,0.021130404028754966,1.223792134807877,0.05584189313867922,0.025155957470320522
0.099,-0.0144,-1.321,0.021251530050032028,1.2430485464042509,0.0562566711043526,0.026486663520494835
0.1,0.0102,-0.321,0.021549035829574164,1.262011168024206,0.057275435204036,0.02779706734057066
0.101,0.0497,-0.321,0.021736870823618273,1.264484455605434,0.05791864808175182,0.027967982816265037
0.10200000000000001,0.05439999999999939,-0.321,0.02196436118308183,1.264484455605434,0.058697654834502046,0.027967982816265037
0.10300000000000001,0.010799999999999758,2.679,0.022027955200863328,1.24555948832951,0.05891542304851835,0.026660181083455938
0.10400000000000001,-0.006700000000000071,1.679,0.021991912092717385,1.2288875822130847,0.058791998808906586,0.02550807617408419
0.105,-0.0118,0.679,0.022069779205113844,1.2232797880973394,0.0590586431032716,0.025120551971009954
0.106,-0.0259,0.679,0.02235444301227007,1.2232797880973394,0.06003343178689409,0.025120551971009954
0.107,-0.0129,1.679,0.02236892576511735,1.2232797880973392,0.06008302581053997,0.02512055197100994
0.108,-0.0089,0.679,0.022160918336409378,1.2232797880973398,0.059370735443740136,0.025120551971009986
0.109,-0.0198,-0.321,0.022221101746329856,1.2425441398467778,0.05957682454062381,0.026451806722050445
0.11,-0.0231,-1.321,0.022159400073354554,1.2395214560335248,0.05936553637871185,0.026242925455780816
0.111,-0.0144,-0.321,0.022440691715372215,1.2334538665743724,0.06032877758656208,0.025823627293043765
0.112,-0.0224,1.679,0.022430013579832486,1.2273562815935202,0.06029221190654009,0.025402256302666716
0.113,-0.0004,-1.321,0.022429236238571723,1.2850674857636362,0.060289550017514314,0.029390364272195168
0.114,0.0143,-0.321,0.022644073186227236,1.2850674857636362,0.06102522705173476,0.029390364272195168
0.115,-0.0154,-0.321,0.02226709356027821,1.272360382308005,0.05973431663708666,0.028512245347286875
0.116,-0.0035,-1.321,0.022297506445218777,1.262003245723648,0.059838461018392235,0.027796519873394283
0.117,-0.0072,-1.321,0.0222959611131011,1.2515604028440146,0.05983316925940188,0.02707487170278887
0.11800000000000001,-0.02350000000000012,-2.321,0.022239343921745845,1.222254450377323,0.059639292145261744,0.02504969644838731
0.11900000000000001,-0.03219999999999966,-1.321,0.02223604269276305,1.222254450377323,0.059627987579758235,0.02504969644838731
0.12,-0.0079,-0.321,0.02225250270189869,1.2354770098901364,0.05968435242219477,0.02596343574267017
0.121,0.0017,-0.321,0.02212462020802703,1.2354770098901364,0.05924643792542454,0.02596343574267017
0.122,0.046,1.679,0.02220467412286718,1.2354770098901364,0.059520570598086464,0.02596343574267017
0.123,0.0775,1.679,0.02203671205279246,1.2354770098901364,0.058945409579823305,0.02596343574267017
0.124,-0.0106,0.679,0.02203666277710937,1.2329455347731797,0.05894524084260751,0.025788499242318543
0.125,-0.0228,0.6789999999999445,0.02124104685977055,1.2385095645440822,0.056220772985314436,0.02617299912914503
0.126,-0.034,-1.321,0.02122487235608266,1.2385095645440822,0.056165385813634006,0.02617299912914503
0.127,-0.0032,-1.3209999999999722,0.021143059631453354,1.2253197300979333,0.05588523035958571,0.025261521286534253
0.128,0.0248,-0.321,0.021130266884201644,1.2119863615022124,0.055841423507643456,0.02434012457818434
0.129,0.0499,-0.321,0.021083475986216692,1.215077544837148,0.05568119506726701,0.024553739474470176
0.13,0.042,1.679,0.021104384574387743,1.256052223921291,0.055752793404067434,0.02738527706849874
0.131,0.0208,-0.321,0.021116081168070195,1.256052223921291,0.055792846641858664,0.02738527706849874
0.132,0.0019,-0.321,0.02111613367908523,1.2505662475325212,0.05579302645798539,0.027006171027110212
0.133,-0.004,1.679,0.021108222024270613,1.256052223921291,0.05576593417794087,0.02738527706849874
0.134,-0.0091,-0.321,0.021026893757782862,1.2615143435441671,0.05548743767842842,0.027762734498329843
0.135,0.005,-1.321,0.02097768638978223,1.2615143435441671,0.055318934397463236,0.027762734498329843
0.136,-0.0081,-1.321,0.02081954651931339,1.2669529149568743,0.05477740803447901,0.028138564639214315
0.137,-0.0121,-0.321,0.02082982348662637,1.2855629849283234,0.05481259997383628,0.029424605529088006
0.138,-0.0084,-0.321,0.021198449134409984,1.290900243228682,0.05607490343820074,0.0297934344708711
0.139,-0.0115,-2.321,0.02122513120511563,1.2909002432286827,0.05616627220347973,0.029793434470871145
0.14,-0.0143,-0.321,0.021274226325583682,1.3569924233274357,0.05633439110953748,0.03436070618120283
0.14100000000000001,-0.01170000000000006,-0.321,0.021274722364603725,1.369372004503565,0.05633608972106173,0.035216191819700586
0.14200000000000002,-0.013799999999999436,-0.321,0.022005314974248492,1.3693720045035642,0.058837894974544835,0.035216191819700524
0.14300000000000002,0.006499999999999928,-0.321,0.022916850454771376,1.3693720045035642,0.06195931205952907,0.035216191819700524
0.14400000000000002,0.003899999999999808,-3.321,0.022913301794666815,1.3761998174204064,0.061947160203111126,0.03568802489786402
0.145,-0.003,0.679,0.02331676935140696,1.4577961752994522,0.06332877457990216,0.041326706152593824
0.146,0.0035,0.679,0.02351473173845626,1.4667714337849853,0.0640066672021021,0.041946937534167866
0.147,0.0256,-1.321,0.023594869311817347,1.5153921736525704,0.0642810863508718,0.04530685287363489
0.148,0.0226,-2.321,0.023528517502089653,1.5153921736525706,0.06405387449030349,0.0453068528736349
0.149,0.0361,-2.321,0.023498929781016364,1.519922593330829,0.06395255575939579,0.04561992557908239
0.15,0.0292,0.679,0.023498929781016364,1.5153921736525704,0.06395255575939579,0.04530685287363489
0.151,0.0315,0.679,0.023494707017576107,1.5153921736525704,0.06393809553680445,0.04530685287363489
0.152,0.0178,-0.321,0.023080076927148998,1.5174525331019129,0.06251825673089716,0.04544923312818294
0.153,0.0012,0.679,0.022452209458567646,1.5195100988369121,0.060368218377577755,0.045591420324301586
0.154,-0.019,-0.321,0.022426548668403563,1.4933735934847356,0.06028034683495122,0.043785268351049
0.155,-0.0378,-1.321,0.022476924941867392,1.5162192910221666,0.06045285285806031,0.04536401046410378
0.156,-0.0211,-1.321,0.022532881358690988,1.51869135704654,0.060644467248525374,0.04553484152463654
0.157,-0.0007,-2.321,0.022411429126278682,1.5166326805518568,0.06022857222154981,0.04539257756994717
0.158,0.0182,-2.320999999999917,0.022415548886586104,1.5058808675383357,0.06024267972529969,0.04464957815098327
0.159,0.0017,0.6790000000000278,0.022400476966342592,1.5083698772907495,0.06019106818591712,0.044821580100562676
0.16,0.0355,1.679,0.022620610399596622,1.510439815738469,0.06094488224386384,0.04496462230767813
0.161,0.0116,1.6790000000000556,0.0233192427320655,1.5166326805518568,0.06333724430248586,0.04539257756994717
0.162,-0.0015,3.679,0.023375659090723495,1.5273088057815325,0.06353043369505525,0.046130346617126415
0.163,-0.0373,0.679,0.023273687456175647,1.516632680551857,0.06318124706539292,0.04539257756994718
0.164,-0.0231,-0.321,0.02329167673595602,1.522800360673638,0.06324284866670503,0.045818792454922916
0.165,-0.0187,0.679,0.023351795749371504,1.5334335456639987,0.06344871724737712,0.04655359413531285
0.166,-0.0067,0.679,0.023302171986522013,1.5588985501685195,0.0632787880844544,0.048313342330987226
0.167,-0.0102,0.679,0.02330020894983322,1.5648996582744092,0.06327206595855828,0.048728046328369655
0.168,-0.0069,1.679,0.023359037063860295,1.562500701109367,0.06347351404711342,0.04856226742415098
0.169,-0.0097,1.679,0.023473409108739865,1.562500701109367,0.06386516402954404,0.04856226742415098
0.17,-0.0071,-0.321,0.023386769524574146,1.5831624812277052,0.0635684797160649,0.04999009086224271
0.171,-0.0189,-0.321,0.023485934570903824,1.5851347552233577,0.06390805560363118,0.050126384009357955
0.17200000000000001,-0.012199999999999834,-0.321,0.02357756841378788,1.59535252929154,0.06422184201003302,0.050832478896445064
0.17300000000000001,-0.006199999999999745,-0.321,0.02312929156864982,1.5871045783019353,0.0626867849188772,0.05026250778690173
0.17400000000000002,0.0030000000000000417,-1.321,0.021808145232312042,1.5788135394076823,0.058162716647125995,0.04968955910621968
0.17500000000000002,0.004500000000000463,1.679,0.021782857789890888,1.5871045783019353,0.05807612357807325,0.05026250778690173
0.176,0.0212,-0.321,0.021677713872029165,1.5953525292915405,0.057716073938088315,0.05083247889644509
0.177,0.0101,-0.321,0.021416567941592083,1.6012170194782362,0.05682181871011537,0.051237741971217214
0.178,0.0003,-1.321,0.021425510762897088,1.5988725540100648,0.056852442065767304,0.05107572869229935
0.179,0.0132,-3.321,0.02128085628832722,1.6090030902601051,0.05635709442654783,0.05177579504744401
0.18,0.0086,-2.321,0.02071196266686975,1.6109437279795087,0.054409003203003486,0.05190990198328107
0.181,0.0011,-0.321,0.020317342593245278,1.6027760119450774,0.05305768571047694,0.0513454754758434
0.182,-0.0079,-1.321,0.02021847574821091,1.6027760119450774,0.05271913096870019,0.0513454754758434
0.183,-0.0267,-1.321,0.020233186129947876,1.6128820307035687,0.05276950447347487,0.0520438475602681
0.184,-0.0187,-0.321,0.0202441534775674,1.6070601090863457,0.052807060517060696,0.05164152616820052
0.185,0.0034,-1.321,0.02026990719825189,1.6090030902601047,0.05289525028637211,0.051775795047443986
0.186,-0.0113,-2.321,0.020280753730050005,1.6090030902601036,0.05293239261422537,0.05177579504744391
0.187,-0.0464,-1.321,0.020276690215123697,1.6148180068405273,0.052918477714381,0.052177632359453066
0.188,-0.0225,-1.3210000000000832,0.020273215630947774,1.624849130139876,0.052906579519914974,0.05287082882535128
0.189,-0.018,-4.320999999999945,0.020258833575152933,1.6267708646168522,0.05285733031828273,0.05300362946074185
0.19,0.002,-2.320999999999889,0.0202539501513646,1.6121045085434633,0.05284060776302095,0.051990117225443326
0.191,0.0564,1.6789999999999445,0.0203879813551161,1.6121045085434633,0.05329957759826087,0.051990117225443326
0.192,0.0641,-0.3209999999999445,0.020389133096422325,1.614041417286468,0.05330352156431327,0.05212396647196843
0.193,0.0004,1.679,0.020352402308262425,1.6159760044524365,0.05317774246722153,0.052257655286909864
0.194,0.0433,4.679,0.020403419435682232,1.6179082783693306,0.053352442998970066,0.05239118424576787
0.195,0.0358,1.679,0.020466674116314854,1.5863081188614845,0.0535690492036113,0.05020746879945477
0.196,0.0195,3.679,0.020570589481660087,1.5863081188614845,0.0539248918490286,0.05020746879945477
0.197,-0.0015,-0.321,0.02063486526780306,1.594560189587026,0.05414499467695404,0.05077772460158004
0.198,-0.0202,-1.321,0.020573713653947025,1.5922059222084664,0.053935590110326434,0.050615033965856024
0.199,-0.0144,-0.321,0.020516301667856316,1.5815715124412373,0.053738991340343704,0.0498801476477868
0.2,-0.0093,-0.321,0.02028772209588206,1.5664820297295348,0.05295625474206061,0.048837395427936844
0.201,-0.0234,0.679,0.020075661013283848,1.5748379915773918,0.05223008324306135,0.04941483058143466
0.202,-0.0104,0.679,0.01982700810014634,1.5728528060392566,0.05137860848658418,0.04927764518772337
0.203,0.0016,-0.321,0.019791431009025903,1.5772181837702777,0.05125678005266116,0.049579312740314525
0.20400000000000001,-0.01650000000000009,-3.321,0.019794379914967415,1.5752359978637052,0.051266878140540935,0.04944233463485364
0.20500000000000002,-0.01979999999999976,-1.321,0.019745347635902907,1.5752359978637052,0.05109897442548216,0.04944233463485364
0.20600000000000002,-0.01110000000000007,-0.321,0.01974343868020779,1.5752359978637052,0.05109243749187011,0.04944233463485364
0.20700000000000002,-0.013599999999999533,-0.321,0.02041250128748426,1.585912891276098,0.05338354244379024,0.05018015676696952
0.20800000000000002,0.0032000000000009412,-1.321,0.021085255325342445,1.6027697740055378,0.05568728814829981,0.05134504440571154
0.209,0.0371,0.679,0.02125203697573918,1.6420637770701434,0.05625840699571056,0.05406043960548414
0.21,0.0611,1.679,0.021267351111237412,1.6443466628013585,0.056310847965050044,0.05421819744313633
0.211,0.0216,1.679,0.021841701933334776,1.6363456838993449,0.058277626556971725,0.05366529323359858
0.212,-0.0049,-0.321,0.025136581870327645,1.6504169011089176,0.06956045070156971,0.05463767865340449
0.213,0.0091,1.679,0.026441699856004988,1.6302230513693554,0.07402963228085022,0.05324219134309966
0.214,0.022,1.679,0.026204078409443284,1.6302230513693556,0.07321593313374637,0.053242191343099675
0.215,0.0019,2.679,0.026103393592824226,1.6344352073318973,0.07287115301985223,0.05353327057120921
0.216,-0.0017,1.679,0.0260569503162084,1.6344352073318973,0.07271211495692555,0.05353327057120921
0.217,-0.0181,0.679,0.026049742497316054,1.6424454929208496,0.0726874328578556,0.054086817915349396
0.218,-0.033,-2.321,0.02603361496703174,1.640542119839068,0.07263220653957869,0.05395528613628508
0.219,-0.0251,2.679,0.026045964273996785,1.6348187043878022,0.07267449489650177,0.05355977197049447
0.22,-0.023,0.679,0.026036888266902876,1.6348187043878022,0.07264341546601145,0.05355977197049447
0.221,-0.0209,1.679,0.026102124592677488,1.6367287333172111,0.072866807518417,0.053691763699049495
0.222,0.0052,0.679,0.026398937701940794,1.660610489312895,0.07388319967220383,0.05534210218673677
0.223,0.0088,0.679,0.026548420769308304,1.660610489312895,0.0743950821061483,0.05534210218673677
0.224,-0.001,1.679,0.026563042618395205,1.660610489312895,0.07444515244408813,0.05534210218673677
0.225,0.0077,1.679,0.026810336260614638,1.6662453144617881,0.07529197258035855,0.05573149435774325
0.226,0.0051,1.679,0.026977822109580198,1.6662453144617884,0.07586550285057282,0.05573149435774327
0.227,-0.007,0.679,0.026894139123040832,1.6759686597504633,0.07557894296399918,0.05640342195644552
0.228,-0.0005,1.679,0.026882001653722277,1.6778318445886389,0.07553738001345153,0.05653217654420164
0.229,-0.0104,0.679,0.026893704605796216,1.673728905458009,0.07557745502460457,0.056248644698338186
0.23,-0.0123,0.679,0.026942507472607798,1.6451028691134986,0.07574457315167352,0.05427045475544545
0.231,0.0058,-0.321,0.02698120098349973,1.6325163707342463,0.07587707329956334,0.05340067019252438
0.232,0.0079,1.679,0.0269874925271454,1.6424394056449132,0.07589861775092716,0.05408639725676111
0.233,-0.0078,-1.321,0.02697729580027565,1.6526821990223242,0.07586370058298116,0.05479422109246333
0.234,-0.0137,0.679,0.026852957292079458,1.6485166669509943,0.07543792193574472,0.054506363788324824
0.23500000000000001,-0.008399999999999961,-1.3209999999998334,0.02679095534010876,1.6583439636321278,0.07522560551326965,0.055185474903341955
0.23600000000000002,-0.007000000000000125,1.679,0.02680078837537808,1.6583439636321278,0.07525927727365939,0.055185474903341955
0.23700000000000002,-0.011499999999999589,1.6789999999999445,0.026779309837750336,1.6458587279790955,0.07518572723008538,0.054322688057610494
0.23800000000000002,0.003299999999999614,0.6789999999999445,0.02637642861677816,1.6560803731144862,0.07380612067254305,0.055029050453133894
0.23900000000000002,-0.010600000000000467,-0.321,0.02628947968798272,1.6662393141337961,0.07350837705459033,0.055731079707655305
0.24,-0.0274,-0.3209999999999445,0.026240207848104533,1.6229127990945076,0.07333965299931147,0.05273701950037314
0.241,-0.0119,0.679,0.026256741225090308,1.612480915767602,0.07339626907899087,0.052016128684950404
0.242,0.0062,0.679,0.02568384826502775,1.6023723672151946,0.0714344827178273,0.051317581780204014
0.243,-0.0159,0.679,0.024989574867990298,1.604321025688056,0.06905704718243859,0.05145224298676279
0.244,0.0165,-0.321,0.02508321740236404,1.5941607362386254,0.06937771205278213,0.05075012054955722
0.245,0.0208,0.679,0.024824440031322663,1.5219571123934719,0.06849156760263686,0.04576052014480946
0.246,0.0166,1.679,0.024595660008527073,1.5133091890671664,0.0677081445904601,0.045162909118779807
0.247,0.0201,0.679,0.02452525448658551,1.4667509846477944,0.0674670513979718,0.04194552440532792
0.248,0.0166,-1.321,0.024553884696775954,1.4828556741859167,0.06756509127589719,0.04305843205675109
0.249,0.0193,-0.321,0.024471843782716576,1.4782116562641898,0.06728415442123327,0.04273750919349428
0.25,0.0003,1.679,0.02449853938231697,1.4803237655882144,0.06737556951419132,0.042883465600898785
0.251,-0.002,-0.321,0.024488600068330726,1.491259853769679,0.06734153381821174,0.0436391992761727
0.252,-0.0134,-1.321,0.024379827965573975,1.4937732260839542,0.06696906000104356,0.04381288479012258
0.253,-0.0037,-0.321,0.024363138770018195,1.4962823765804913,0.06691191034394786,0.0439862785571715
0.254,-0.0129,-0.321,0.024363917780919023,1.5008704808261804,0.06691457795040662,0.044303337529868085
0.255,-0.0377,-1.321,0.024308423922142573,1.4777875190517609,0.06672454752087562,0.04270819937365279
0.256,-0.056,-2.321,0.02422948226791309,1.4752469122031941,0.0664542236185219,0.04253263182891156
0.257,-0.0529,-3.321,0.02422994001880001,1.4862203579768913,0.06645579111805386,0.043290947084546644
0.258,-0.0323,-4.321,0.024249240111065672,1.5021163243787279,0.06652188140090852,0.04438943101331117
0.259,0.0082,-1.321,0.024276436356699328,1.499616935242117,0.06661501088141938,0.04421671180084614
0.26,0.0611,0.679,0.024200747492948756,1.508343363665883,0.06635582567414851,0.04481974788790741
0.261,0.1249,2.679,0.02341776657657647,1.5021163243787279,0.06367462449020873,0.04438943101331117
0.262,0.082,2.679,0.023317670676123652,1.4958633631502607,0.06333186103175172,0.04395732281409748
0.263,0.0116,0.679,0.02362937215982633,1.4979505837861136,0.0643992361997335,0.04410155929939888
0.264,0.002,-1.321,0.023848906407756727,1.4916801603277117,0.06515099843704765,0.04366824438028791
0.265,0.0102,0.679,0.023746677032361666,1.4828556741859127,0.06480092921235618,0.04305843205675081
0.266,0.0025,1.679,0.023844280302678007,1.4582055582000286,0.06513515703126785,0.04135499638205369
0.267,-0.0044,-0.321,0.02407986821148929,1.4582055582000288,0.06594189263212172,0.041354996382053706
0.268,-0.0106,-1.321,0.024119635636316385,1.4582055582000288,0.06607807023785783,0.041354996382053706
0.269,0.0067,1.679,0.023902311649563742,1.4418255617325415,0.06533387670977106,0.04022306376355775
0.27,-0.0198,0.679,0.023771758554056506,1.4191074481749284,0.06488681713664275,0.03865313828661397
0.271,-0.0438,2.679,0.023687489747949174,1.4169040896319014,0.06459825119847021,0.038500876141134
0.272,-0.0307,-0.321,0.023665262459644353,1.4076109011249014,0.0645221371700533,0.037858674342019775
0.273,-0.0108,-0.321,0.023688040512896816,1.4053895185021508,0.06460013721075838,0.037705166650254245
0.274,0.0364,1.679,0.02380779299246099,1.4080561772229852,0.06501021168802001,0.03788944495547247
0.275,0.0303,1.679,0.02381315740510252,1.396468652607679,0.06502858131775792,0.03708869404531664
0.276,0.001,1.679,0.02380211298974849,1.3847841699037458,0.0649907613672279,0.03628124288810264
0.277,0.0061,0.679,0.02381571245336525,1.3779988920409754,0.06503733069885241,0.03581234917657631
0.278,-0.008,-0.321,0.023806231910946118,1.3757296959127563,0.06500486599757165,0.03565553735305765
0.279,-0.021,0.679,0.023808824633887733,1.3924370529636718,0.06501374438997602,0.03681009208402644
0.28,-0.0169,0.679,0.023803532510560537,1.392437052963672,0.06499562230419623,0.03681009208402646
0.281,-0.006,1.679,0.023833038255136812,1.3924370529636718,0.0650966603188358,0.03681009208402644
0.28200000000000003,-0.002599999999999506,-2.321,0.023985637318065956,1.394679065848522,0.06561921301410378,0.036965025421190914
0.28300000000000003,0.006299999999999861,-0.321,0.0239839754514888,1.394679065848522,0.06561352220026521,0.036965025421190914
0.28400000000000003,0.0037999999999993395,1.679,0.02410314268795299,1.3919867805464265,0.06602159259995641,0.03677897620208467
0.28500000000000003,-0.008099999999999366,-1.321,0.024094206928052447,1.389740424311697,0.0659909934250292,0.03662374271959284
0.28600000000000003,0.003299999999999678,0.679,0.024197675360966682,1.4129308008412373,0.06634530561710074,0.038226303726311806
0.28700000000000003,-0.002499999999999489,-2.321,0.02420387071114512,1.406281336438769,0.0663665206683057,0.03776679534560968
0.28800000000000003,0.006699999999999184,-2.321,0.024213046887688296,1.3946790658485242,0.0663979431141114,0.036965025421191074
0.289,-0.008,1.679,0.024272741598269646,1.3973661639728554,0.0666023587331117,0.0371507161826065
0.29,-0.0096,-1.321,0.0243409558310095,1.3973661639728552,0.0668359481830705,0.037150716182606486
0.291,0.0145,-0.321,0.024202406638512,1.4142611836985106,0.0663615071702814,0.03831823926208708
0.292,0.0244,0.679,0.024578857330798995,1.4142611836985106,0.06765060633061767,0.03831823926208708
0.293,0.0216,-0.321,0.024595761325851846,1.423510957445099,0.06770849153650367,0.03895744090283548
0.294,0.0242,0.679,0.024663303464575705,1.423510957445099,0.06793977950090424,0.03895744090283548
0.295,0.0124,0.679,0.024611338160289074,1.4509065086062964,0.06776183207911694,0.04085059869579262
0.296,0.006,0.679,0.024625414687748932,1.4599241237016611,0.06781003504460682,0.041473757112691266
0.297,-0.012,-2.320999999999889,0.024872843637653963,1.4509065086062964,0.06865731852183389,0.04085059869579262
0.298,0.0018,-0.3209999999999445,0.024798135863101697,1.4487515130160047,0.06840149290796439,0.04070167865138309
0.299,-0.0184,0.6790000000000556,0.02477499250620615,1.4487515130160047,0.06832224193950377,0.04070167865138309
0.3,0.006,1.6789999999998335,0.02470398714412602,1.4509065086062964,0.06807909468406698,0.04085059869579262
0.301,-0.0037,-1.321,0.024726944805887777,1.4744103721374053,0.06815770976728165,0.042474823087070575
0.302,0.005,-1.321,0.024773838095912923,1.508356620536573,0.0683182888339041,0.04482066399826086
0.303,0.0025,-1.3209999999998334,0.024738831636824648,1.508356620536573,0.0681984144441324,0.04482066399826086
0.304,0.0004,1.6789999999999445,0.02502722424685979,1.5104265771517864,0.06918597185619332,0.04496370746083316
0.305,0.0025,0.679,0.02503376725730046,1.5124937008848702,0.06920837741803171,0.045106555158303
0.306,-0.0112,1.679,0.024897729705425156,1.5338292591472533,0.06874253714335647,0.046580939745561524
0.307,-0.0167,-2.321,0.02426125080978176,1.5182653578067677,0.06656301024446543,0.04550540303019549
0.308,-0.012,0.679,0.024157279931287204,1.500459411968902,0.066206977502561,0.044274930793094684
0.309,-0.0319,1.679,0.024115454719785795,1.440962680976112,0.06606375331375741,0.04016343475960688
0.31,0.0034,-1.321,0.024128925802058304,1.4526268267232,0.06610988302264655,0.04096948054015553
0.311,-0.0012,-1.321,0.023498243970547405,1.4552069259098552,0.06395020730389339,0.041147777185953145
0.312,0.0385,0.679,0.019967385777170533,1.4300803112818912,0.05185931087149011,0.039411413277314705
0.313,0.0335,-1.321,0.018233893451460856,1.4138178618429467,0.0459232253566889,0.0382876036957241
0.314,0.0001,0.679,0.018265404864670612,1.423070517127002,0.04603113148395068,0.03892700446388115
0.315,-0.0217,0.679,0.018282458585073397,1.4457263564436773,0.04608952940193108,0.04049262650616001
0.316,-0.0337,1.679,0.018303810796535563,1.4547760817273079,0.046162646860422075,0.04111800388382316
0.317,-0.0228,0.679,0.01832687516306744,1.4457263564436766,0.046241627338182135,0.04049262650615996
0.318,-0.0065,-0.321,0.018322165319767908,1.4478858546052102,0.04622549918337424,0.040641857698820706
0.319,0.0021,-1.321,0.018353554082624273,1.454345109908823,0.04633298531282273,0.04108822176146655
0.32,-0.0113,-0.321,0.01858227879449309,1.4431293075174536,0.04711621892099329,0.040313158555891675
0.321,-0.0182,0.679,0.018605760248117373,1.4431293075174536,0.0471966276511955,0.040313158555891675
0.322,-0.0117,-0.321,0.018311252356972493,1.4155832534563115,0.0461881293724944,0.03840960032469489
0.323,-0.0255,-1.321,0.01806015133491574,1.4204320459691149,0.04532827143272957,0.03874467404809008
0.324,-0.0052,-0.321,0.019609951205346015,1.4318256519967456,0.05063532957498909,0.03953202429755846
0.325,0.0027,-0.321,0.01943420763519895,1.4226299404504164,0.05003352197215338,0.03889655860193206
0.326,0.0095,-1.321,0.019262676385513003,1.4226299404504164,0.04944613883148695,0.03889655860193206
0.327,-0.0018,-0.321,0.019444377808190146,1.4160260226126158,0.05006834821030897,0.038440197697012984
0.328,-0.0036,2.679,0.019525737226298544,1.4186726881899872,0.05034695138389279,0.03862309438464192
0.329,-0.0091,0.679,0.019676059226683796,1.4208733041570436,0.050861706618634046,0.038775167005587745
0.33,-0.0171,0.679,0.019575235610931028,1.4186726881899872,0.05051645120784076,0.03862309438464192
0.331,-0.0277,0.679,0.01980473950830731,1.4278938848759577,0.05130235302038444,0.03926032121989398
0.332,-0.0075,1.679,0.02001381916031597,1.4213144253529209,0.052018315055705346,0.03880565049630855
0.333,0.0251,0.679,0.020164780623596862,1.4093911614474721,0.05253526003560771,0.037981698466752145
0.334,0.0119,-0.321,0.020157073074588982,1.4116062468748871,0.052508866685408384,0.03813477099353949
0.335,0.0238,2.679,0.020209561411837104,1.4116062468748871,0.05268860515543999,0.03813477099353949
0.336,-0.0089,-1.321,0.020195699367407893,1.4067270333885513,0.052641136655048396,0.037797595041838196
0.337,-0.0133,-0.321,0.020192958200846333,1.4067270333885513,0.05263174993964251,0.037797595041838196
0.338,-0.0174,-1.321,0.02020788842215858,1.3897404243116966,0.052682876252202394,0.03662374271959281
0.339,-0.0211,-0.321,0.020204182308046024,1.3748180598595239,0.05267018521805505,0.03559253913526811
0.34,0.0086,-2.321,0.020191334649654058,1.365238421472951,0.0526261903311158,0.03493054234029436
0.341,0.0444,0.679,0.020256592825120684,1.3601928898931597,0.05284965720452765,0.034581873048200595
0.342,0.011,1.679,0.020404801957988182,1.3601928898931597,0.05335717724008122,0.034581873048200595
0.343,0.0241,0.679,0.02101589272774008,1.3629479803778297,0.05544976629441574,0.03477226239246547
0.34400000000000003,0.00420000000000101,2.679,0.021537218242832085,1.3629479803778297,0.05723496764358641,0.03477226239246547
0.34500000000000003,0.022400000000000905,1.679,0.021404978032607082,1.3629479803778297,0.05678213079813367,0.03477226239246547
0.34600000000000003,0.038699999999997514,0.679,0.021544389827672022,1.3725436049415534,0.057259525664556644,0.03543536390534302
0.34700000000000003,-0.005999999999998962,-0.321,0.02298977749912807,1.3725436049415534,0.06220903982885497,0.03543536390534302
0.34800000000000003,0.012699999999999023,-1.321,0.023716185953438457,1.3574322075948435,0.06469651706743791,0.034391097284056135
0.34900000000000003,-0.004899999999999139,0.679,0.02387160155752276,1.3693501008565014,0.06522871458714785,0.03521467817758078
0.35000000000000003,0.01060000000000026,-3.321,0.023864126581247636,1.3693501008565012,0.0652031176475294,0.03521467817758077
0.35100000000000003,0.015299999999999267,-3.321,0.023856439293284244,1.359731939929987,0.06517679367825026,0.03455001929903494
0.352,0.0021,-1.321,0.023858777550831545,1.3569703198543681,0.06518480069192464,0.034359178730192876
0.353,0.038,0.679,0.02387288986945576,1.3518939304603805,0.06523312621891027,0.034008377022106615
0.354,0.014,0.679,0.023978649279912525,1.3467984071365582,0.0655952835213427,0.0336562530720197
0.355,0.0271,2.679,0.024351304824669545,1.33982077111669,0.06687138676589377,0.033174066532690574
0.356,-0.0008,-0.321,0.024925224058259463,1.3374868030996687,0.06883668744744376,0.03301277867562438
0.357,-0.0479,-2.321,0.024957199120408526,1.3304603330110678,0.06894618127123685,0.03252721747895621
0.358,-0.029,-0.321,0.024911944728890037,1.3177152378134935,0.06879121436772657,0.03164647315104346
0.359,-0.0116,-2.321,0.024909679279126615,1.320558952665867,0.06878345667343182,0.0318429868441625
0.36,-0.0272,-1.320999999999889,0.02481551668129591,1.320558952665867,0.06846101092346864,0.0318429868441625
0.361,0.0163,0.6790000000000556,0.02489165213809791,1.327637826448095,0.06872172542193063,0.032332169375564414
0.362,0.0105,1.679,0.024893372472099877,1.3248093065478224,0.0687276164487314,0.03213670572308203
0.363,-0.0159,1.6790000000000556,0.024599438693931525,1.3248093065478224,0.0677210841341556,0.03213670572308203
0.364,0.0081,2.6789999999999443,0.02438311094412368,1.3318655898646727,0.06698030207066527,0.03262432715007963
0.365,-0.0136,1.6789999999999445,0.024405099882468265,1.3588095708985395,0.06705559990524881,0.03448627938339709
0.366,-0.0096,0.679,0.024631953664803707,1.3615674604901413,0.06783242679471774,0.034676862158743896
0.367,0.0012,0.6790000000000556,0.024404355762389432,1.351893930460383,0.06705305177719788,0.03400837702210679
0.368,-0.0151,1.678999999999889,0.024298281103822667,1.349580841952668,0.06668981495470552,0.03384853203456069
0.369,-0.0299,-0.3209999999999445,0.024294972973661597,1.349580841952668,0.06667848675714794,0.03384853203456069
0.37,-0.0219,0.679,0.02430397826080013,1.3620277892597208,0.06670932401771543,0.03470867298059318
0.371,-0.0288,-0.321,0.024406949186647348,1.3987042031701598,0.06706193257115516,0.037243180806470204
0.372,0.005,-1.321,0.02434039344100118,1.3987042031701598,0.06683402236249861,0.037243180806470204
0.373,0.0771,1.679,0.024312652619938906,1.4102733594824,0.06673902806478285,0.03804266238293429
0.374,0.0253,0.679,0.024307471396674846,1.4331315185514442,0.06672128573970267,0.039622265644777326
0.375,0.016,1.679,0.0244644252888222,1.4353099664238103,0.06725875089709017,0.03977280634906372
0.376,-0.0266,-1.321,0.024498679141483733,1.4465863956969234,0.06737604809858025,0.04055205914925419
0.377,-0.0189,-1.321,0.024853792668952948,1.441825561732544,0.0685920813254115,0.04022306376355792
0.378,-0.0256,0.679,0.024959760599882863,1.441825561732544,0.06895495267505478,0.04022306376355792
0.379,-0.0066,-0.321,0.024975547285312195,1.4191074481749313,0.06900901182104228,0.03865313828661417
0.38,0.0344,1.679,0.02496183317887882,1.4217483775146935,0.068962049912218,0.038835638574007604
0.381,0.0294,-1.321,0.025528949061511888,1.4195491181060673,0.07090405353472244,0.038683659697449274
0.382,0.0247,-1.321,0.025824328706912657,1.4195491181060678,0.07191553700564741,0.03868365969744931
0.383,0.003,0.679,0.025930167821143373,1.4195491181060662,0.07227796724174732,0.0386836596974492
0.384,0.015,1.679,0.02583016965798703,1.4173464461682475,0.07193553847006177,0.038531444999527154
0.385,-0.003,-0.321,0.02580664514396609,1.4173464461682475,0.07185498228596371,0.038531444999527154
0.386,0.0004,0.679,0.025790475553340467,1.391536362430339,0.07179961193833109,0.036747850251687
0.387,-0.0082,-0.321,0.02583158882912583,1.3865865274896514,0.07194039820962629,0.03640579403472405
0.388,-0.0056,0.679,0.025799306193254407,1.391536362430339,0.07182985114556732,0.036747850251687
0.389,-0.0034,0.679,0.02574131896024256,1.3865865274896514,0.07163128252843538,0.03640579403472405
0.39,-0.0189,-0.321,0.02567723774251601,1.3865865274896514,0.07141184597098671,0.03640579403472405
0.391,-0.0286,-0.321,0.02575288344694899,1.3716298512957716,0.07167088338562178,0.03537221935223015
0.392,-0.056,-1.321,0.025394311323282404,1.3693501008565012,0.07044300671276871,0.03521467817758077
0.393,-0.0519,-0.321,0.025454862655821586,1.3624879625031039,0.07065035570569869,0.034740473054871476
0.394,-0.0046,0.679,0.025342185388818567,1.3652384214729527,0.07026450923693502,0.03493054234029448
0.395,0.0274,1.679,0.025346837055608355,1.3384238667051853,0.07028043817497588,0.03307753405349
0.396,0.0804,0.679,0.02524951076742887,1.3555910877606159,0.0699471588400154,0.03426386748891798
0.397,0.0594,0.679,0.024976099697952895,1.4058354981881271,0.06901090347560922,0.037735985884845974
0.398,0.0272,1.679,0.0249691147603379,1.4080561772229863,0.06898698460017884,0.03788944495547255
0.399,-0.0174,0.679,0.024943377349881543,1.4031646191611873,0.0688988506828072,0.03755141593718751
0.4,0.0001,0.679,0.024949830567846238,1.4177886646873394,0.06892094876372509,0.038562004320297265
0.401,-0.005,0.679,0.024959174635664712,1.3987042031701555,0.06895294612812292,0.03724318080646991
0.402,-0.0097,-0.321,0.024927557554405167,1.367066548660218,0.06884467815640966,0.03505687428414638
0.403,-0.0227,-0.321,0.02538157397392504,1.3620277892597163,0.07039938956264012,0.03470867298059287
0.404,-0.0425,-1.321,0.025459359686649165,1.359731939929985,0.07066575511598698,0.034550019299034805
0.405,-0.0533,-0.321,0.025866779202290482,1.3942295174991668,0.07206090238567889,0.03693395957564961
0.406,-0.0169,-1.321,0.02572382002560983,1.3707227825005897,0.07157136004083205,0.035309536752845934
0.40700000000000003,0.007100000000000239,-1.321,0.02592147932459165,1.3707227825005897,0.07224821478322116,0.035309536752845934
0.40800000000000003,0.011400000000000661,-1.321,0.025753003449228522,1.3532843185990366,0.07167129431550172,0.03410445919707159
0.40900000000000003,0.0232999999999998,1.679,0.02594299575391342,1.3555910877606157,0.072321894581241,0.034263867488917965
0.41000000000000003,0.01969999999999873,1.679,0.026073091325637867,1.340288568915612,0.0727673874325215,0.03320639349860363
0.41100000000000003,-0.003199999999999512,0.679,0.025932244851703406,1.3351487550890395,0.07228507972262672,0.03285120887235282
0.41200000000000003,0.005600000000000139,0.679,0.02589936631229096,1.3379554169388124,0.07217249207590949,0.03304516203364636
0.41300000000000003,0.008100000000000121,1.679,0.025891273400619877,1.3257553308269256,0.07214477910883672,0.032202080324446054
0.41400000000000003,0.010300000000001633,2.679,0.026030918524121763,1.325755330826925,0.07262297297363668,0.03220208032444601
0.41500000000000004,0.039699999999998015,-1.321,0.026116456134343803,1.301011989266898,0.07291588374196206,0.03049220233650055
0.41600000000000004,0.0038999999999997387,0.679,0.026084155989691684,1.288462143687704,0.07280527672169912,0.029624950649580237
0.417,-0.0008,-0.321,0.026068494747676273,1.2913702781218148,0.07275164713794344,0.02982591603021846
0.418,-0.0051,-0.321,0.026068332278528113,1.2913702781218144,0.07275109078661572,0.029825916030218433
0.419,0.0069,-2.321,0.026093868072463135,1.284091486019032,0.07283853429832816,0.029322918229166158
0.42,0.025,-3.321,0.025976146004383697,1.2865223257746117,0.0724354126618867,0.029490900366106108
0.421,0.0021,0.679,0.025889707680863207,1.2966836333379341,0.0721394175354222,0.030193093159634758
0.422,-0.0008,1.6790000000000556,0.025732004375552845,1.2966836333379341,0.0715993861246077,0.030193093159634758
0.423,-0.025,2.678999999999889,0.025733436270441043,1.291370278121816,0.07160428943475133,0.02982591603021854
0.424,-0.0282,0.6790000000000556,0.024635224616693163,1.3177228251672144,0.06784362768083799,0.03164699747186256
0.425,-0.0133,1.678999999999889,0.024691485521569054,1.3332843632236955,0.06803628474515275,0.032722370873502805
0.426,-0.043,-0.321,0.024640733305762986,1.358824286641604,0.06786249136365212,0.03448729630849919
0.427,-0.0231,-0.3210000000000555,0.02471943084096167,1.3560608181298375,0.06813197931685215,0.03429632800427129
0.428,0.0095,-1.321,0.02509461923142951,1.3629553159281542,0.0694167559131754,0.03477276931251905
0.429,-0.0037,-1.3209999999999444,0.02509176127450072,1.4129378768957486,0.06940696926660343,0.038226792714018694
0.43,0.0561,-0.3209999999999445,0.025088957431035477,1.4243914295117637,0.06939736792350375,0.03901828554672234
0.431,0.0477,0.6790000000000556,0.024867333644297093,1.4243914295117637,0.06863845037268361,0.03901828554672234
0.432,0.0245,1.678999999999889,0.02469917641643493,1.419556161170285,0.06806262106573063,0.0386841464053761
0.433,-0.0108,-0.321,0.024576298747396468,1.416911145843809,0.06764184484396504,0.0385013637576263
0.434,-0.0047,-0.321,0.024627348011495055,1.4147043666315822,0.06781665542296939,0.0383488652282709
0.435,-0.0221,0.679,0.024620766635167247,1.4031717444655751,0.06779411848288171,0.03755190832828596
0.436,-0.0171,-0.321,0.02467186695508663,1.4080632777743392,0.06796910389491748,0.03788993563602316
0.437,-0.003,-1.321,0.02485283990780548,1.422636968262376,0.06858881873718849,0.03889704425585815
0.438,0.0013,-0.321,0.02508965621373718,1.4226369682623763,0.06939976080047935,0.03889704425585817
0.439,-0.0107,-0.321,0.025106097833865314,1.4204390846554509,0.0694560626725067,0.03874516045348528
0.44,-0.0216,0.679,0.02537012437949604,1.4204390846554509,0.07036018213689481,0.03874516045348528
0.441,-0.012,-0.321,0.02590077469473352,1.4318326346737302,0.07217731487119539,0.0395325068324515
0.442,-0.0208,-1.321,0.025758912492548008,1.4340130557169504,0.07169152895163762,0.039683183891862026
0.443,0.0033,-1.321,0.025651354978847716,1.4405345170166928,0.07132321431325413,0.04013384667314465
0.444,0.0064,0.679,0.025272748791672985,1.4405345170166928,0.07002673398266947,0.04013384667314465
0.445,0.0034,2.679,0.025279918943559673,1.4383639819136762,0.07005128709670537,0.03998385277738457
0.446,0.0113,3.679,0.025130706650031944,1.4270225800479353,0.06954033188732617,0.039200110074094935
0.447,-0.0007,0.679,0.02386267511450846,1.4270225800479353,0.0651981473165058,0.039200110074094935
0.448,0.0058,-0.321,0.023328600267380352,1.4270225800479353,0.06336928778431322,0.039200110074094935
0.449,0.0074,-2.321,0.023182462827248493,1.4270225800479353,0.0628688619510568,0.039200110074094935
0.45,0.0126,-2.321,0.0231180388400345,1.4361901664531114,0.0626482516307024,0.03983363219392545
0.451,-0.0089,-1.321,0.023125971580476298,1.4340130557169506,0.06267541611532736,0.03968318389186204
0.452,-0.0479,-0.321,0.023142999539121373,1.4340130557169506,0.06273372581601686,0.03968318389186204
0.453,-0.043,-0.321,0.023123027463839742,1.4340130557169504,0.06266533442770697,0.039683183891862026
0.454,-0.0479,-3.321,0.02307418916261638,1.4340130557169504,0.06249809496078819,0.039683183891862026
0.455,0.0002,-1.321,0.02269584601569265,1.4292103393890683,0.0612025153722493,0.03935129424342996
0.456,0.0319,-0.321,0.022170375966573185,1.4313947549388903,0.05940312168542525,0.039502247341503045
0.457,0.0376,-0.321,0.022112106124606328,1.4287716559921204,0.059203585316143885,0.039320979215756814
0.458,0.0426,0.679,0.022271459549639116,1.426143732400899,0.05974926731544771,0.03913937768502859
0.459,0.0284,0.679,0.022608421641226614,1.426143732400899,0.060903143661621195,0.03913937768502859
0.46,-0.0021,-0.321,0.022581049088067677,1.419556161170285,0.060809410442327384,0.0386841464053761
0.461,0.0098,-1.321,0.022711722864243777,1.4248314615128048,0.061256883268378554,0.039048693769101944
0.462,-0.0084,-0.321,0.022710143555452138,1.4577893169854534,0.06125147516134375,0.0413262322117515
0.463,-0.0313,1.679,0.022704423694563262,1.4718707286874972,0.06123188835218079,0.04229932211757974
0.464,-0.0227,-1.321,0.022805441546711564,1.462926755417753,0.061577808896494925,0.041681252687401624
0.465,-0.0039,-0.321,0.023017396389383323,1.462926755417753,0.0623036165927365,0.041681252687401624
0.466,0.003,-1.321,0.0227995801290834,1.462926755417753,0.061557737347424465,0.041681252687401624
0.467,0.0008,0.679,0.02285321651567421,1.4769591873058827,0.06174140714093084,0.042650957864232675
0.468,0.0189,-1.321,0.02286086367781602,1.4769591873058827,0.06176759370532809,0.042650957864232675
0.46900000000000003,0.016599999999999372,0.679,0.02301025608715096,1.479073085150698,0.062279165694382806,0.042797037866598005
0.47000000000000003,0.005299999999999894,1.679,0.023345978871904465,1.4650609004294168,0.06342879821943488,0.04182873186153317
0.47100000000000003,0.003399999999999489,-0.321,0.023248372596111618,1.4322703805381354,0.06309456010871789,0.039562757072341075
0.47200000000000003,-0.005800000000000821,-0.321,0.023493834390801997,1.4322703805381334,0.06393510735677227,0.039562757072340936
0.47300000000000003,-0.020600000000000545,-3.321,0.024080628217765306,1.437499023292554,0.06594449516008177,0.039924080183486824
0.47400000000000003,-0.030399999999998466,-2.321,0.02421191445204242,1.4265902322381478,0.06639406525740893,0.03917023286445054
0.47500000000000003,-0.002799999999998013,-3.321,0.024079554653332908,1.4243984486327346,0.0659408188990555,0.039018770600061384
0.47600000000000003,0.033000000000000786,0.679,0.024706293317440595,1.415154475743689,0.06808699183007924,0.03837996982508123
0.47700000000000004,0.04709999999999879,1.679,0.025124147243605375,1.4173605541524523,0.06951787017988335,0.03853241992571437
0.47800000000000004,0.025199999999998897,3.679,0.02502206651319569,1.4287786535944758,0.06916830996773925,0.03932146278206118
0.47900000000000004,0.0053000000000001995,1.679,0.025005774737433418,1.4261507428975186,0.06911252121535857,0.03913986214238555
0.48,0.0089,1.679,0.025545100734172165,1.432707992654816,0.07095936252495938,0.039592998069651615
0.481,0.0058,-0.321,0.02514353100348164,1.4348870835250218,0.06958424696997198,0.03974358320802747
0.482,-0.0028,0.679,0.02469705317980576,1.449191047349207,0.06805535035906987,0.0407320524826405
0.483,-0.0162,-0.321,0.024606712844057594,1.4543588589881438,0.06774599337462667,0.041089171885685956
0.484,-0.014,-0.321,0.02464376717957599,1.4565055581655861,0.06787288041131505,0.04123751861004994
0.485,-0.0162,-1.321,0.02467240833454857,1.4586490980414704,0.0679709577680119,0.0413856470122371
0.486,-0.03,-2.321,0.024573875532800413,1.456505558165586,0.06763354690756836,0.04123751861004993
0.487,-0.0354,-0.321,0.024576681795468076,1.461218563636972,0.06764315653486533,0.04156320882828659
0.488,-0.0107,-0.321,0.024726548078883304,1.4565055581655861,0.06815635123491917,0.04123751861004994
0.489,0.0366,0.679,0.024786334688207772,1.4586490980414706,0.06836108154743716,0.04138564701223711
0.49,0.0554,1.679,0.025246701682479996,1.4607894925235276,0.06993753954823802,0.0415335580533352
0.491,-0.0091,0.679,0.02552728780244383,1.4607894925235276,0.07089836480120804,0.0415335580533352
0.492,0.0507,1.679,0.025542496168370173,1.4654887209450624,0.07095044357844878,0.04185829621446098
0.493,0.0275,-0.321,0.02576212607114107,1.487498636038701,0.07170253337147497,0.043379281940817346
0.494,-0.0076,-0.321,0.02576362389630103,1.5091875937791155,0.07170766244998539,0.04487808804717309
0.495,-0.0014,-0.321,0.02590236114856507,1.507115935476381,0.07218274744535202,0.04473492699021574
0.496,0.0161,0.679,0.026115049259646063,1.4853967288125574,0.07291106610972306,0.04323403054500375
0.497,0.0318,0.679,0.026092761843645094,1.440541457479546,0.07283474618299277,0.04013432629084828
0.498,0.0079,1.679,0.02617185018879724,1.4431431634517051,0.073105572406498,0.04031411606427515
0.499,0.0015,1.679,0.026500888378624892,1.4453065212844454,0.07423231453479251,0.04046361397785639
0.5,0.006,-0.321,0.0264975071200404,1.430963728127724,0.07422073591987308,0.03947246141890082
0.501,0.0101,0.679,0.02652676354281645,1.4937866122598793,0.07432092016925225,0.04381380983605873
0.502,-0.0008,-0.321,0.02651611901617149,1.5000482304635065,0.0742844695778698,0.04424651627182154
0.503,-0.017,-0.321,0.02686570668890228,1.510841551658081,0.07548158034061907,0.04499238409580385
0.504,-0.0084,-0.321,0.027502924246066825,1.5129081084013491,0.07766363667554568,0.04513519261168607
0.505,-0.0219,0.679,0.027298192621293262,1.4790663254960539,0.07696256380996923,0.042796570743568
0.506,0.005,0.679,0.027298342596421585,1.4853899979353062,0.07696307737739241,0.043233565410623113
0.507,-0.0276,0.679,0.027115722270197058,1.4874919146725467,0.0763377213506411,0.04337881746369698
0.508,-0.0406,-1.321,0.0269603468114427,1.487491914672547,0.07580566130261653,0.04337881746369699
0.509,-0.0206,-1.321,0.026688016483218557,1.4853899979353062,0.07487310677518268,0.043233565410623113
0.51,-0.0314,-2.321,0.02657403402753161,1.4941995168705546,0.07448279088274412,0.043842343431781935
0.511,-0.0017,-3.321,0.026712514577746028,1.496289058459678,0.0749569968402888,0.04398674030556193
0.512,0.0024,-2.321,0.026893353467746618,1.4916868628221205,0.07557625260480784,0.04366870755328441
0.513,-0.023,0.679,0.02689048591615157,1.4937799191869092,0.07556643310273456,0.043813347314126706
0.514,-0.0329,2.679,0.026708394260391503,1.482862416566739,0.07494288742901432,0.04305889798608107
0.515,-0.0242,-1.321,0.02669530682483369,1.4891699692164087,0.0748980714609893,0.04349477870200267
0.516,-0.0162,-2.320999999999778,0.026693323590149816,1.4912665581531526,0.07489128017007628,0.04363966257971221
0.517,0.0059,-0.320999999999889,0.026832439927572956,1.4887489539764083,0.0753676632859413,0.043465684624724554
0.518,0.0266,0.679,0.026832552719341065,1.4912665581531523,0.075368049524502,0.0436396625797122
0.519,0.04,0.679,0.02677190266751351,1.4975387134280702,0.075160362482116,0.04407309717525946
0.52,0.0131,0.679,0.026720537494004704,1.4975387134280702,0.07498447011852791,0.04407309717525946
0.521,-0.034,0.678999999999667,0.026734785758621545,1.4912665581531523,0.07503326117225724,0.0436396625797122
0.522,-0.0529,-2.321,0.026816014358365982,1.4912665581531526,0.07531141637789573,0.04363966257971221
0.523,-0.0355,-2.320999999999778,0.02681044479868328,1.4958700469011335,0.07529234425276085,0.04395778469182998
0.524,0.0123,-0.320999999999889,0.026731927689594395,1.463769858350622,0.0750234741418212,0.041739514953352555
0.525,0.0568,0.679,0.026599506199688962,1.44745283125762,0.07457001653118296,0.04061193380642668
0.526,0.0626,0.6790000000001111,0.026650727160092157,1.4142541142650076,0.07474541505853388,0.03831775073192211
0.527,0.0043,1.678999999999889,0.02692165513133073,1.4396569731069278,0.0756731674239592,0.04007320437828231
0.528,-0.0032,0.6790000000001111,0.027525505990940436,1.4448588855717366,0.07774096448753255,0.0404326803042488
0.529,-0.0524,1.678999999999889,0.02742267149952527,1.398704203170152,0.07738882313342439,0.03724318080646966
0.53,-0.0335,0.679,0.027488540425100225,1.3919867805464243,0.07761438142934643,0.03677897620208452
0.531,0.0074,-2.321,0.02756955244991931,1.416468653365209,0.07789179500650573,0.03847078550500209
0.532,0.0125,-2.321,0.027968917880029497,1.4517703658693404,0.07925936226344116,0.040910295180813544
0.533,0.0172,0.679,0.02822669284339798,1.498793997174478,0.08014207411825346,0.04415984301924343
0.534,0.0127,0.679,0.028339303599552484,1.5008771422792069,0.080527692830552,0.0443037978667175
0.535,0.0007,-0.321,0.02839316357515923,1.5116645450350745,0.080712128271243,0.045049256699535724
0.536,-0.0175,-1.321,0.0284968197556512,1.5330116430464251,0.08106708337684816,0.046524438736188785
0.537,-0.0274,-0.321,0.02838167152789924,1.5281098451079034,0.0806727754721197,0.046185702095622214
0.538,0.0172,0.679,0.02835395007430793,1.5281098451079034,0.08057784749541509,0.046185702095622214
0.539,0.0491,0.679,0.02834152446026084,1.5281098451079034,0.08053529783628853,0.046185702095622214
0.54,0.0434,0.679,0.028103918700139473,1.5260638743072816,0.07972165240505633,0.04604431616246216
0.541,-0.0149,-1.321,0.02755747852922564,1.5199094373402318,0.07785044966873088,0.04561901644000442
0.542,0.0394,2.679,0.027549528247720965,1.5199094373402318,0.07782322511735644,0.04561901644000442
0.543,0.0043,2.679,0.027095107489422093,1.5248375968332166,0.0762671291133787,0.04595957478446637
0.544,-0.0276,-0.321,0.026954594395418113,1.5268852108020592,0.0757859630132545,0.046101074268060364
0.545,-0.0335,-1.321,0.02698543778490209,1.537490145485801,0.07589158159305887,0.046833923723148665
0.546,0.0035,-1.321,0.026994551827500976,1.5419556404825656,0.0759227912704541,0.04714250983637533
0.547,-0.0204,-1.321,0.02696267991709369,1.5419556404825656,0.0758136506743916,0.04714250983637533
0.548,-0.0421,0.679,0.02677552513404861,1.5504437904890167,0.07517276707762988,0.047729079795780366
0.549,-0.0062,0.679,0.02676844132300454,1.5504437904890165,0.07514850962491167,0.047729079795780345
0.55,0.0177,4.679,0.026810875631781986,1.5399280655167142,0.07529381957634815,0.04700239513947362
0.551,0.0046,1.679,0.02680427169085432,1.550443790489017,0.07527120536715903,0.04772907979578038
0.552,0.0644,1.679,0.027030423056607637,1.5588857231099078,0.07604562693597168,0.048312455922612796
0.553,0.0728,0.679,0.027214884066818205,1.560888672508661,0.07667728611006597,0.04845086888028014
0.554,0.0341,-0.321,0.02722599519963205,1.5859128912760942,0.07671533452457066,0.050180156766969256
0.555,-0.001,1.679,0.02730723877903737,1.6309858061048543,0.07699354102582014,0.05329490118139158
0.556,0.0052,0.679,0.027403243164744576,1.6290690437994182,0.07732229370323429,0.05316244414577908
0.557,-0.0241,-0.321,0.027411320993516303,1.6271500235736103,0.07734995502117134,0.053029831077549355
0.558,-0.019,-0.321,0.02731470772169685,1.6692403811211407,0.07701911730422314,0.05593846715245784
0.559,-0.0143,1.679,0.027014625171537694,1.6651162722811286,0.07599152943848794,0.055653472382922745
0.56,-0.0273,0.679,0.026937364363158158,1.6628619006746477,0.07572696134165725,0.05549768500160969
0.561,0.0326,-0.321,0.026813956922023777,1.6722300834409878,0.07530437099448824,0.0561450692467956
0.562,0.0073,0.679,0.026858455494815716,1.651543884737794,0.07545674970967604,0.05471555837288844
0.5630000000000001,-0.00020000000000232036,-0.321,0.02688126475771397,1.639006849883384,0.07553485662315094,0.05384919196560044
0.5640000000000001,-0.02109999999999789,1.679,0.02696710763456984,1.646994901089437,0.07582881273146218,0.05440120281226298
0.5650000000000001,-0.0020999999999967247,0.679,0.026996082828360392,1.646994901089437,0.0759280339541914,0.05440120281226298
0.5660000000000001,0.02739999999999708,0.679,0.026924654739601407,1.6447156911498426,0.07568343913439111,0.054243698988611505
0.5670000000000001,0.0011000000000005218,-1.321,0.027978491958482246,1.6401477694751516,0.07929214726489635,0.05392803472381264
0.5680000000000001,0.005799999999999533,1.679,0.028188513884032835,1.6500249107859601,0.08001133597520178,0.05461059033054856
0.5690000000000001,0.0015999999999986789,0.679,0.02837857412555166,1.6522967971022382,0.08066216888048022,0.05476758805835724
0.5700000000000001,-0.010300000000001211,-1.321,0.028174736023311973,1.6602209057725619,0.07996415574934379,0.055315180183560055
0.5710000000000001,-0.021199999999997457,-0.321,0.02827568990396876,1.6624788586518522,0.08030985723284151,0.05547121504719197
0.5720000000000001,0.0016999999999996668,-1.321,0.028264066439968708,1.6841417564932801,0.08027005441672332,0.05696822029542444
0.5730000000000001,-0.0013000000000014877,0.679,0.02802399478654945,1.6933922189540205,0.07944796490225545,0.05760746952946842
0.5740000000000001,-0.014700000000000232,-0.321,0.027802721924013722,1.681167290296799,0.07869024903894513,0.05676267108684594
0.5750000000000001,-0.01680000000000374,0.679,0.02782869957560533,1.6852521199256603,0.07877920562619645,0.05704495148337011
0.5760000000000001,-0.05050000000000265,2.679,0.027325111394297517,1.6974476301094186,0.07705474312691046,0.05788771697502307
0.577,-0.0743,-2.321,0.026887850145673953,1.6996561288873049,0.07555740730047374,0.05804033433422458
0.578,-0.0086,-1.321,0.02704832461725476,1.690069068400544,0.07610692815621575,0.05737782463820612
0.579,0.0197,-1.321,0.027088292000061832,1.6882193890944184,0.07624379048818393,0.057250003344439894
0.58,-0.023,-3.321,0.02704664400481001,1.6826581515460841,0.07610117314995393,0.05686569641295435
0.581,0.0474,-3.321,0.027841673502083712,1.7320781459607224,0.0788236328993353,0.060280843894509224
0.582,0.0381,3.679,0.0278441770155732,1.7475256660389236,0.07883220580729726,0.06134833813274634
0.583,0.0299,0.679,0.0280859580097572,1.7378419674166963,0.07966014870386723,0.06067915029989543
0.584,0.0223,1.679,0.028762179220681545,1.7453777396210495,0.08197576722460453,0.06119990660045958
0.585,0.0291,2.679,0.030041234632046443,1.7453777396210493,0.08635570141146223,0.06119990660045956
0.586,-0.0156,1.679,0.03005666231708673,1.7546626326632093,0.08640853121424609,0.06184153514504003
0.587,-0.0331,-0.321,0.030300491555346275,1.7525234534705905,0.08724348801667955,0.06169370808599644
0.588,-0.0066,-0.321,0.03098585477623729,1.7525234534705905,0.08959041198488524,0.06169370808599644
0.589,-0.0017,-0.321,0.03155369383502323,1.7546626326632093,0.09153489201609484,0.06184153514504003
0.59,-0.0059,-1.321,0.031177530104493947,1.7528811152541504,0.09024677551343059,0.06171842414988598
0.591,0.0061,0.679,0.031381558970908704,1.755019858495833,0.09094544188798759,0.06186622108272743
0.592,0.0096,-2.321,0.03149797314829669,1.7510977853805545,0.09134408484813304,0.0615951879051488
0.593,-0.0002,0.679,0.03173086237542075,1.751097785380558,0.09214157921668664,0.06159518790514905
0.594,-0.015,1.679,0.03208978253221291,1.7941128600131495,0.09337064767698795,0.06456772615693154
0.595,-0.0072,-1.321,0.032564307575131096,1.8031468201354153,0.09499558780040263,0.06519201408989182
0.596,-0.0095,0.679,0.032485109952093284,1.8010652279871378,0.09472438737110221,0.06504816655880613
0.597,-0.0031,1.679,0.032678299165134726,1.8062619428571791,0.09538593497194414,0.06540728330721926
0.598,-0.0051,1.679,0.03261840075938258,1.8303236614638052,0.0951808218292601,0.0670700580338178
0.599,0.0151,-0.321,0.03243188761923056,1.8286158578182354,0.094542135442735,0.06695204099661979
0.6,-0.0012,1.679,0.03246187190855987,1.8306661232907602,0.0946448121623948,0.06709372371123656
0.601,-0.0364,1.679,0.032493638751014846,1.7702671983247966,0.09475359296895002,0.06291988195084507
0.602,-0.0317,0.679,0.03262522801625588,1.7895815718248085,0.09520420075054538,0.06425459343346793
0.603,-0.0187,2.679,0.03198291920368045,1.7804787844046477,0.09300471017201212,0.0636255492196571
0.604,-0.0227,3.679,0.031203969740207737,1.7804787844046466,0.09033731409629567,0.06362554921965703
0.605,0.0316,-0.321,0.031023547890410088,1.7843362775735676,0.08971948642365282,0.0638921196277883
0.606,0.0083,-0.321,0.031172396684411352,1.7752065938828632,0.09022919688320435,0.0632612167587571
0.607,0.0151,3.679,0.03261412008697307,1.801766757925502,0.09516616330605417,0.06509664548379625
0.608,-0.0037,-0.321,0.03419180394015462,1.801766757925502,0.10056870598184749,0.06509664548379625
0.609,0.0022,0.679,0.03444303909942949,1.8149010853116692,0.1014290232544779,0.06600428753487467
0.61,0.0178,2.679,0.034649432648121994,1.8337454016890467,0.1021357871302513,0.06730651592199002
0.611,-0.0156,1.679,0.03588530569941242,1.8337454016890467,0.10636784977575213,0.06730651592199002
0.612,-0.0114,0.679,0.036025619256644915,1.8728633690730148,0.10684833259200979,0.07000974625168292
0.613,-0.0315,1.679,0.03619914816522251,1.9319969462230846,0.10744255641713403,0.07409614669489248
0.614,-0.0352,2.679,0.03620487557678114,1.9336134439089099,0.10746216908243762,0.07420785407297041
0.615,0.014,0.679,0.036460474468849306,1.9268140024961737,0.10833742930615042,0.07373798159540883
0.616,0.0777,1.679,0.03710816287884463,1.9336134439089099,0.11055534151242677,0.07420785407297041
0.617,0.0348,1.679,0.03708717059238684,1.9522700763381011,0.1104834565633465,0.0754971126414816
0.618,0.0422,-1.321,0.03712341464642376,1.9570653289338673,0.110607568912144,0.07582848651191246
0.619,0.0212,1.679,0.037118886459953336,1.9503476488731633,0.1105920628140109,0.07536426411745567
0.62,0.0272,-1.321,0.037122802198981314,1.94874503237728,0.11060547167736669,0.07525351599304485
0.621,0.0329,2.679,0.037108880772489965,1.94874503237728,0.11055779983197397,0.07525351599304485
0.622,0.0379,2.679,0.03705231760046058,1.9522700763381011,0.11036410769894571,0.0754971126414816
0.623,0.0045,0.679,0.037125977295355966,1.9522700763381011,0.1106163443205957,0.0754971126414816
0.624,-0.0173,-1.321,0.03713283090133533,1.9589811640786967,0.11063981347045859,0.07596087947648958
0.625,-0.0214,-2.321,0.0371042419871182,1.9589811640786967,0.11054191500442488,0.07596087947648958
0.626,-0.0395,-1.321,0.03707222645591215,2.0248739960094864,0.11043228260039152,0.08051437531732074
0.627,-0.0298,-0.321,0.036727476447859356,2.0053349966939624,0.10925173769766634,0.07916414116422361
0.628,-0.0151,-0.321,0.03612626876324704,1.9950224810050199,0.10719299179202565,0.07845149919813801
0.629,-0.0502,-1.321,0.03616953877071606,2.016833458472842,0.10734116346879212,0.07995873742533254
0.63,-0.0741,-4.321,0.03612163442562634,2.016833458472842,0.10717712219513566,0.07995873742533254
0.631,-0.0084,-3.321,0.036214770574611616,2.003463488428345,0.10749605302436187,0.07903481138959013
0.632,0.0388,-1.321,0.036106601315017244,1.981505349466757,0.10712564355354863,0.07751740363059438
0.633,0.0643,1.679,0.03601765791465317,1.9529121714673894,0.10682107016564962,0.0755414843495257
0.634,0.0876,0.679,0.03592920045122485,1.9529121714673894,0.10651816079619629,0.0755414843495257
0.635,0.0096,1.679,0.035860535843000446,1.94618015589912,0.10628302910266918,0.07507627130597762
0.636,-0.0422,0.679,0.035751757888457546,1.938136591668857,0.10591053524693349,0.07452042425562727
0.637,-0.0704,-0.321,0.03574362244155257,1.9420037196066267,0.1058826766243063,0.07478766047032041
0.638,-0.0621,-1.321,0.035590623453625334,1.9679004538380802,0.10535875444562444,0.07657724316328907
0.639,-0.0076,-0.321,0.03565416052693899,2.011874050535053,0.10557632766181717,0.07961601967051778
0.64,0.0562,-1.321,0.03590217119359249,2.036882653582791,0.10642560314115067,0.08134422843960636
0.641,0.0308,-0.32099999999966694,0.035917945153592715,2.0350401580721624,0.10647961871080718,0.08121690357894157
0.642,-0.0551,2.679000000000222,0.036085161414055635,2.068848640117547,0.10705222581546613,0.08355322420544266
0.643,0.048,4.678999999999667,0.036182614367632496,2.1127886660681123,0.10738593889715824,0.08658968082066397
0.644,0.0618,1.678999999999889,0.03642971433426304,2.1298763926495297,0.1082320958203064,0.08777052082461873
0.645,0.0245,0.6790000000001111,0.03748226940607173,2.1298763926495297,0.11183641342969425,0.08777052082461873
0.646,0.0356,1.678999999999445,0.03872955514158399,2.134272639265102,0.11610755710744972,0.08807432155821449
0.647,0.0047,-3.320999999999667,0.03873559560636563,2.134272639265102,0.11612824177675062,0.08807432155821449
0.648,-0.0236,-0.32100000000011103,0.03873441040784485,2.128114411507444,0.11612418324146494,0.08764875987480045
0.649,-0.0153,-1.321,0.038743885768936406,2.1237054168871503,0.11615663020006341,0.08734407819581536
0.65,-0.0229,-1.321000000000222,0.03876300266153565,2.1251760981071133,0.11622209314302737,0.08744570898966747
0.651,-0.0297,-3.320999999999667,0.03877884229436653,2.120760994835562,0.11627633359948204,0.08714060517496172
0.652,0.0022,-0.320999999999889,0.039020005677660674,2.1130853500784164,0.11710216157982037,0.08661018304173074
0.653,0.0196,0.678999999999778,0.039198234507635446,2.114859852618164,0.11771247958368004,0.08673280927735486
0.654,-0.0067,-1.320999999999889,0.03925416829850713,2.0961598091429656,0.11790401649495272,0.08544055080716016
0.655,-0.0305,-0.3210000000003331,0.039190621200936075,2.0646167184774327,0.117686408952188,0.08326077907867645
0.656,-0.0961,-3.320999999999667,0.03931699486807445,2.076088797165627,0.11811915669720341,0.08405355214763864
0.657,-0.1055,-0.321,0.03941537187881417,2.0839007160170855,0.11845603407461115,0.08459339144360922
0.658,-0.0457,-2.321,0.03938871513107972,2.0488160467003187,0.11836475202406421,0.08216888044401165
0.659,0.0403,-3.321,0.0394265190927595,2.0488160467003182,0.1184942060435607,0.08216888044401162
0.66,0.0972,0.679,0.039485771743999636,2.0472905125962875,0.11869710789638323,0.08206345906517261
0.661,0.0455,3.679,0.039645055178335484,2.039645727011684,0.11924255022300081,0.08153516944180203
0.662,0.0361,4.679,0.040106786008062334,2.056431603644349,0.12082367847458197,0.08269515023473302
0.663,-0.0065,0.679,0.040131320697344375,2.0664376810630944,0.12090769385295848,0.08338661591581269
0.664,0.0479,0.679,0.04009602401317306,2.058559493727961,0.12078682563074465,0.08284219716474886
0.665,0.069,1.679,0.04007259736754441,2.074588137310023,0.1207066045823361,0.08394984969305033
0.666,0.0244,2.679,0.04014059030999914,2.080904776705897,0.12093943625677053,0.08438635834466442
0.667,-0.0165,1.679,0.039712432706533976,2.0919879158272803,0.11947327450324731,0.08515225391196347
0.668,-0.0009,0.679,0.03983570546943074,2.118705014971945,0.11989540366491028,0.0869985275698036
0.669,-0.0057,-0.321,0.03961195619505005,2.1494545102692966,0.11912920769917114,0.08912345823132405
0.67,-0.0013,-1.321,0.03955596289730712,2.1494545102692966,0.1189374670155072,0.08912345823132405
0.671,-0.0053,-1.321,0.03948190731502516,2.169713619632121,0.11868387473664083,0.09052345527985671
0.672,-0.0235,-1.321,0.03935174908186577,2.191783734647985,0.11823816731063691,0.0920486010959746
0.673,-0.0073,1.679,0.03923420750219913,2.1751823921151,0.11783566372980316,0.09090137245272692
0.674,0.0014,-0.321,0.03927582134118749,2.1751823921151,0.1179781641050113,0.09090137245272692
0.675,-0.0066,-5.321,0.03923799804596499,2.1751823921151,0.11784864388068587,0.09090137245272692
0.676,0.0002,-0.321,0.039242530132740414,2.165678805759852,0.11786416333483078,0.09024463120070342
0.677,-0.0337,0.679,0.03927617429409142,2.1857875443916135,0.1179793727395056,0.09163423694447023
0.678,-0.0197,-3.321,0.03916394875311856,2.1932087656485004,0.11759507313905192,0.09214707725102461
0.679,-0.0067,-1.321,0.03918340175914542,2.1946328713403,0.11766168705223905,0.09224548946301338
0.68,-0.0347,-2.321,0.038900829418245034,2.192922921688601,0.1166940602823798,0.0921273241269838
0.681,-0.0384,-1.321,0.03852531951048047,2.1541018294679155,0.11540818269810323,0.08944460922790214
0.682,-0.0286,1.679,0.038700755191375884,2.1336944936463893,0.11600893598019012,0.08803436905362388
0.683,0.0161,0.679,0.038546948303446564,2.164231028209944,0.11548224726863779,0.0901445831551303
0.684,-0.0027,0.679,0.03801239819835005,2.164231028209944,0.11365176028652793,0.0901445831551303
0.685,-0.0085,-2.321,0.03710884601793388,2.165963629188351,0.11055768082018841,0.09026431380136024
0.686,-0.0136,-2.321,0.03724136072679846,2.1616318354930195,0.11101145764522692,0.08996496705912661
0.687,0.0005,-3.321,0.037052678370913916,2.16769484532922,0.11036534310347013,0.09038394874898713
0.6880000000000001,0.02220000000000221,-4.321,0.036386276232031174,2.1708643882603353,0.1080833485281351,0.09060297865150109
0.6890000000000001,0.04209999999999397,-3.321,0.0358772261754121,2.1751777957138976,0.10634018265275799,0.0909010548203966
0.6900000000000001,-0.012200000000002565,0.679,0.03597487771692816,2.1983294093963535,0.10667457576918218,0.09250093713722161
0.6910000000000001,-0.03529999999999922,3.679,0.035814083487618,2.2347048891222907,0.10612395995086242,0.09501464903556996
0.6920000000000001,-0.02829999999999216,4.679,0.03568972576734394,2.273523903649854,0.10569811551473529,0.09769722035656106
0.6930000000000001,0.04230000000000523,2.679,0.0358398738028253,2.2575237407317243,0.1062122750326506,0.09659153597230438
0.6940000000000001,0.08940000000000091,1.679,0.03628420841354051,2.223491834810168,0.10773383253092886,0.09423977573483076
0.6950000000000001,0.09769999999999043,1.679,0.037194915867360255,2.2338676526861305,0.11085241416216145,0.09495679217135364
0.6960000000000001,0.011599999999998733,0.679,0.037594959991599,2.23386765268613,0.11222230550575467,0.09495679217135361
0.6970000000000001,0.0001999999999988676,0.679,0.037514572609076535,2.2265819520551138,0.11194703092282911,0.09445331695942587
0.6980000000000001,-0.010000000000001055,-1.321,0.03798587042523695,2.206844962773208,0.11356091989030516,0.09308940079476498
0.6990000000000001,-0.019499999999999077,0.679,0.0379213803640577,2.2175813827721367,0.11334008330952708,0.09383133648606883
0.7000000000000001,-0.011200000000005041,-1.321,0.037931320602066575,2.215889142018951,0.11337412216968414,0.09371439491586268
0.7010000000000001,-0.05659999999999915,-0.321,0.03795193430656416,2.230506599568196,0.11344471072139545,0.09472452803965868
0.7020000000000001,-0.048999999999997684,-1.321,0.0380928254148162,2.2076924472097894,0.11392717127484313,0.09314796584264752
0.7030000000000001,-0.028099999999996468,-0.321,0.03812473910346066,2.209107215985023,0.11403645493423788,0.09324573283102845
0.704,0.0037,-1.321,0.03808647976257641,2.2150402799874893,0.11390544153668167,0.0936557346698778
0.705,0.0446,-2.321,0.03812015282580844,2.222645876363823,0.11402074991153058,0.09418131613984787
0.706,0.029,1.679,0.038132572285376504,2.222645876363823,0.11406327849556308,0.09418131613984787
0.707,-0.0045,-0.321,0.03699379397054075,2.1997502000152145,0.11016370227073104,0.09259912026251924
0.708,-0.0177,-0.321,0.03546097576115042,2.2011700735556365,0.10491479528992834,0.09269724001350534
0.709,-0.0218,-0.321,0.0351761591157883,2.190353211976741,0.10393948323470122,0.09194974544137825
0.71,-0.0398,-2.321,0.03503217711457007,2.1671163891140406,0.10344643838001823,0.09034397478076113
0.711,-0.0627,-3.321,0.033687292235228046,2.1671163891140406,0.09884108101388794,0.09034397478076113
0.712,-0.0181,-2.321,0.033631621018422805,2.1348646779636473,0.09865044324828165,0.088115234138118
0.713,0.0265,-0.321,0.03344610509198521,2.091388519971164,0.09801517167115464,0.0851108329188469
0.714,0.0323,3.679,0.03346230000685748,2.0898940621996194,0.09807062873788691,0.08500755905661293
0.715,0.0272,1.679,0.033204713391851416,2.1125014059681537,0.09718856185390565,0.0865698298348728
0.716,0.0512,2.679,0.032505210010361725,2.145965910427685,0.09479321701803191,0.08888238003808768
0.717,0.0468,3.679,0.032427994412990664,2.1307685673760814,0.09452880373954599,0.08783217417578923
0.718,0.0028,3.679,0.03238645613130796,2.1246001829680727,0.09438656209904407,0.08740591062141632
0.719,-0.003,1.679,0.03247119694848082,2.1231291028145267,0.09467674436860002,0.08730425225943035
0.72,0.0125,-3.321,0.03247418807753359,2.124600182968072,0.09468698704321686,0.08740591062141626
0.721,0.0077,-4.321,0.032686794504299295,2.1213615174500347,0.09541502599185245,0.08718210403223042
0.722,-0.0228,0.679,0.033691714264953355,2.1181178999214993,0.09885622359410542,0.08695795523648665
0.723,-0.0187,0.679,0.033615895854230436,2.122538501115519,0.09859659477257988,0.0872634389827625
0.724,-0.0006,-1.321,0.034308268803768305,2.122538501115519,0.10096752250940118,0.0872634389827625
0.725,0.0221,0.679,0.03479241967095666,2.130180083752926,0.10262542483009283,0.08779150726784317
0.726,0.0426,-3.321,0.03479172184487996,2.1009297802323474,0.10262303522893665,0.08577017760995412
0.727,0.002,1.679,0.034861459687439596,2.1009297802323474,0.10286184205312161,0.08577017760995412
0.728,0.0194,0.679,0.03502022205244797,2.1027145410081802,0.10340550005566626,0.08589351273657561
0.729,-0.0176,0.679,0.03519135385284409,2.0898940621996096,0.10399151534191066,0.08500755905661225
0.73,-0.0508,0.679,0.03526656474446453,2.0898940621996096,0.10424906380502291,0.08500755905661225
0.731,-0.0378,-1.321,0.03544001696744449,2.0784981817930666,0.10484302503177359,0.08422005163716628
0.732,-0.018,3.679,0.03532824611297028,2.1098337477078184,0.10446028243731204,0.08638548245690679
0.733,-0.0071,1.679,0.03526484929152786,2.1098337477078184,0.10424318949270107,0.08638548245690679
0.734,-0.03,-1.321,0.03522782715172932,2.116045177498997,0.10411641270544586,0.08681472064398993
0.735,-0.0329,-1.321,0.035231039034507534,2.1145681457372825,0.10412741131821861,0.08671265099867849
0.736,-0.0194,1.679,0.03547451657046368,2.104790890733959,0.10496116376865249,0.08603699799230684
0.737,-0.0074,-1.321,0.03545993708547243,2.104790890733959,0.10491123850022975,0.08603699799230684
0.738,0.013,1.679,0.03546233175833952,2.0820998282302545,0.10491943869973926,0.0844689418668214
0.739,-0.0276,-3.321,0.035402040927507504,2.0748806463784986,0.10471298175599088,0.08397006340655576
0.74,-0.0449,-4.321,0.03547849434828152,2.050335569477813,0.10497478507457658,0.082273886412713
0.741,-0.008,-4.321,0.03552441339084904,2.067939420767883,0.10513202797631657,0.08349039299291493
0.742,0.064,0.679,0.03536801565464224,2.035959158901783,0.10459646729186715,0.08128041073643925
0.743,0.0742,2.679,0.0352623149674255,2.022100626691586,0.10423451107839793,0.08032272282213869
0.744,0.1025,2.679,0.0351799264647906,2.0457638408958285,0.10395238395858104,0.08195795907322119
0.745,0.0599,0.679,0.034328262003469535,2.1295914375103155,0.10103598623513034,0.08775082912214952
0.746,-0.0259,-0.321,0.03303564387324819,2.162791526989495,0.09660960854359078,0.09004510704174863
0.747,-0.0599,-1.321,0.03301582517325488,2.164525280221428,0.09654174236604407,0.09016491731396346
0.748,-0.0081,-2.321,0.03322989490489289,2.170580207909305,0.09727479218362174,0.09058334049043645
0.749,-0.0176,0.679,0.03404375203708827,2.2006049600547013,0.10006172435626048,0.0926581880878147
0.75,-0.0261,2.679,0.03436365274453977,2.2170159428198195,0.10115717654114402,0.0937922620010957
0.751,0.0441,-0.321,0.03446661707413127,2.2316260196809528,0.10150976250669139,0.09480188508561072
0.752,0.0157,0.679,0.03415809826992454,2.238895306220671,0.10045328594920469,0.09530422600881135
0.753,-0.0098,1.679,0.033807630437493665,2.243077894984212,0.09925316121104355,0.095593262008337
0.754,-0.0174,-2.321,0.033761859701432466,2.2444703591753568,0.09909642616277996,0.09568948764801725
0.755,0.0319,-0.321,0.03405494981807912,2.2444703591753568,0.10010006948450353,0.09568948764801725
0.756,0.0258,-0.321,0.03401914658345292,2.2444703591753568,0.09997746665592705,0.09568948764801725
0.757,-0.0035,0.679,0.03397235865969169,2.240290370123236,0.09981724840033544,0.09540063130043239
0.758,-0.0085,-0.321,0.033997308222564235,2.2475316333628776,0.09990268445134749,0.09590103568552097
0.759,0.0248,-0.321,0.034189363689244266,2.2475316333628776,0.10056034970713743,0.09590103568552097
0.76,-0.0148,0.679,0.034220295833378246,2.2489213399353822,0.10066627221398226,0.09599707076114986
0.761,-0.0413,0.679,0.03399139471940384,2.245582818382915,0.09988243454315263,0.09576636366360619
0.762,-0.008,-2.321,0.03341937940909872,2.2229234006070486,0.0979236535624773,0.09420049433344237
0.763,-0.0123,-0.321,0.03353978780016614,2.2136247865698144,0.09833597411069965,0.0935579176053923
0.764,-0.0242,-3.321,0.03357185605755925,2.2209529927974967,0.09844578706768417,0.09406433014831583
0.765,-0.0132,-4.321,0.03342916273389285,2.18949444974549,0.09795715509677065,0.09189040104634039
0.766,-0.0099,-1.320999999999778,0.033487247846003265,2.1852093022675096,0.09815605888625417,0.09159427777091604
0.767,-0.0011,0.678999999999889,0.03357048037015334,2.1671163891140237,0.09844107623166717,0.09034397478075996
0.768,0.0234,-0.320999999999889,0.033434496412885165,2.1348646779636304,0.09797541948371792,0.08811523413811684
0.769,0.0071,0.678999999999889,0.03365354451260152,2.10063137942309,0.09872551697909543,0.08574955675023327
0.77,-0.0373,-0.321,0.03365276292494878,2.096164578812242,0.09872284054893468,0.08544088041310631
0.771,-0.0819,-0.32099999999977796,0.03409995899810677,2.0751875679000693,0.1002541966978939,0.08399127308644024
0.772,0.0062,1.679,0.034091752628074824,2.032584178568456,0.10022609520961313,0.08104718417050819
0.773,0.0689,1.679,0.03417688342990186,2.0310464526240786,0.10051761292336016,0.08094092027978005
0.774,0.0578,1.679000000000222,0.034232188003313443,2.0295075615692846,0.10070699517343522,0.08083457587459715
0.775,0.0061,3.6789999999995557,0.03424543920600248,2.0295075615692846,0.10075237193753706,0.08083457587459715
0.776,-0.0221,-0.32100000000011103,0.034693958593690566,2.0279675027516966,0.10228825957942365,0.08072815077166808
0.777,-0.0474,-1.321000000000111,0.03512037669959399,2.2302210530497435,0.10374846468339838,0.09470479547018126
0.778,-0.0399,-2.320999999999889,0.03522005373869011,2.2553011874173716,0.10408979381371022,0.09643794738039865
0.779,0.0239,-1.320999999999889,0.03551514772051164,2.2539154144990126,0.10510029907238143,0.09634218413824946
0.78,0.0492,-0.3209999999995559,0.03547182090219871,2.2748933369976836,0.1049519328553666,0.09779185445970884
0.781,0.026,3.678999999999778,0.035113154162994674,2.2765417180927208,0.10372373218573948,0.0979057651270822
0.782,0.0191,1.679,0.03490984117224183,2.2748933369976836,0.10302751722044692,0.09779185445970884
0.783,0.0003,1.678999999999778,0.03486880024559451,2.2458619600204073,0.1028869786979672,0.0957856536265366
0.784,-0.0055,-0.320999999999889,0.03487119493716864,2.2386152958842223,0.10289517896153619,0.0952848760148128
0.785,-0.0424,0.678999999999667,0.03476468504428077,2.2386152958842223,0.10253045174412789,0.0952848760148128
0.786,-0.009,-2.321,0.034619754718223164,2.2355418120036927,0.10203415949269623,0.0950724842317194
0.787,0.0041,0.679,0.0345873541971515,2.2282615853433487,0.1019232087483791,0.09456938729618318
0.788,0.0082,3.679,0.034581828545352786,2.228261585343349,0.10190428697923383,0.09456938729618321
0.789,0.0481,-0.321,0.03458034116249147,2.220957494464258,0.10189919365881524,0.0940646412340633
0.79,0.0217,2.679,0.03447364036908817,2.198044231349043,0.10153381273110917,0.09248123003078416
0.791,-0.0116,-1.321,0.03418149794776253,2.1578678003915357,0.10053341465044267,0.08970485503059289
0.792,-0.0072,-4.321,0.03418370727473361,2.116929012736706,0.10054098016061885,0.0868757976983669
0.793,-0.0349,-4.321,0.03359498256678447,2.1154525980783534,0.09852498034381449,0.08677377069771813
0.794,-0.0457,-6.321,0.032985248336062686,2.100034450602336,0.09643703655474449,0.08570830624053546
0.795,-0.0292,-4.321,0.03140335776278596,2.1053864709874417,0.09102008859439845,0.08607815530984274
0.796,-0.0023,-1.321,0.030860869874250234,2.145089378316718,0.08916241985867233,0.08882180766314657
0.797,0.0376,1.679,0.030752884860900956,2.1561333308650705,0.08879264131160214,0.08958499525915216
0.798,0.0746,3.679,0.030432515528510062,2.1529421011065883,0.08769558439061834,0.08936446669775039
0.799,0.0506,2.679,0.03052166402833032,2.143339903390758,0.08800086011096665,0.08870091095002054
0.8,0.0288,2.679,0.030471311199094242,2.143339903390758,0.08782843436911332,0.08870091095002054
0.801,0.0328,1.679,0.030364214381575605,2.143339903390758,0.08746169731598363,0.08870091095002054
0.802,-0.0037,1.679,0.030439336066630122,2.144797121342029,0.08771894030453682,0.08880161137047396
0.803,-0.0219,0.679,0.03046266381057306,2.1509075856407693,0.08779882267889691,0.0892238723805803
0.804,-0.0448,-1.321,0.030449790196792476,2.144797121342029,0.08775473891160662,0.08880161137047396
0.805,-0.0419,-2.321,0.03054163722285422,2.1412962645829405,0.08806925533195449,0.08855968616822134
0.806,-0.023,-1.321,0.030383831138195164,2.144504824538034,0.08752887196861388,0.08878141232541428
0.807,0.0137,1.679,0.030483843560969056,2.1477085910842173,0.08787134957022959,0.08900280723614393
0.808,0.0402,-0.321,0.030734729209436176,2.1572913436685144,0.08873046999530991,0.08966501923641343
0.809,0.0261,0.679,0.03073857430075891,2.1682731472227394,0.08874363693615264,0.09042391205288113
0.81,-0.0043,1.679,0.030654728094412716,2.171441846036235,0.08845651812773282,0.09064288362300962
0.811,-0.0083,-0.321,0.03062982104952263,2.1700025208435365,0.08837122767320023,0.09054341967395003
0.812,-0.0337,0.679,0.03044835827214648,2.1760422079356028,0.08774983549956186,0.09096078965559738
0.8130000000000001,-0.03039999999999769,1.679,0.031088042032939227,2.1760422079356028,0.08994033698040392,0.09096078965559738
0.8140000000000001,-0.009600000000002674,0.679,0.03180466113354017,2.215889142018944,0.09239429203957363,0.09371439491586218
0.8150000000000001,-0.033700000000002533,-1.321,0.03171513512463867,2.203727170038842,0.09208772359577012,0.09287394706736378
0.8160000000000001,-0.05649999999999771,-0.321,0.0325925908889906,2.16509981091338,0.0950924397836632,0.09020462001059337
0.8170000000000001,-0.03590000000000029,0.679,0.033687598021248065,2.2147572536774454,0.09884212813243422,0.0936361762583197
0.8180000000000001,-0.03849999999999593,-0.321,0.034223899566136265,2.2883167271963494,0.10067861265847504,0.098719472072254
0.8190000000000001,-0.0018999999999935273,-1.321,0.034212032732600754,2.289681679670028,0.10063797645973799,0.09881379652651871
0.8200000000000001,0.05639999999999396,-1.321,0.03423680100775532,2.28831672719635,0.10072279171804116,0.09871947207225402
0.8210000000000001,0.001999999999996092,-0.321,0.034045180024148934,2.289681679670029,0.10006661428463247,0.09881379652651878
0.8220000000000001,-0.03319999999999931,-0.321,0.03305763214032034,2.2910458189365217,0.09668490407950217,0.09890806478445029
0.8230000000000001,-0.026999999999998067,-0.321,0.0330533954035549,2.2853100871034036,0.0966703960073461,0.09851169950038328
0.8240000000000001,-0.009599999999992294,-1.321,0.032440631346828765,2.288590656543185,0.09457207703172923,0.09873840184207794
0.8250000000000001,0.05980000000000104,-0.321,0.03217190169762298,2.303563205550698,0.0936518524917129,0.09977307340853847
0.8260000000000001,0.06919999999999525,9.679,0.03218929030052192,2.2718733329495375,0.09371139716477556,0.09758315837745561
0.8270000000000001,0.026500000000002563,3.679,0.03211926764206358,2.2732481587405253,0.09347161503109219,0.09767816512307106
0.8280000000000001,0.049599999999994523,-0.321,0.03176966477244188,2.2715973876805475,0.09227445222886015,0.09756408929819729
0.8290000000000001,0.00030000000000068833,-3.321,0.031518867234006716,2.264156231792992,0.09141563352342211,0.09704987141755515
0.8300000000000001,0.0064999999999993665,-1.321,0.03148530449961376,2.264156231792993,0.09130070295320132,0.09704987141755522
0.8310000000000001,0.0008000000000005662,0.679,0.031169369086964674,2.264156231792993,0.09021882932802032,0.09704987141755522
0.8320000000000001,0.005899999999998434,-1.321,0.031094735617089034,2.2333063361789876,0.08996325815941607,0.09491800263528771
0.833,-0.0082,-0.321,0.031079705271082243,2.2274219270195,0.08991178898479665,0.09451136306845867
0.834,-0.0125,-1.321,0.031099353192301102,2.2307876277152583,0.08997907035594173,0.0947439483690224
0.835,-0.0086,-0.321,0.03124833109038142,2.2414093645444533,0.090489222913126,0.09547795892915349
0.836,-0.0123,-0.321,0.03146893107286473,2.2414093645444546,0.09124463459921378,0.09547795892915358
0.837,0.0039,-1.321,0.03163472975809832,2.2483682284530984,0.09181238742926182,0.09595884822980166
0.838,0.0126,-0.321,0.03163633776466317,2.279014247754317,0.091817893807534,0.09807662822706607
0.839,0.0046,-0.321,0.031625559030892744,2.25752374073175,0.0917809836438987,0.09659153597230616
0.84,-0.0023,-0.321,0.03126032699356384,2.2605673380188267,0.09053030109158808,0.09680186245519924
0.841,-0.0089,-0.321,0.031296404479214855,2.2461455181527588,0.09065384305183054,0.09580524878944677
0.842,-0.0107,-0.321,0.03161511357771751,2.2430823522482797,0.0917452147498751,0.09559357002565541
0.843,-0.0382,-1.321,0.03163604078449105,2.2037271700388583,0.09181687684329844,0.09287394706736492
0.844,-0.0183,-3.321,0.03163513498343576,2.163656266824117,0.09181377506289602,0.09010486451649927
0.845,-0.0148,-4.321,0.03157228014538337,2.076692608985987,0.09159853805944106,0.084095278304067
0.846,0.0015,-2.321,0.03178776695220543,2.0341207420447844,0.09233644043929928,0.08115336772938123
0.847,0.0402,-0.321,0.03186330227435505,2.0341207420447853,0.09259509986629424,0.08115336772938128
0.848,0.0246,0.679,0.03166442776896652,2.037805729753702,0.09191408383109673,0.08140801722181304
0.849,0.0007,0.679,0.031003485649339545,2.001913382546112,0.08965078627606805,0.07892769198857534
0.85,0.0051,2.679,0.030736929265447955,1.9856138069164964,0.08873800375847089,0.07780131681752904
0.851,0.049,0.679,0.03069080296010545,1.9912733837215086,0.08858005111631953,0.0781924194410975
0.852,0.0197,1.679,0.030526117967367768,1.986560705835051,0.08801611195985683,0.07786675186047656
0.853,0.004,0.679,0.03052519300793445,1.9818368215415718,0.0880129445744508,0.07754030986591307
0.854,-0.0294,1.679,0.030686388182862817,1.9818368215415718,0.08856493337114558,0.07754030986591307
0.855,-0.0078,-1.321,0.030358774009195698,1.979943102141549,0.08744306757346876,0.07740944520037915
0.856,-0.0358,-1.321,0.030108770757006756,1.9694976360655416,0.0865869687826279,0.07668761575491533
0.857,-0.0394,-2.321,0.03052195682690702,2.0025395600880147,0.08800186275595338,0.07897096371858188
0.858,-0.0098,-2.321,0.03062438345013569,2.0140539813936074,0.08835260742638552,0.07976666285592757
0.859,0.0101,-1.321,0.030395353515467113,2.0221055710489853,0.08756832862833235,0.0803230644998325
0.86,-0.0081,-0.321,0.030353527545351228,2.028585638004298,0.0874251018417668,0.08077086674272768
0.861,-0.0244,1.679,0.030583306435158112,2.0769944490698844,0.08821194532480983,0.08411613683338423
0.862,-0.0633,-2.321,0.03123165726486801,2.0784981817930595,0.09043212588844436,0.0842200516371658
0.863,-0.0683,-4.321,0.031054569736722777,2.1187050149719506,0.08982571610220864,0.086998527569804
0.864,0.0037,-2.321,0.03091356418796004,2.134869361159493,0.08934286366432756,0.08811555776835488
0.865,0.0762,0.679,0.03116758130379096,2.133405362083726,0.09021270733160668,0.08801438874120654
0.866,0.0857,4.679,0.03100111815028565,2.1485840546665598,0.08964267912922252,0.08906330577087351
0.867,0.0603,5.679,0.03071821272494029,2.166831717212309,0.08867391176143868,0.09032430265129646
0.868,0.0216,0.679,0.030856849429939184,2.165389327688509,0.0891486524477159,0.09022462694295265
0.869,0.0148,-0.321,0.030625506203934658,2.176330269046358,0.08835645212904956,0.09098069599489553
0.87,0.0088,0.679,0.03074959900397904,2.2130673711429445,0.08878138938542478,0.0935193976518026
0.871,-0.0085,0.679,0.030239818690369347,2.209958356953247,0.0870357228540714,0.09330455056195916
0.872,-0.0034,0.679,0.03025117787526179,2.211371676068373,0.08707462068586445,0.0934022173722012
0.873,-0.0273,-2.321,0.030272582106054702,2.2187073241456035,0.08714791627678277,0.09390914418094048
0.874,-0.0402,-3.321,0.030380565254192776,2.229386617372017,0.08751768843671584,0.09464713215117322
0.875,-0.0123,-0.321,0.031114572329875363,2.236943436805565,0.09003118601908167,0.09516934291146831
0.876,0.0059,0.679,0.03078855025830052,2.2441954994980704,0.08891477213718657,0.09567049358810721
0.877,0.0027,0.679,0.030162903295376988,2.0199442288632237,0.08677233757378618,0.08017370587666972
0.878,-0.0003,-1.321,0.030054715930505335,1.9956658503412192,0.08640186610415551,0.07849595895970327
0.879,-0.0191,-1.321,0.029641658249371854,2.015298597470854,0.08498741177898275,0.07985267151521735
0.88,-0.0212,-0.321,0.02969905553369316,1.9900187656697719,0.08518396020495236,0.07810571959965776
0.881,-0.0147,0.679,0.0296919671094918,1.9881328396809261,0.08515968695516614,0.07797539349445493
0.882,-0.0166,0.679,0.029727919101048654,1.9865607058350352,0.08528279917962985,0.07786675186047548
0.883,0.011,-2.321,0.029785461039497814,1.9865607058350352,0.0854798429520514,0.07786675186047548
0.884,0.0309,-2.321,0.029775189766115477,1.998480907456434,0.08544467051070904,0.07869049227220827
0.885,0.0563,0.679,0.029749696046352126,1.9950375153660251,0.08535737107571231,0.07845253814119602
0.886,0.0335,2.679,0.029764288853173063,2.0031655418905707,0.08540734196275075,0.07901422192210496
0.887,-0.0053,3.679,0.029740463188107556,2.011260721218819,0.08532575453188748,0.07957363581162602
0.888,-0.0002,-2.321,0.029830861454444902,2.0093947320567813,0.08563530989097946,0.07944468743227424
0.889,-0.0048,-1.321,0.030106068304306358,2.0093947320567813,0.08657771463705635,0.07944468743227424
0.89,-0.0265,-1.321,0.03031508201990773,2.0093947320567813,0.08729345088300029,0.07944468743227424
0.891,-0.0463,-0.321,0.03041504932049715,2.0093947320567813,0.08763577397043576,0.07944468743227424
0.892,-0.0136,-0.321,0.030518700534538572,2.021180271207307,0.08799071206917293,0.08025912205181282
0.893,0.0347,-0.32100000000011103,0.03070884319773706,2.024579200344529,0.08864182721518096,0.08049400358954786
0.894,0.041,-1.320999999999889,0.031064721359617516,2.032897485909642,0.08986047881833,0.08106883513971362
0.895,0.047,-0.32100000000011103,0.03120846594858405,2.0509567128459323,0.09035271069022247,0.08231681025830309
0.896,-0.0221,-1.321000000000111,0.031206224815569384,2.0196338624779724,0.09034503626500132,0.08015225814096062
0.897,-0.0125,-2.320999999999778,0.033450074152102355,2.007839246296275,0.098028763124615,0.07933719625708274
0.898,-0.0379,-0.32100000000011103,0.03483523987983714,2.0901939958930353,0.10277205623878516,0.08502828584563497
0.899,-0.0304,-1.321000000000222,0.035331581856435305,2.1679840155584738,0.10447170519250405,0.09040393173344259
0.9,-0.0235,-3.320999999999778,0.035331724621936185,2.27104539655568,0.10447219407163505,0.09752594418866702
0.901,0.0084,-1.321,0.03534222518429036,2.27104539655568,0.10450815167880954,0.09752594418866702
0.902,0.0027,-1.320999999999778,0.035060990666836184,2.269669236467463,0.10354510608549354,0.0974308452370148
0.903,0.0382,0.679,0.035013609192249065,2.2655357406620062,0.10338285530376518,0.0971452017852656
0.904,0.0013,0.679,0.035047985387427594,2.267190925289938,0.10350057144892878,0.09725958260785661
0.905,0.0154,0.6790000000003331,0.03493563989118218,2.2600126528887277,0.10311586107956355,0.09676353117759488
0.906,0.055,3.678999999999889,0.03494856886769616,2.258352207189358,0.10316013442826408,0.0966487867909225
0.907,0.0285,2.678999999999889,0.03477043612967131,2.256690539754385,0.10255014547693239,0.09653395797673613
0.908,-0.015,1.679,0.03462603499180103,2.24920006723877,0.10205566535139642,0.09601633209169999
0.909,-0.0208,1.6790000000003331,0.034613942700412306,2.2416845658381184,0.10201425710592063,0.09549697659631662
0.91,0.0376,4.678999999999556,0.034599260943576696,2.2386152958842174,0.10196398162284458,0.09528487601481245
0.911,-0.0639,0.6789999999994449,0.034610521077259614,2.238615295884218,0.10200254026856717,0.09528487601481249
0.912,0.0053,-4.320999999999889,0.034973498644713684,2.2419641928378304,0.1032455027255713,0.09551630009999468
0.913,-0.0069,-3.321,0.03476194618822027,2.2344243536573205,0.10252107294068773,0.09499526275279052
0.914,-0.0409,-0.321,0.03438447271342872,2.1980442313490385,0.10122847141445111,0.09248123003078386
0.915,-0.0099,2.679,0.034426210437111256,2.1903532119767153,0.10137139601428817,0.09194974544137648
0.916,-0.038,2.679,0.033840916543243664,2.2068404323187063,0.09936714450780018,0.09308908771965307
0.917,-0.0463,-0.321,0.03292237936420574,2.157000739966706,0.09622175115218715,0.08964493719245296
0.918,-0.0075,-2.321,0.03239443888075853,2.0886986834431904,0.09441389783204908,0.08492495292122426
0.919,0.0276,-4.321,0.03233102532388327,2.0872022997226134,0.09419674757944835,0.08482154596710986
0.92,0.0088,-0.321,0.03236995730961094,2.0872022997226134,0.09433006434878903,0.08482154596710986
0.921,-0.0086,0.679,0.03236365998702447,2.0857048424255566,0.09430850010830573,0.08471806482395408
0.922,-0.0351,1.679,0.032731275766315945,2.084206309237995,0.09556734542887621,0.0846145093318472
0.923,0.0371,-2.321,0.03283959112936961,2.0827066978375792,0.09593825520916038,0.08451087933030425
0.924,0.0678,-2.321,0.032728783348932776,2.07910129388092,0.09555881051787278,0.08426172943888045
0.925,0.0395,1.679,0.03288026969089959,2.066134298749059,0.09607755286642705,0.08336565081134438
0.926,0.0313,0.679,0.03313429869068206,2.077597997680823,0.09694743722852298,0.08415784480083865
0.927,-0.0074,-2.321,0.03313116688843606,2.087502620170216,0.09693671283957012,0.0848422994826138
0.928,-0.0005,2.679,0.03313133946435519,2.0973604693680254,0.09693730380002524,0.08552352191616946
0.929,0.0184,-0.321,0.033202703792394,2.094079675828409,0.09718168028076406,0.085296804088152
0.93,0.0009,0.679,0.03373693201992227,2.1095413458184256,0.09901106504122455,0.08636527614996585
0.931,-0.0147,-0.321,0.03399788852014952,2.128123807598436,0.0999046715937416,0.08764940918763157
0.932,-0.0195,-1.321,0.03396821215939719,2.1450893783167087,0.09980304932949431,0.08882180766314592
0.933,0.0022,-2.321,0.03394081923482716,2.143632359038558,0.09970924635134637,0.08872112097191313
0.934,-0.0018,-0.321,0.03392853895708048,2.1509075856407605,0.09966719437466975,0.08922387238057967
0.935,-0.0127,1.679,0.03379590595710356,2.1581582873405547,0.09921301247938775,0.08972492900640203
0.936,-0.0029,1.679,0.03332446127380669,2.156710097107807,0.0975986205873424,0.08962485244255855
0.937,-0.0236,0.679,0.03361239578850564,2.139836662567231,0.09858460932035625,0.08845882099801917
0.9380000000000001,-0.042599999999999257,-0.321,0.033955868891354365,2.10568419794305,0.09976078165195827,0.08609872960319667
0.9390000000000001,-0.035899999999998766,-0.321,0.03399621715422351,2.0976545692074797,0.09989894825080195,0.08554384555921991
0.9400000000000001,-0.02480000000000021,-0.321,0.034079948945520064,2.0943742363691755,0.10018567526197596,0.08531715956776868
0.9410000000000001,-0.02670000000000101,-2.321,0.03403165866358854,2.1024163935141433,0.1000203124052572,0.08587290938209424
0.9420000000000001,-0.03580000000000274,-1.321,0.03380022701763986,2.1024163935141433,0.09922780930570056,0.08587290938209424
0.9430000000000001,-0.06049999999999718,-2.321,0.034078757259823976,2.102416393514143,0.1001815945123275,0.08587290938209421
0.9440000000000001,-0.035099999999994524,-4.321,0.0339971094289408,2.1263603741998125,0.09990200371228046,0.08752754788024916
0.9450000000000001,0.014200000000011792,-2.321,0.03437498891695344,2.1468374275820863,0.10119599557014117,0.0889426058566099
0.9460000000000001,0.1203999999999983,-0.321,0.034580117374724884,2.150037718324336,0.10189842733103868,0.08916376057340203
0.9470000000000001,0.10519999999999542,5.679,0.03469853351494357,2.1500377183243358,0.1023039257138383,0.089163760573402
0.9480000000000001,0.06389999999999303,5.679,0.03490778619800789,2.150037718324338,0.1030204802681614,0.08916376057340215
0.9490000000000001,0.0011999999999987453,6.679,0.03472302043059784,2.150037718324338,0.10238777749856308,0.08916376057340215
0.9500000000000001,-0.010099999999996591,2.679,0.03541654605274798,2.1500377183243367,0.1047626523905552,0.08916376057340206
0.9510000000000001,0.020599999999996857,-0.321,0.035375809902644294,2.1263603741998165,0.10462315752982065,0.08752754788024944
0.9520000000000001,-0.007700000000000933,-1.321,0.03606073866795625,2.141588999310321,0.1069685937697962,0.08857991547578843
0.9530000000000001,-0.016099999999999177,-1.321,0.03757296134361072,2.1917791730616223,0.11214697442194672,0.09204828586950879
0.9540000000000001,-0.008699999999997678,-0.32099999999977796,0.03754079436379832,2.242518883859507,0.11203682340478482,0.09555463178473397
0.9550000000000001,0.012199999999999302,0.679,0.037545408972154075,2.242518883859507,0.11205262544175425,0.09555463178473397
0.9560000000000001,0.0059000000000019315,0.678999999999556,0.03751507428292785,2.2425188838595065,0.1119487488299913,0.09555463178473395
0.9570000000000001,0.02329999999999704,-1.321,0.037220112235219344,2.211367154887818,0.11093869535998141,0.0934019049379614
0.9580000000000001,-0.003399999999999489,-1.320999999999778,0.037114548277117985,2.1949139375421423,0.1105772073549428,0.09226491242213633
0.9590000000000001,0.0011999999999985345,-0.321,0.03708466951114348,2.1949139375421423,0.1104748919842481,0.09226491242213633
0.96,-0.012,-0.3210000000004441,0.03703370216942954,2.1906393912433164,0.11030036193621216,0.09196952173664284
0.961,-0.0559,-2.321,0.03686480631366963,2.1386691986997732,0.10972200330836193,0.0883781439090397
0.962,-0.0503,-1.321,0.03635310184221665,2.140422491230934,0.10796974778591102,0.08849930443613295
0.963,-0.0453,-1.321,0.03642210591266604,2.1231243937219504,0.10820604191711766,0.08730392683961104
0.964,0.0173,-1.3209999999991118,0.03642952146414312,2.099143501994813,0.10823143536539227,0.08564673761979368
0.965,0.0426,2.679,0.03622747228808006,2.1006313794231004,0.10753954814471224,0.08574955675023398
0.966,0.0349,-1.321000000000222,0.03635734029511256,2.1006313794231004,0.10798426173469951,0.08574955675023398
0.967,0.0139,-2.321,0.03617089220747347,2.0931814161623086,0.10734579811078719,0.08523473023984827
0.968,0.0076,-0.321,0.03587840561027559,2.1044977881830493,0.10634422145126028,0.08601674326645281
0.969,-0.0218,-0.321,0.03587925749663139,2.117229838779294,0.10634713860882825,0.08689658615279508
0.97,-0.0062,-0.321,0.03582747174567227,2.078799759709253,0.10616980604058875,0.08424089204949646
0.971,-0.0497,-0.321,0.03585993659674731,2.080302187475944,0.10628097707339262,0.08434471667482087
0.972,0.0268,-0.3209999999995559,0.03586931376621623,2.080302187475944,0.10631308778944756,0.08434471667482087
0.973,-0.004,1.679,0.035707763170256916,2.072476704505336,0.10575988190652623,0.083803940036224
0.974,-0.0511,-2.321,0.03551393653702177,2.062499925204156,0.10509615155545081,0.08311449898897125
0.975,-0.0428,-2.321,0.034878040432805194,2.0588591361399518,0.10291862033874168,0.08286290382489317
0.976,-0.0039,-2.321,0.03465559221394061,2.0588591361399518,0.10215687964326163,0.08286290382489317
0.977,0.0029,-2.321,0.034513812380904375,2.0606803347358484,0.101671375784551,0.08298875697141528
0.978,0.0217,-0.321,0.034507621641066716,2.0524746508098457,0.10165017652076933,0.08242170670914284
0.979,0.0627,2.679,0.03457301523987639,2.0365797777688943,0.10187410713118948,0.08132329833661253
0.98,0.047,2.679,0.03452514853461188,2.0381133289066993,0.1017101947494917,0.08142927372912612
0.981,0.0035,2.679,0.03453121134715462,2.0445426607721098,0.10173095594536209,0.0818735699454311
0.982,0.0093,-0.321,0.034500833662226234,2.0460702436541736,0.10162693210123995,0.08197913290419584
0.983,-0.0063,2.679,0.03459303081773913,2.0442360290502046,0.10194264748758983,0.081852380292028
0.984,0.0077,2.679,0.03461289750856598,2.0341207420447787,0.10201067800257696,0.08115336772938082
0.985,0.0034,-0.321,0.03465841068553247,2.0356561456854028,0.10216653107819573,0.08125947113830582
0.986,0.0552,0.679,0.034710583836738085,2.0291986578984327,0.10234519024070825,0.0808132292191382
0.987,0.0484,-0.321,0.034720426099856115,2.0211753245863897,0.10237889360048741,0.08025878021769955
0.988,0.0165,-1.321,0.034774024360997226,2.0196289120694795,0.10256243283908659,0.08015191604510859
0.989,-0.0244,-0.321,0.03451376294823142,2.0196289120694795,0.10167120650974688,0.08015191604510859
0.99,-0.0193,-2.321,0.03432735593866988,2.0211753245863897,0.10103288355157476,0.08025878021769955
0.991,-0.0239,-0.321,0.03424085430845041,2.02457426202818,0.10073667164077656,0.08049366232931822
0.992,-0.0456,-0.321,0.03425367456593566,2.020865147273996,0.10078057269740398,0.08023734554778904
0.993,-0.0256,-3.321,0.034084968859496544,2.020865147273996,0.10020286520749772,0.08023734554778904
0.994,-0.0654,-3.321,0.033754413126170404,2.0106322871715254,0.09907092647818809,0.07953020814678391
0.995,-0.0603,-1.321,0.03374925915889906,1.9701239669032122,0.09905327748718337,0.07673089807836006
0.996,-0.0362,-1.321,0.03434828702525018,1.9837186531150275,0.10110455893081678,0.07767035302829946
0.997,-0.0402,-2.321,0.03302595249929349,1.9956558306022105,0.09657642188121116,0.07849526654994388
0.998,0.012,-0.321,0.03133977820205092,1.9108632716567786,0.09080236988637812,0.07263571319371544
0.999,0.076,-1.321,0.03187515757544132,1.822129164389039,0.09263569657388164,0.0665037808340938
1.0,0.0161,-0.321,0.033417491946878694,1.691940362488405,0.09791719023005993,0.05750713961217776
1.0010000000000001,0.0704000000000078,2.679,0.03399613669538444,1.7114061296101946,0.09989867273152675,0.058852313085989844
1.002,0.1055,4.679,0.03393964673724784,1.7132307756742218,0.09970523130853741,0.05897840446831598
1.0030000000000001,0.0348999999999909,4.679,0.033972900177700625,1.7092128132468603,0.09981910274786336,0.05870074490102308
1.004,-0.0061,0.679,0.03394320397007562,1.7051853832405428,0.09971741252096539,0.058422431080754025
1.0050000000000001,0.00330000000000564,0.679,0.03396924228753109,1.7092128132468605,0.09980657684940505,0.0587007449010231
1.006,0.0287,0.679,0.03395716000095183,1.7114061296101948,0.09976520286390472,0.058852313085989864
1.0070000000000001,0.00549999999999849,0.679,0.034058653912802224,1.7234165746323502,0.10011275360355336,0.059682289729160384
1.008,-0.0013,1.679,0.034484175975869905,1.7331808732695944,0.10156989034269082,0.060357047391420594
1.0090000000000001,-0.007300000000001288,-1.321,0.03448720026063216,1.7310151472380186,0.10158024655408188,0.06020738582447629
1.01,-0.0131,0.679,0.03462564982477805,1.8601491047002416,0.1020543464044637,0.0691311324746721
1.0110000000000001,-0.01820000000000109,-1.321,0.036056112004911565,1.898723174324501,0.10695275045334532,0.07179677698335685
1.012,-0.0231,-3.321,0.03579514908411082,1.8878283670574398,0.10605912191453346,0.07104389600793715
1.0130000000000001,-0.01010000000000091,-0.321,0.03554243817032102,1.892786885578144,0.10519375114101953,0.07138655229996639
1.014,-0.0142,0.679,0.03530644299798376,1.9098788430726203,0.10438562092705927,0.07256768467935035
1.0150000000000001,-0.032299999999994916,2.679,0.035264038307513214,1.9439343987043862,0.1042404123990903,0.0749210792198873
1.016,-0.0094,-2.321,0.035162542520329944,1.9439343987043862,0.10389285523764437,0.0749210792198873
1.0170000000000001,0.005499999999997025,-2.321,0.03502417203886351,1.9420037196066535,0.10341902619408475,0.07478766047032227
1.018,-0.0079,-3.321,0.035137296580287955,1.9332943896923789,0.10380640428728932,0.07418580596841332
1.0190000000000001,-0.019899999999999512,-1.321,0.03522982479096865,1.9368475538787449,0.10412325332260726,0.07443134585295495
1.02,-0.0177,0.679,0.035189515019673774,1.9403942116786803,0.10398521853240966,0.07467643611645766
1.0210000000000001,-0.011899999999995494,0.679,0.035345572482766256,1.9403942116786803,0.10451961400241018,0.07467643611645766
1.022,0.0084,-0.321,0.03506970524638176,1.9525962706653486,0.10357494786133578,0.07551965416032214
1.0230000000000001,0.0004999999999973577,0.679,0.035118723218095727,1.9783543528565297,0.1037428025830099,0.07729965536361728
1.024,-0.0114,1.679,0.0351368684980284,1.9821430181665949,0.10380493838353975,0.07756146945213306
1.025,0.0042,1.679,0.03489997952491008,1.9717092065556798,0.10299374748232357,0.0768404453834723
1.026,-0.0017,-1.321,0.034637577498986716,1.9612198872044608,0.10209519094299739,0.0761155854762658
1.027,-0.0034,-1.321,0.03474811059259711,1.9490718166517567,0.10247369501028146,0.0752760982799352
1.028,0.0212,-1.321,0.0347511108687476,1.9570704375969534,0.10248396900776803,0.07582883954388017
1.029,0.0031,0.679,0.03469660134399831,1.9570704375969532,0.10229730928307008,0.07582883954388016
1.03,-0.0066,1.679,0.034125041577421966,1.9384600066073137,0.1003400882438434,0.07454277370599953
1.031,0.0021,0.679,0.03381005513168691,1.9180409136580419,0.09926146421409979,0.07313172106045966
1.032,0.0318,0.679,0.033829263829635116,1.8990480367716565,0.0993272415307671,0.07181922646319584
1.033,-0.012,0.679,0.03382839993947123,1.919669163349803,0.09932428326795152,0.07324424055585875
1.034,-0.0179,0.679,0.0338423271462229,1.9589862677456287,0.09937197490698221,0.0759612321632002
1.035,-0.0229,0.679,0.03388365211539592,1.9403942116786597,0.09951348609066003,0.07467643611645625
1.036,-0.0088,-0.321,0.03388234319696922,1.9663121435739064,0.09950900389503818,0.0764674836648741
1.037,-0.0305,-0.321,0.033448960646627605,2.0087657142425694,0.09802495009145572,0.07940121942647005
1.038,-0.0026,-0.321,0.0331250082016539,2.03381253904252,0.09691562333668881,0.08113206949332398
1.039,0.0011,0.679,0.03309173837173891,2.03381253904252,0.09680169577409785,0.08113206949332398
1.04,0.0043,-1.321,0.03306910236349159,2.045457392239365,0.09672418214529371,0.08193678207047678
1.041,-0.0283,1.679,0.033019395343336345,2.0338125390425152,0.0965539678801647,0.08113206949332365
1.042,0.0111,-1.321,0.03303852799969806,2.0338125390425152,0.09661948480377838,0.08113206949332365
1.043,0.0375,0.679,0.0327335673516804,2.0338125390425152,0.09557519262063248,0.08113206949332365
1.044,-0.0346,-1.321,0.032634087803644136,2.0087657142425575,0.09523453976895327,0.07940121942646922
1.045,-0.0655,-3.321,0.03197358724474079,1.9849772531986891,0.09297275427266091,0.07775732804634455
1.046,-0.0749,-2.321,0.03141520313249206,1.9849772531986916,0.09106065129345803,0.07775732804634472
1.047,-0.0151,0.679,0.031207654837062403,2.00689740525427,0.090349933159983,0.07927211073652113
1.048,0.0864,0.679,0.03116105568454052,2.006897405254265,0.09019036132330129,0.0792721107365208
1.049,0.1003,0.679,0.031407021759316055,2.006897405254265,0.09103263540317633,0.0792721107365208
1.05,0.0632,3.679,0.030807625368358765,2.006897405254267,0.08898009200208047,0.07927211073652092
1.051,0.0065,0.679,0.03081405305895552,2.01869752432513,0.08900210266834022,0.08008755289519037
1.052,0.0168,-0.321,0.0300831452166836,2.010944042848189,0.08649921794781588,0.07955175188887917
1.053,0.0074,-0.321,0.028179198613629833,1.9609053247713844,0.07997943722325139,0.0760938477744745
1.054,0.0158,-1.321,0.028041451423093677,1.9046409612357567,0.07950774254637331,0.07220572310538165
1.055,0.0082,-1.321,0.02815030301260299,1.9066094751461735,0.07988048855405165,0.07234175641342214
1.056,-0.027,-2.321,0.028264098772779175,1.906609475146175,0.08027016513560278,0.07234175641342225
1.057,-0.0589,-2.321,0.02815007985164827,1.9255277695263378,0.07987972437269872,0.07364909701863666
1.058,0.0056,0.679,0.028520595438743367,1.9500415867917467,0.0811484996519102,0.0753431138288138
1.059,0.0309,6.679,0.028824415977813198,1.9500415867917469,0.08218888770227735,0.07534311382881381
1.06,0.1012,3.679,0.028848627037987608,1.9481169602252257,0.08227179486111953,0.07521011333681778
1.061,0.0352,0.679,0.02901021053646855,1.9500415867917467,0.0828251134138111,0.0753431138288138
1.062,0.0268,1.679,0.029417412017839692,1.9909585479028495,0.08421951405771545,0.07817066284711298
1.063,0.0193,2.679,0.03115143097071144,1.9653656632335046,0.09015740292856393,0.07640207754758999
1.064,-0.0015,3.679,0.031253317140214905,1.9774136364750228,0.09050629689594882,0.0772346475622362
1.065,-0.0333,2.679,0.03154764207051396,1.9793097759616793,0.09151416865256466,0.07736567946681719
1.066,-0.0159,0.679,0.031427710536012655,2.0174649166013703,0.09110348102841863,0.08000237406800913
1.067,-0.0315,-1.321,0.03169412981863228,2.041484065873911,0.09201579406319059,0.08166220705906486
1.068,-0.0267,-1.321,0.03311897461240962,2.0332009102562947,0.0968949622116385,0.08108980314882788
1.069,-0.0138,-1.321,0.033267440197253716,2.1204700997577226,0.09740336042867631,0.0871205029955858
1.07,-0.0338,-0.321,0.03329453575004682,2.151194364816038,0.09749614510159654,0.0892436901322774
1.071,-0.0229,-2.321,0.03339720943123467,2.1679794038957514,0.0978477357851036,0.09040361304647149
1.072,-0.0327,-3.321,0.03342332951789957,2.1665377784535,0.09793718011998602,0.09030399013965479
1.073,0.0119,-2.321,0.03351960302861402,2.1679794038957514,0.09826685437578472,0.09040361304647149
1.074,0.0307,0.679,0.03352059698437473,2.1665377784535,0.09827025802880698,0.09030399013965479
1.075,0.0014,0.679,0.03355157501870906,2.199180175421406,0.09837633767978772,0.09255972895786556
1.076,0.0279,-0.321,0.03357659342053872,2.2025890317911614,0.098462009459525,0.09279529651273975
1.077,-0.0055,2.679,0.033588907154543476,2.1994652061846027,0.0985041760021596,0.09257942588629761
1.078,-0.0098,-0.321,0.033591334423681896,2.197759016297414,0.09851248782273093,0.0924615203671792
1.079,0.0022,0.678999999999778,0.033524398652806625,2.1946283156759203,0.0982832762744467,0.09224517464578369
1.08,-0.0087,-0.321,0.033523272849302815,2.1963369376001096,0.09827942112852402,0.09236324822977415
1.081,-0.012,0.6790000000004441,0.03353258696873156,2.1889263219594044,0.09831131593913502,0.09185114081976949
1.082,-0.0091,2.679,0.03353265283976224,2.1874985011918926,0.09831154150463954,0.09175247187906974
1.083,-0.0116,4.678999999999112,0.03347105687341918,2.1860697478504263,0.09810061531929891,0.09165373849324752
1.084,-0.0185,0.679,0.03344985961482732,2.1954850698005157,0.0980280284737649,0.09230438027147388
1.085,0.0017,-3.321000000000222,0.03343838085718917,2.1971930254797996,0.09798872118296635,0.09242240781489637
1.086,-0.0117,-4.321,0.033360359956541526,2.206560885284434,0.09772155026370853,0.09306976974195236
1.087,-0.0139,-3.320999999999556,0.033379299652992134,2.2172986808202735,0.09778640642493161,0.09381180048914345
1.088,-0.0074,-1.321,0.03328083708727681,2.2172986808202735,0.0974492360772904,0.09381180048914345
1.089,-0.0211,-2.320999999999556,0.03328210400866893,2.2187073241455875,0.09745357446034096,0.09390914418093937
1.09,0.0064,-0.321,0.03329557565205481,2.227984726039975,0.09749970609067903,0.09455025505297147
1.091,0.0263,-0.321,0.033362337822405524,2.2279847260399754,0.09772832316989992,0.0945502550529715
1.092,0.0082,-0.321,0.03332726180647612,2.2313495778267516,0.09760821059311638,0.09478278169004474
1.093,-0.0015,-0.32099999999977796,0.03331335187624715,2.228266072244869,0.09756057811495684,0.094569697361585
1.094,0.0014,0.679,0.033125077353620906,2.228266072244869,0.09691586013726969,0.094569697361585
1.095,0.0094,-1.321000000000444,0.032945824786445,2.2358266789864603,0.09630203649829383,0.09509216984217526
1.096,-0.0026,-3.321,0.03229059652295918,2.2161720237760254,0.09405830519006655,0.09373394333814992
1.097,-0.0364,-2.320999999999556,0.03145924193417079,2.2068449627731836,0.09121145559115071,0.0930894007947633
1.098,-0.0411,-0.321,0.031423594707678394,2.20542874277711,0.09108938698912347,0.0929915335203897
1.099,-0.0454,-1.321000000000222,0.03022228922533997,2.236663182112424,0.08697569581968549,0.09514997603130548
1.1,-0.0174,-2.321,0.02857422607725573,2.2352658544270128,0.08133214976198061,0.09505341430194347
1.101,0.0226,-2.320999999999112,0.027882225640934143,2.204011612768289,0.07896249764102126,0.09289360335997618
1.102,0.007,1.679,0.02787460883617472,2.205712966076405,0.0789364150309451,0.09301117464937575
1.103,0.0211,-1.321,0.02793874311310291,2.205712966076405,0.07915603328170363,0.09301117464937575
1.104,0.0254,-1.321,0.02801327919132448,2.2088279558326,0.0794112709471372,0.09322643467817468
1.105,0.0255,0.6790000000004441,0.027973645636978718,2.2088279558326,0.07927555176086643,0.09322643467817468
1.106,0.0135,2.679,0.02803461820909422,2.2234918348101536,0.07948434322579939,0.09423977573482975
1.107,0.0461,-3.321,0.027907674105494846,2.214195607939207,0.07904964210633689,0.09359736397088039
1.108,0.0417,1.679,0.02728041783466405,2.206560885284434,0.0769016967084116,0.09306976974195236
1.109,0.0138,0.679,0.027398583907444495,2.208260274507361,0.07730633877262483,0.09318720530408876
1.11,-0.0333,-1.321,0.027257860576733805,2.1039067084753835,0.07682445274830434,0.08597589695720201
1.111,-0.0521,-4.321,0.026045198283034487,2.088103131485074,0.07267187187487754,0.08488379755902752
1.112,-0.1051,-0.321,0.026155654459050857,2.105391219754104,0.07305011254935107,0.0860784834713227
1.113,-0.0272,-2.321,0.02613970882924612,2.1053912197541034,0.0729955091220936,0.08607848347132266
1.114,0.0452,-1.321,0.026244110194276457,2.1413009337123943,0.07335301600083236,0.08856000882640623
1.115,0.0168,4.679,0.026368851032844507,2.108654414067825,0.07378017236832583,0.08630398511239588
1.116,0.042,3.679,0.026245543340236994,2.0913933005218848,0.07335792359508632,0.08511116327675057
1.117,0.0962,-1.321,0.026255140585642822,2.0913933005218848,0.07339078792831157,0.08511116327675057
1.118,0.0323,6.679,0.026163485597251443,2.0895988701106543,0.07307692911227867,0.08498715993412931
1.119,0.0239,3.679,0.026173857224965843,2.0895988701106543,0.07311244520203994,0.08498715993412931
1.12,0.0315,2.679,0.026238246466518598,2.110432642248462,0.07333293654106784,0.086426868806833
1.121,-0.0178,-0.321,0.026087081932722,2.1731732987081522,0.07281529617651976,0.09076253491601297
1.122,0.0267,0.679,0.026197590182820748,2.1622163829547616,0.0731937151709094,0.09000536196032932
1.123,-0.0027,-0.321,0.026551667691538005,2.172307744880458,0.07440620070628835,0.09070272119062081
1.124,-0.0184,-4.321,0.026576249267123486,2.1946328713402896,0.07449037663980697,0.09224548946301267
1.125,-0.0137,-2.321,0.02652578738198089,2.1946328713402896,0.0743175774522929,0.09224548946301267
1.1260000000000001,-0.009299999999999111,-0.321,0.026584649822633828,2.1946328713402896,0.07451914308725047,0.09224548946301267
1.127,-0.0053,0.679,0.026442856000942976,2.1946328713402896,0.07403359132648175,0.09224548946301267
1.1280000000000001,-0.0016999999999992893,-0.321,0.026466128850627844,2.176618292034107,0.07411328572365536,0.09100059969971969
1.129,0.0015,-1.321,0.02652028744195851,2.176618292034107,0.07429874372928477,0.09100059969971969
1.1300000000000001,0.010199999999998224,-0.321,0.026554902013924086,2.198333957390841,0.07441727616014614,0.09250125142442671
1.131,0.0022,-0.321,0.026606924618711014,2.2091117417907533,0.07459541979893697,0.093246045584889
1.1320000000000001,-0.02459999999999436,-0.321,0.026616650513097924,2.2076969759158116,0.07462872467137995,0.0931482787969315
1.133,0.0008,-2.321,0.02682098674149305,2.2076969759158116,0.07532844356112399,0.0931482787969315
1.1340000000000001,-0.015599999999996714,-1.321,0.026942648751541738,2.172884819075324,0.0757450569402781,0.09074259965492679
1.135,-0.0008,-2.321,0.027091876200848235,2.172884819075324,0.07625606404835766,0.09074259965492679
1.1360000000000001,-0.01430000000000049,-2.321,0.027152765409796175,2.1494591616771506,0.07646457004857639,0.0891237796648654
1.137,-0.0165,-0.321,0.027170021189226533,2.119592458048891,0.07652365988751249,0.08705985394236099
1.1380000000000001,0.0037999999999970245,0.679,0.027205015070833956,2.0970615606647245,0.07664349120757989,0.08550286595864895
1.139,-0.0096,-2.321,0.027195147034146768,2.095271984663917,0.07660969959006328,0.08537919807797435
1.1400000000000001,-0.02160000000000049,-1.321,0.027116663769396615,2.0839055137451385,0.07634094537400585,0.08459372298854506
1.141,-0.0238,-2.321,0.027242688442196593,2.10271454100818,0.07677249804004332,0.08589351273657558
1.1420000000000001,-0.0057000000000015545,-0.321,0.027222282878485417,2.1213568044336837,0.07670262223536234,0.08718177834126035
1.143,-0.0127,0.679,0.0272097626655662,2.139836662567248,0.07665974863652968,0.08845882099802034
1.1440000000000001,0.0028999999999987118,-2.321,0.027307609797687,2.141296264582949,0.07699481152376185,0.08855968616822192
1.145,-0.0029,-1.321,0.02731965300265116,2.1633665181187145,0.0770360516801094,0.09008484155669808
1.1460000000000001,0.017299999999995826,0.679,0.027565632062753424,2.183496551684289,0.07787837022629603,0.09147591887771701
1.147,-0.0015,-0.321,0.02801500819554519,2.171153136346474,0.07941719166380687,0.09062293246393795
1.1480000000000001,-0.008400000000002487,3.679,0.027832373936218922,2.161631835493038,0.07879178792523003,0.0899649670591279
