time_sec,bts_raw,diy_raw,bts_rms,diy_rms,bts_norm_rms,diy_norm_rms
0.0,0.0014,-0.421,0.00386562720483007,0.8305307042538893,0.0,0.04782230711627469
0.001,0.0025,-0.421,0.003915745500275049,0.8425314445832753,0.0005594406117547275,0.05106218328424164
0.002,0.0037,0.579,0.003925425833705546,0.8424851634945635,0.0006674963947430485,0.05104968863872565
0.003,0.0013,0.579,0.003926335024192768,0.8424851634945635,0.0006776451453710771,0.05104968863872565
0.004,-0.0022,0.579,0.003960032341578435,0.8424388798633061,0.0010537881822671891,0.05103719330679096
0.005,-0.0018,0.579,0.004007581234377618,0.8424388798633062,0.001584548086203618,0.051037193306791
0.006,0.0053,-0.421,0.004064113632972202,0.8424388798633062,0.0022155855022393785,0.051037193306791
0.007,-0.0005,0.579,0.004096549855124546,0.8541354093462602,0.00257765168591159,0.054194940752334136
0.008,0.0015,1.579,0.004105803924753292,0.854089757048979,0.002680949340557684,0.05418261586354274
0.009000000000000001,-0.0029000000000000085,-0.421,0.0041087094529850396,0.854089757048979,0.0027133820176271574,0.05418261586354274
0.01,-0.0079,-0.421,0.004174022844739825,0.8541354093462602,0.003442436418114239,0.054194940752334136
0.011,-0.0082,-0.421,0.00418999563998439,0.8541810592036228,0.0036207311957740748,0.05420726498241333
0.012,-0.0031,-0.42100000000002774,0.0042157753732155285,0.8541810592036226,0.003908494967499607,0.0542072649824133
0.013000000000000001,-0.011599999999999992,-1.421,0.0043337933004430436,0.8423463049714787,0.005225858633202659,0.05101220058321295
0.014,-0.0077,0.579,0.004402453956340811,0.8423463049714787,0.005992276545022845,0.05101220058321295
0.015,-0.0084,-0.421,0.004597377243210993,0.8771050930702348,0.00816808882841569,0.06039613574868074
0.016,-0.0111,0.579,0.004616024305595543,0.8771050930702348,0.008376234853639027,0.06039613574868074
0.017,-0.0004,-0.421,0.004648026565088244,0.877060636379621,0.008733456971214536,0.06038413364143793
0.018000000000000002,-0.007699999999999969,2.579,0.004664737310840701,0.8883014077892633,0.008919989049842298,0.06341883870129882
0.019,0.0012,0.579,0.004693135796383235,0.8883453019426097,0.009236984390241782,0.06343068893865393
0.02,0.0021,0.579,0.004694298882010478,0.8769717162374093,0.009249967220744117,0.06036012760166901
0.021,-0.0054,-0.421,0.004699712358945107,0.8883891939272031,0.009310394631954736,0.0634425385905042
0.022,0.0034,-0.421,0.00469977617242436,0.8540441023113892,0.009311106943727398,0.05417029031593381
0.023,-0.0052,-0.421,0.004768305847573113,0.8655838260310939,0.010076062795640998,0.057285704435248136
0.024,0.0047,0.579,0.004853523155477491,0.8655838260310939,0.011027292729597037,0.057285704435248136
0.025,-0.0075,-0.421,0.004853525233348579,0.8655838260310936,0.011027315923631514,0.057285704435248073
0.026000000000000002,-0.0026999999999999954,-0.421,0.004854671906355265,0.8656288721442614,0.011040115549848791,0.05729786567068074
0.027,-0.0013,-0.421,0.004854675031999017,0.8301550309933121,0.011040150439544013,0.04772088546973626
0.028,-0.0003,-0.421,0.004855103373618672,0.8301080598815961,0.011044931761327046,0.04770820453662258
0.029,0.0007,0.579,0.004855106498984653,0.8300610861119007,0.011044966647921666,0.04769552288592615
0.03,-0.0092,-0.421,0.005002285270828659,0.853998445133096,0.012687835413243366,0.054157964109400825
0.031,-0.0027,-0.421,0.005044919873799591,0.8655387775735451,0.01316374003362621,0.05727354256689587
0.032,0.0009,-0.421,0.00510555019775827,0.8654937267712502,0.01384052014406648,0.057261380065525384
0.033,0.0019,0.579,0.005245706972000614,0.8654937267712502,0.015405006542247874,0.057261380065525384
0.034,0.0081,-1.421,0.005253415729131633,0.8655387775735452,0.015491054796023388,0.057273542566895895
0.035,0.0104,-0.421,0.005284845060644489,0.8655387775735454,0.015841881660594182,0.05727354256689593
0.036000000000000004,0.012199999999999983,0.579,0.005448537524352733,0.8539984451330962,0.01766908290962934,0.05415796410940089
0.037,0.0097,-0.421,0.005513750670029395,0.8539527855137113,0.01839701832299259,0.054145637243839
0.038,0.0058,-0.421,0.0055458161977394475,0.8422537199044399,0.01875494666590767,0.050987205112602345
0.039,0.0042,-0.421,0.005546093989186521,0.830248965244611,0.01875804748599166,0.04774624518370273
0.04,0.0016,0.579,0.005561637005539929,0.8422537199044399,0.018931544898464724,0.050987205112602345
0.041,-0.0031,0.5789999999999722,0.005562439640095584,0.8423000137100712,0.01894050422884187,0.050999703191343566
0.042,0.0009,-0.42100000000002774,0.0055658744577101295,0.8422537199044399,0.018978845047309185,0.050987205112602345
0.043000000000000003,0.004299999999999997,-1.4209999999999445,0.005575977465859691,0.8422537199044399,0.019091618895852355,0.050987205112602345
0.044,0.0039,0.579,0.005577599174934764,0.8423000137100712,0.01910972106610758,0.050999703191343566
0.045,-0.003,-0.421,0.005593729100673633,0.854181059203624,0.01928976979766945,0.05420726498241366
0.046,-0.0054,0.579,0.005594382631121857,0.8541810592036241,0.019297064767909534,0.05420726498241369
0.047,-0.0047,-1.421,0.005659264269003392,0.854181059203624,0.020021299757663782,0.05420726498241366
0.048,-0.0007,-0.421,0.00570672841871873,0.8541354093462614,0.020551113725146328,0.05419494075233447
0.049,-0.0028,0.579,0.00576741923601548,0.8657189573389196,0.021228569086605347,0.057322186243182825
0.05,-0.0063,1.579,0.005770058213619829,0.8541354093462614,0.02125802641815017,0.05419494075233447
0.051000000000000004,0.002699999999999975,-0.421,0.005768583712776396,0.8541354093462614,0.021241567445502374,0.05419494075233447
0.052000000000000005,-0.0008999999999999583,0.579,0.005788683201927439,0.8541354093462614,0.02146592604363071,0.05419494075233447
0.053,0.0051,-0.421,0.005796029243535697,0.8540897570489802,0.02154792552056446,0.05418261586354304
0.054,0.0061,0.579,0.005807927308342932,0.8540441023113895,0.02168073651494004,0.0541702903159339
0.055,0.0067,-0.421,0.005822603517377363,0.8883453019426089,0.02184455827478972,0.0634306889386537
0.056,-0.0052,-1.421,0.005820357033011035,0.8883453019426086,0.021819482110945,0.06343068893865363
0.057,0.0027,-0.421,0.00581126871122929,0.8883453019426086,0.021718034600564592,0.06343068893865363
0.058,-0.0016,1.579,0.005816668315871207,0.8883014077892621,0.021778307163653334,0.06341883870129851
0.059000000000000004,0.007299999999999974,0.579,0.005825447094957446,0.8769272527851245,0.021876299433718792,0.060348123668957435
0.06,0.0036,0.579,0.005882367170979088,0.8769272527851245,0.02251166426143189,0.060348123668957435
0.061,0.0046,-0.421,0.005868709866045603,0.8769717162374081,0.022359215919781933,0.06036012760166869
0.062,-0.0101,0.579,0.005815511701273572,0.8883891939272021,0.02176539656539135,0.06344253859050393
0.063,-0.0078,-0.421,0.0060145734615294644,0.9214550401839391,0.023987404156547095,0.07236942512587338
0.064,-0.0133,-2.421,0.005910073538381189,0.9105807902012342,0.02282093390021976,0.06943367096433965
0.065,-0.0042,-0.421,0.005876504496884094,0.9105807902012342,0.02244622273048791,0.06943367096433965
0.066,-0.0055,-0.421,0.00593632452559197,0.9215819791476735,0.023113957998784476,0.07240369522189258
0.067,-0.004,-1.421,0.0058391261027820355,0.9534565491307848,0.02202899003178567,0.08100896929815954
0.068,0.0051,0.579,0.0058396503131406255,0.9534974438788518,0.022034841479068423,0.0810200097769984
0.069,-0.0011,0.579,0.00585080801531147,0.9214127233098451,0.022159388247325672,0.0723580007113692
0.07,0.0022,1.579,0.005852402540821965,0.9322442765071742,0.022177186983677932,0.07528222789260079
0.07100000000000001,-0.0002999999999998848,-0.421,0.005969372910141508,0.932202449405313,0.023482857385839575,0.07527093570338783
0.07200000000000001,0.008000000000000014,-1.4209999999999723,0.0060849055463349485,0.932202449405313,0.024772479231431895,0.07527093570338783
0.073,0.009,-0.421,0.006089281300249535,0.9322442765071742,0.024821323160083692,0.07528222789260079
0.074,-0.0001,-0.42099999999997223,0.006068259026227993,0.9428687112622124,0.024586664065342573,0.07815053868145101
0.075,0.001,0.579,0.0060750513605329105,0.9428273554973602,0.024662482838208807,0.07813937374051612
0.076,-0.0,0.5789999999999722,0.006082830477466544,0.9428273554973603,0.02474931647645656,0.07813937374051615
0.077,-0.0007,-0.421,0.006138401805647287,0.9428273554973603,0.025369626037215418,0.07813937374051615
0.078,0.0,-0.421,0.0061372420169816,0.9533338543611185,0.02535668000872668,0.08097584502005124
0.079,-0.0121,2.579,0.0061386889823833645,0.9533747543721439,0.025372831619677606,0.08098688691974691
0.08,-0.0066,-1.421,0.006159748527540299,0.953374754372144,0.025607906749852492,0.08098688691974694
0.081,-0.0079,-0.421,0.006111606745817035,0.953374754372144,0.025070528780807386,0.08098688691974694
0.082,-0.0121,0.579,0.006237476175594675,0.9534156526286242,0.02647553408218134,0.08099792834576271
0.083,-0.0029,0.579,0.006264073510067669,0.9534156526286242,0.026772424248467066,0.08099792834576271
0.084,0.0057,0.579,0.006261477046508962,0.9534156526286242,0.02674344147583314,0.08099792834576271
0.085,0.0132,0.579,0.006209022341015786,0.9429100652132124,0.02615792091353204,0.07816170313269476
0.08600000000000001,0.008399999999999965,-0.421,0.006154204932828313,0.9429514173505993,0.025546026911572702,0.07817286709431187
0.08700000000000001,0.005899999999999925,0.579,0.0060496673468809666,0.9535383368730507,0.024379136247903797,0.08103104978234019
0.088,0.0005,0.579,0.006002142001085874,0.9535383368730507,0.02384863918511661,0.08103104978234019
0.089,0.0041,1.579,0.006051040849626336,0.9535383368730507,0.02439446783907812,0.08103104978234019
0.09,-0.001,0.579,0.006036816999961253,0.9535383368730506,0.024235695496812863,0.08103104978234014
0.091,0.0019,-0.421,0.0060934925611344495,0.9534974438788516,0.02486833095124654,0.08102000977699834
0.092,0.0033,0.579,0.006088706784930345,0.9534974438788518,0.0248149101885575,0.0810200097769984
0.093,-0.0014,0.579,0.00609331709008216,0.9535383368730507,0.02486637227264491,0.08103104978234019
0.094,-0.0043,1.579,0.006077837283253891,0.943034116185488,0.0246935804303653,0.0781951935489239
0.095,0.0008,0.579,0.006073629329179855,0.9534974438788526,0.024646609551158147,0.08102000977699862
0.096,-0.0086,-0.421,0.006123611974823009,0.9535383368730516,0.025204535985157157,0.08103104978234042
0.097,-0.0074,-0.421,0.006275911638124096,0.9640089959589301,0.02690456620467523,0.08385784528862898
0.098,-0.0084,-1.421,0.006375445360303148,0.9536201176007477,0.028015601724372913,0.08105312837277646
0.099,-0.0018,-0.421,0.006410700639273534,0.9536201176007477,0.028409135356346274,0.08105312837277646
0.1,-0.0007,-0.421,0.006432352368420209,0.9640898884937977,0.028650820682868623,0.0838796840909604
0.101,0.0054,-0.421,0.00642341488393558,0.9536201176007474,0.028551056879187024,0.08105312837277637
0.10200000000000001,0.004699999999999989,-0.421,0.006435766096267809,0.9536201176007472,0.02868892608885798,0.08105312837277631
0.10300000000000001,0.0039000000000000094,-0.4210000000000555,0.006439519465047934,0.9536201176007472,0.028730822703813677,0.08105312837277631
0.10400000000000001,0.004599999999999944,-2.4209999999999168,0.006420985493830132,0.9536610053346956,0.028523939047770057,0.08106416695799236
0.105,0.0006,0.5789999999999722,0.0064075553583083,0.9536610053346953,0.02837402646264372,0.08106416695799229
0.106,0.0042,-0.421,0.006393398494858315,0.9536610053346952,0.02821600184750726,0.08106416695799226
0.107,-0.0026,-0.42099999999997223,0.006374786313501874,0.9431581508416823,0.028008245178376964,0.07822867956025119
0.108,0.0035,0.579,0.006369530905657632,0.9536610053346956,0.027949582198056114,0.08106416695799236
0.109,-0.0087,-0.421,0.006367890210876112,0.9430341161854874,0.027931268101694152,0.07819519354892372
0.11,-0.0068,0.579,0.006371424979678018,0.9429927676746116,0.027970724615595764,0.07818403056636677
0.111,-0.0021,1.579,0.006373844756779276,0.9534565491307851,0.027997735142785855,0.08100896929815964
0.112,-0.0157,-2.421,0.0063672641073287415,0.9534974438788522,0.027924279281574618,0.0810200097769985
0.113,-0.003,-0.421,0.006302525871144686,0.9534974438788522,0.027201644999359446,0.0810200097769985
0.114,-0.0044,0.579,0.006257191305554954,0.9534974438788522,0.026695602308123123,0.0810200097769985
0.115,-0.0119,1.579,0.006128114684387229,0.921624288250295,0.025254797043934116,0.07241511753830882
0.116,-0.0028,-2.421,0.006114130071041527,0.9324951997190665,0.025098695153879576,0.07534997039113722
0.117,0.0008,0.579,0.00612187694644787,0.9325370136901918,0.025185168899206176,0.07536125903540572
0.11800000000000001,0.008399999999999908,0.579,0.006122596800753948,0.9218358046357604,0.025193204203076566,0.07247222125671243
0.11900000000000001,0.00180000000000014,1.579,0.006132838131094848,0.9218358046357604,0.0253075220596642,0.07247222125671243
0.12,0.0119,-0.421,0.0062932067018969615,0.9218358046357604,0.027097620676530747,0.07247222125671243
0.121,0.0129,-0.421,0.0063944348572403725,0.9218358046357604,0.028227570142076545,0.07247222125671243
0.122,0.0041,0.579,0.006416772328008646,0.9218781020891966,0.028476909992937498,0.07248364042816288
0.123,0.0009,-1.421,0.006373826824541246,0.9110089019953095,0.027997534975918163,0.06954924960038879
0.124,0.0055,-0.421,0.006331025321904348,0.9110517021101595,0.027519767354202158,0.06956080447686164
0.125,0.008,-0.421,0.006331075118847294,0.9110945002144061,0.02752032320774781,0.0695723588105258
0.126,0.0086,-0.421,0.006365083041602371,0.9110945002144061,0.027899933346953253,0.0695723588105258
0.127,0.0003,-1.421,0.006430583824292717,0.9110945002144063,0.02863107948058281,0.06957235881052586
0.128,0.0013,0.579,0.006432363993246268,0.9110945002144063,0.02865095044386198,0.06957235881052586
0.129,-0.0052,0.579,0.006432408258787517,0.9110945002144063,0.0286514445536727,0.06957235881052586
0.13,0.0049,-0.421,0.006385903302644135,0.8774162268339812,0.028132337491401545,0.06048013347203316
0.131,-0.0128,0.579,0.0064042796740375685,0.8998784644097563,0.02833746195469182,0.06654433169676789
0.132,-0.0059,-0.421,0.006421500278731868,0.9325370136901925,0.028529685284304884,0.0753612590354059
0.133,0.0007,0.579,0.0063224717898155,0.9324951997190671,0.027424289381897567,0.0753499703911374
0.134,-0.0011,-0.421,0.00631850597209305,0.9324533838728795,0.02738002132622933,0.07533868124065264
0.135,-0.0065,0.579,0.0063185059720930505,0.9324115661513771,0.02738002132622934,0.07532739158388352
0.136,0.0047,1.579,0.00618166546857126,0.9323697465543079,0.025852552478309355,0.07531610142076195
0.137,0.0061,-0.421,0.006184432740458511,0.9324115661513771,0.025883441882343348,0.07532739158388352
0.138,0.0096,-0.421,0.006156598866338395,0.943116807768785,0.025572748962182965,0.07821751804580175
0.139,0.0009,-0.421,0.006166604814639205,0.9430754628834662,0.025684439389578616,0.0782063560420474
0.14,0.0084,-0.421,0.006153331556569205,0.9323279250814197,0.025536277933792255,0.07530481075121984
0.14100000000000001,0.0018000000000000195,0.579,0.006160690427347498,0.9322861017324595,0.025618420615092168,0.0752935195751889
0.14200000000000002,0.002499999999999939,0.579,0.006160658211668556,0.9323279250814197,0.025618061010700695,0.07530481075121984
0.14300000000000002,0.00029999999999990006,-0.421,0.006153741672803977,0.9322861017324595,0.02554085581648428,0.0752935195751889
0.14400000000000002,-0.0033000000000001414,-1.421,0.006163659002934744,0.9428687112622134,0.025651557052152208,0.07815053868145129
0.145,-0.0084,0.579,0.0061565586523667105,0.9321606204266235,0.025572300077624528,0.07525964300748182
0.146,-0.0148,1.579,0.006252504573387481,0.9321187895708509,0.026643287114886345,0.07524834980481404
0.147,-0.0122,-0.421,0.006225242769034211,0.9636853579176087,0.026338979868011318,0.08377047174763526
0.148,-0.0068,-0.421,0.006220650146509636,0.9637258186164305,0.02628771516453537,0.08378139504488642
0.149,-0.006,1.579,0.0061876395035905364,0.9533338543611195,0.025919237064769347,0.0809758450200515
0.15,-0.0053,0.5789999999999444,0.006227465201697376,0.9533338543611195,0.026363787557052334,0.0809758450200515
0.151,-0.0049,-0.4209999999999445,0.00622758904632069,0.9533747543721449,0.026365169960647947,0.08098688691974718
0.152,0.0023,0.579,0.006206424004459797,0.9533747543721449,0.026128917233747627,0.08098688691974718
0.153,0.0016,0.579,0.006258495594749389,0.9533747543721449,0.0267101613097484,0.08098688691974718
0.154,-0.0046,0.5789999999999444,0.006272443727356734,0.9638876444277029,0.026865855987099424,0.08382508364866528
0.155,-0.0053,-0.421,0.006292596779396704,0.9323279250814216,0.027090812475780154,0.07530481075122035
0.156,-0.0017,-0.4210000000000555,0.006292696698282229,0.9322861017324616,0.027091927810648342,0.07529351957518947
0.157,-0.001,-1.421,0.0062901185223105645,0.9323279250814217,0.027063149171430996,0.07530481075122038
0.158,-0.0006,-0.421,0.006292882580239808,0.9323697465543103,0.02709400269997047,0.07531610142076259
0.159,0.0076,-0.421,0.006309961524449365,0.9323697465543103,0.02728464475816275,0.07531610142076259
0.16,0.004,-1.421,0.00628892577992667,0.9324115661513794,0.027049835300259055,0.07532739158388416
0.161,-0.0037,0.579,0.006302925140746429,0.9324115661513794,0.027206101807562343,0.07532739158388416
0.162,-0.0044,0.579,0.00646309548608613,0.9322861017324618,0.028993987751931297,0.07529351957518952
0.163,-0.0018,-0.421,0.006350824610101724,0.8996184437247543,0.027740774988302724,0.06647413312589694
0.164,-0.004,0.579,0.006459197849233932,0.8996184437247546,0.02895048075861415,0.06647413312589702
0.165,-0.0003,1.579,0.006500969880028914,0.910580790201236,0.02941675700074687,0.06943367096434014
0.166,0.0062,0.579,0.006423563588000476,0.8994884051950794,0.028552716773888095,0.06643902623068486
0.167,0.004,0.579,0.0064177468404431285,0.8655838260310934,0.02848778789346602,0.05728570443524802
0.168,0.0062,0.579,0.006417887867981348,0.8655387775735448,0.028489362099682638,0.05727354256689578
0.169,0.0141,0.579,0.006369280577577361,0.8655387775735444,0.027946787935140285,0.05727354256689566
0.17,0.0115,1.579,0.0064670473929392906,0.8538157920050821,0.029038100528870348,0.05410865269192037
0.171,0.0053,0.579,0.006406426854488467,0.8655387775735438,0.028361429648212384,0.057273542566895506
0.17200000000000001,0.003100000000000058,-0.421,0.00640042768164892,0.8769717162374082,0.02829446446327183,0.060360127601668714
0.17300000000000001,0.005199999999999861,0.579,0.006391643097249942,0.8769272527851246,0.028196407391965994,0.06034812366895746
0.17400000000000002,0.00020000000000017766,0.579,0.006419549871977599,0.8654937267712488,0.028507914058087173,0.057261380065524996
0.17500000000000002,0.006600000000000069,0.579,0.006401357339483698,0.8655387775735438,0.028304841678681754,0.057273542566895506
0.176,0.0091,0.579,0.006369006994257486,0.8655838260310921,0.027943734087867995,0.05728570443524766
0.177,-0.0017,-0.421,0.006312336460028286,0.877149547507643,0.027311154746209095,0.06040813724761881
0.178,-0.0003,-0.421,0.006312688198894356,0.8657639964211388,0.02731508099718521,0.057334345580449024
0.179,-0.0093,-0.421,0.006415958177782299,0.8657189573389173,0.028467822120003195,0.05732218624318223
0.18,-0.0082,-2.421,0.006533045594971014,0.8656739159134129,0.029774799057651586,0.05731002627329222
0.181,-0.0092,-2.421,0.006536943187581778,0.8772384496242179,0.02981830555712802,0.06043213842095207
0.182,-0.0044,-0.421,0.006485131577431876,0.9106664286607602,0.029239963484220133,0.06945679103830713
0.183,0.0017,-0.421,0.006459167953598111,0.9107092448706463,0.028950147051478983,0.06946835026000556
0.184,0.0057,-0.421,0.006458824191827115,0.9106664286607602,0.028946309844052904,0.06945679103830713
0.185,0.0021,-0.421,0.006505575745448163,0.9107092448706463,0.02946816952675014,0.06946835026000556
0.186,0.0086,0.579,0.006555869559241078,0.9106664286607602,0.03002956934503956,0.06945679103830713
0.187,0.001,1.579,0.00660804919927775,0.9105379679510268,0.030612019515862,0.06942211011191743
0.188,0.0035,-0.421,0.006591805555598767,0.9105807902012345,0.03043070141882351,0.06943367096433975
0.189,0.0009,-0.421,0.006523350872182104,0.9106236104377176,0.029666582654845664,0.06944523127311074
0.19,0.0031,-0.421,0.00659519539228876,0.9214973551147636,0.030468540142083375,0.07238084901574723
0.191,-0.002,0.579,0.006804355266504009,0.9214973551147636,0.03280326695085882,0.07238084901574723
0.192,0.0016,-0.421,0.0068018414443084966,0.9214550401839392,0.032775206654425876,0.07236942512587341
0.193,-0.0038,-1.421,0.00680218477986033,0.9214127233098454,0.0327790391042219,0.07235800071136927
0.194,-0.0031,0.579,0.006802310355877909,0.9214127233098452,0.032780440834338065,0.07235800071136925
0.195,-0.011,-0.421,0.006830991100494596,0.9105807902012345,0.03310058686427548,0.06943367096433975
0.196,-0.0063,-2.421,0.006780970583221054,0.9105379679510268,0.032542237691875565,0.06942211011191743
0.197,-0.007,0.579,0.006625719045684394,0.8994017023967357,0.030809257462515578,0.06641561881394722
0.198,0.0053,-0.421,0.006753485968621961,0.9104094891152151,0.03223544334724269,0.06938742429197554
0.199,-0.0073,-0.421,0.0067197682390006735,0.910409489115215,0.03185907246074631,0.06938742429197552
0.2,0.0007,0.579,0.0066979205829042505,0.8992716325253389,0.03161520011865104,0.06638050345731569
0.201,0.0018,-0.421,0.006677402183703989,0.8992282717206289,0.03138616547772987,0.0663687972097053
0.202,0.0093,-0.421,0.006663288405918155,0.9319096071269096,0.03122862180214047,0.07519187618766368
0.203,0.0057,1.579,0.006659219835773195,0.9319096071269096,0.031183206782522288,0.07519187618766368
0.20400000000000001,0.006799999999999789,-0.421,0.006659475880211563,0.9319096071269096,0.031186064853730926,0.07519187618766368
0.20500000000000002,-0.0007999999999998723,-0.421,0.006672398971982352,0.93190960712691,0.0313303176121662,0.07519187618766378
0.20600000000000002,0.0037999999999999805,0.579,0.0066582687039869835,0.93190960712691,0.031172589866212325,0.07519187618766378
0.20700000000000002,0.00309999999999975,0.579,0.0066565588878694576,0.9319514473718846,0.031153504209641525,0.07520317192516285
0.20800000000000002,-0.00590000000000003,0.579,0.006660751712850687,0.9319514473718846,0.031200306211817647,0.07520317192516285
0.209,-0.007,0.579,0.0066917356371685695,0.9319514473718845,0.03154616126177615,0.07520317192516282
0.21,-0.008,0.579,0.006670150067467365,0.9319932857385133,0.031305214433646825,0.07521446715555917
0.211,-0.0145,-1.421,0.006690004213126108,0.9212857610252688,0.03152683440883909,0.07232372431935177
0.212,-0.0101,-0.421,0.0066800698316954845,0.9212434363754183,0.03141594283969037,0.07231229780560308
0.213,-0.0122,-0.4210000000000555,0.00674268067124586,0.9319514473718846,0.032114830263325775,0.07520317192516285
0.214,-0.0086,-1.420999999999889,0.006771164173911706,0.9319932857385133,0.032432774599118114,0.07521446715555917
0.215,-0.0064,0.5789999999999444,0.006833889332893573,0.9319932857385133,0.0331329381023193,0.07521446715555917
0.216,0.0002,-0.421,0.006833863045605624,0.9211164507571403,0.03313264467301727,0.07227801511411563
0.217,0.0009,-0.4209999999999445,0.006816086843266333,0.9319514473718845,0.032934219538581354,0.07520317192516282
0.218,0.003,0.5789999999999444,0.006804061514441278,0.9319096071269096,0.032799987971950634,0.07519187618766368
0.219,0.0113,-0.42099999999988896,0.006799647211619063,0.9319096071269096,0.03275071374485643,0.07519187618766368
0.22,0.008,1.579,0.0067339168242383455,0.9426205494569649,0.032017004671140756,0.07808354168821952
0.221,0.0126,-1.421,0.006682759876503568,0.9426205494569649,0.03144597020394369,0.07808354168821952
0.222,0.0024,-0.421,0.006674215866409559,0.9426205494569649,0.031350598519982925,0.07808354168821952
0.223,0.006,-0.421,0.0067306892876778926,0.953129327979908,0.03198097760733483,0.08092062841424053
0.224,-0.0028,0.579,0.006711316649412816,0.953088417436867,0.03176473241172127,0.08090958367118475
0.225,0.0048,0.579,0.006711497724247464,0.953088417436867,0.03176675364199995,0.08090958367118475
0.226,-0.0018,1.579,0.006678436164327634,0.9530475051376986,0.03139770718615189,0.08089853845402196
0.227,0.0007,0.579,0.006618578923419006,0.9530475051376984,0.030729556540273772,0.08089853845402191
0.228,-0.0116,-0.421,0.006618337944188911,0.9530475051376984,0.03072686663299126,0.08089853845402191
0.229,-0.0134,-0.421,0.0066382601955056525,0.9530475051376986,0.030949246830985117,0.08089853845402196
0.23,-0.0055,1.579,0.006621407005823765,0.9634425580417698,0.03076112473581123,0.08370492233070559
0.231,-0.0098,-2.421,0.006699353104331498,0.9319096071269073,0.0316311905001374,0.07519187618766306
0.232,-0.0008,0.579,0.006640108769743504,0.8992282717206275,0.030969881361615412,0.06636879720970491
0.233,0.0003,-0.421,0.0066571488444207095,0.9319096071269048,0.031160089542422914,0.07519187618766239
0.234,0.0078,0.579,0.006654852957755075,0.9319096071269052,0.031134461930203895,0.07519187618766249
0.23500000000000001,0.010299999999999978,-0.421,0.0066411199739213975,0.9425378143354798,0.0309811688301709,0.0780612054372053
0.23600000000000002,0.009499999999999847,-1.421,0.006656091908246242,0.9530475051376947,0.031148291594891384,0.08089853845402088
0.23700000000000002,0.003999999999999939,0.579,0.006601387834285422,0.9530475051376947,0.030537662675244374,0.08089853845402088
0.23800000000000002,0.0018000000000002192,0.579,0.006626372994263714,0.9424136980344382,0.03081655710010346,0.0780276973839716
0.23900000000000002,0.00970000000000025,-1.421,0.006616919382801605,0.9424550719509469,0.030711032079096718,0.07803886722536411
0.24,0.0187,-0.421,0.006618830238053794,0.9424964440512144,0.030732361815508695,0.07805003657642048
0.241,-0.0002,-0.421,0.006612147909939908,0.9424964440512144,0.030657770976079964,0.07805003657642048
0.242,-0.0027,-0.421,0.006615406894609206,0.9424550719509469,0.030694149076350614,0.07803886722536411
0.243,-0.0006,-0.421,0.0066137672154048,0.9424964440512145,0.03067584631626969,0.07805003657642051
0.244,-0.0071,0.579,0.006605461402419327,0.9319096071269052,0.030583133484429377,0.07519187618766249
0.245,-0.0013,-0.421,0.00661854628539628,0.931867765003331,0.030729192221510764,0.07518057994299222
0.246,-0.0031,-0.421,0.006552654743390808,0.9634425580417676,0.029993684274927226,0.08370492233070498
0.247,-0.0179,-1.421,0.006599719495814545,0.9424964440512145,0.030519040008881226,0.07805003657642051
0.248,0.0002,-0.421,0.006623752249604936,0.9424550719509469,0.0307873032920451,0.07803886722536411
0.249,0.0024,-0.421,0.006648514899798654,0.9424964440512145,0.031063713973015893,0.07805003657642051
0.25,0.0002,-0.421,0.006613117831811845,0.9425378143354798,0.030668597634899326,0.0780612054372053
0.251,0.0021,-2.421,0.006613858472793294,0.9424964440512144,0.03067686496801738,0.07805003657642048
0.252,0.0003,0.579,0.006685787037683494,0.9425378143354798,0.0314797605969996,0.0780612054372053
0.253,0.0017,0.579,0.0067116854320395224,0.9425378143354798,0.031768848912022356,0.0780612054372053
0.254,0.0061,0.579,0.00675630951624209,0.9318259210009046,0.032266960923686555,0.07516928319108251
0.255,-0.003,-0.421,0.006747771978778165,0.9318259210009046,0.03217166148983129,0.07516928319108251
0.256,0.0006,0.579,0.006764805735835331,0.9318259210009046,0.03236179915081786,0.07516928319108251
0.257,-0.0026,-1.421,0.006764243229336612,0.9317840751193726,0.0323555202265854,0.07515798593186501
0.258,0.0064,-0.421,0.006758046543514071,0.9317840751193726,0.03228635032212965,0.07515798593186501
0.259,0.0054,0.579,0.006740064383174797,0.931742227358482,0.03208562620149552,0.07514668816527138
0.26,0.0065,0.579,0.0067254613772418596,0.931742227358482,0.03192262156416604,0.07514668816527138
0.261,-0.0,-0.421,0.006693212442792956,0.9317003777179794,0.031562645961317796,0.07513538989123322
0.262,-0.0102,-1.421,0.00661842125608024,0.9209894476301368,0.0307277965938975,0.07224372769574458
0.263,-0.0065,0.579,0.006976579007793786,0.9209894476301368,0.03472569775841921,0.07224372769574458
0.264,-0.0101,0.579,0.007035008835321865,0.9209894476301365,0.035377915040886804,0.07224372769574448
0.265,0.0001,-0.421,0.0069940558690519085,0.9101096346315573,0.034920781527070725,0.06930647166998752
0.266,0.0038,1.579,0.007060247038544067,0.9101096346315576,0.03565963403641248,0.06930647166998762
0.267,0.0002,-0.421,0.00706060472871073,0.9101524770346487,0.03566362671820422,0.06931803796314484
0.268,0.0057,0.579,0.007081002552145468,0.9101953174211712,0.03589131544383781,0.06932960371188292
0.269,0.0105,1.579,0.007193859530177897,0.92115878124162,0.03715107051472934,0.0722894432030568
0.27,0.008,1.579,0.007115242226975103,0.9211587812416205,0.03627351249309706,0.07228944320305696
0.271,0.0041,0.579,0.007232219905531561,0.9101524770346499,0.03757926448390682,0.06931803796314515
0.272,0.0092,-1.421,0.007160606516614509,0.8991849088249578,0.03677988697615483,0.06635709039759181
0.273,0.0012,-0.421,0.007167317375088693,0.8991849088249577,0.036854796282963134,0.06635709039759179
0.274,0.0005,0.579,0.0071815451697190055,0.9103238264841728,0.037013612660520126,0.0693642976923507
0.275,-0.0002,-0.4209999999999445,0.007188901409966817,0.910280992145649,0.037095725978778686,0.0693527335764091
0.276,0.002,0.5789999999999444,0.007176000337705536,0.9102381557914102,0.03695171901098254,0.06934116891627885
0.277,-0.0016,-0.421,0.0071768215534035295,0.8990981767595287,0.03696088575155879,0.06633367507953064
0.278,-0.0052,-0.4210000000000555,0.007176438950323328,0.8990548075891643,0.03695661498178606,0.06632196657341922
0.279,-0.008,-1.420999999999889,0.007134324168878928,0.910195317421172,0.03648651281877381,0.06932960371188313
0.28,-0.0131,0.5789999999999444,0.007047835259606316,0.910195317421172,0.03552108875788196,0.06932960371188313
0.281,-0.0022,-0.421000000000111,0.007098204960423959,0.8990548075891643,0.036083335657724355,0.06632196657341922
0.28200000000000003,-0.006499999999999634,-2.420999999999889,0.0070337119987971455,0.8765714639733082,0.03536343922896436,0.06025207028719978
0.28300000000000003,0.0001000000000002054,-0.4210000000000555,0.007038671815245742,0.910023943774531,0.035418802699001765,0.06928333745010842
0.28400000000000003,0.003800000000000061,-1.421,0.007051370982750238,0.9210317839516667,0.035560555924533756,0.07225515736053187
0.28500000000000003,0.004899999999999639,-1.421,0.007054775919209998,0.931867765003334,0.03559856319750906,0.07518057994299303
0.28600000000000003,-0.0016000000000002388,0.579,0.007043477965220735,0.9319096071269082,0.035472450881932224,0.07519187618766329
0.28700000000000003,-0.0058999999999996946,-0.421,0.006979005169813768,0.932035122227047,0.03475277955664527,0.07522576187892052
0.28800000000000003,-0.0003999999999998779,0.579,0.006989325134070772,0.9320351222270468,0.034867975156694424,0.07522576187892047
0.289,0.0018,0.579,0.007017545453652619,0.9319932857385111,0.03518298173683868,0.0752144671555586
0.29,0.001,-0.421,0.0069503718525803695,0.9212857610252667,0.03443316293027366,0.0723237243193512
0.291,-0.0029,-0.421,0.006702461415414062,0.921328083730776,0.031665886721110495,0.07233515030818022
0.292,0.0007,0.579,0.00670891228457422,0.9213280837307753,0.03173789392241825,0.07233515030818004
0.293,-0.0018,0.579,0.006719839807131759,0.9322024494053092,0.03185987133306791,0.07527093570338678
0.294,0.0051,-0.421,0.006748575174771442,0.9322024494053092,0.03218062708720144,0.07527093570338678
0.295,-0.0058,-2.421,0.006756241236352544,0.932160620426619,0.032266198756042204,0.0752596430074806
0.296,-0.0101,-1.421,0.006812754370920443,0.9427859979184122,0.03289702113924857,0.0781282083098243
0.297,-0.009,-0.421,0.006849871805674059,0.9428273554973541,0.0333113409045352,0.07813937374051447
0.298,-0.0079,0.579,0.006613361116245542,0.963766277616627,0.030671313273793455,0.08379231788355461
0.299,0.0023,0.579,0.006613851623393134,0.9637662776166269,0.030676788512252435,0.08379231788355458
0.3,-0.0013,-0.421,0.0066183181455641785,0.9741670322266341,0.03072664563276302,0.08660024106703694
0.301,0.0099,0.579,0.006642385466530985,0.9742070576013948,0.030995294768680834,0.0866110468385345
0.302,0.011,-0.421,0.006657354554850258,0.9534974438788427,0.031162385765140164,0.08102000977699594
0.303,0.0096,0.579,0.006732767405126436,0.9534565491307757,0.03200417439179026,0.08100896929815708
0.304,0.0059,-0.421,0.006739341952811705,0.953415652628615,0.032077562142638565,0.08099792834576025
0.305,0.0048,-0.421,0.006724026055693103,0.953415652628615,0.031906599926594933,0.08099792834576025
0.306,0.0037,-0.421,0.006735096159585512,0.9639280966355772,0.03203016888756561,0.08383600465358967
0.307,0.0012,0.579,0.006735946952481882,0.9638876444276934,0.032039665780749946,0.08382508364866272
0.308,-0.0032,-0.421,0.0067399994083467375,0.9534974438788427,0.03208490092627944,0.08102000977699594
0.309,-0.0054,0.579,0.006726561467576422,0.9843786906862866,0.03193490121582396,0.08935711339080787
0.31,0.0044,-0.421,0.006705400176321646,0.9945247061186401,0.03169869035470063,0.09209626386793421
0.311,-0.0105,0.579,0.006708295437544757,0.9944854984750898,0.031731008427282034,0.09208567886180508
0.312,-0.0243,-0.421,0.006755176788229248,0.9944854984750898,0.03225431695711048,0.09208567886180508
0.313,-0.0152,-0.421,0.006699918057896138,0.984418300866236,0.03163749673950586,0.08936780707090633
0.314,-0.004,-0.421,0.006716006947067331,0.9843786906862865,0.031817087404361316,0.08935711339080785
0.315,-0.0116,0.579,0.006696498473423133,0.9843390789124083,0.03159932595950347,0.08934641928039164
0.316,0.0007,0.579,0.006696569339201702,0.9944070785503335,0.031600116991883226,0.09206450759750485
0.317,0.0054,0.579,0.006694855319226115,0.9944070785503335,0.03158098441015456,0.09206450759750485
0.318,0.013,1.579,0.006701773849390443,1.0043741600956735,0.031658211832061287,0.09475535075189401
0.319,0.004,-0.421,0.006772882893892407,1.0043741600956735,0.032451959644197996,0.09475535075189401
0.32,0.0152,-0.421,0.006700660459447315,0.9942894370663157,0.031645783724812734,0.09203274757020884
0.321,0.0075,0.579,0.006653251723121635,0.9841409961273494,0.031116588303917506,0.08929294227172531
0.322,0.0039,-0.421,0.006658650936673281,0.9841013747858561,0.03117685650149903,0.0892822455783111
0.323,0.0075,1.579,0.006594251042655,0.9739268454347747,0.03045799893089232,0.08653539711229355
0.324,0.0042,-0.421,0.006593102012261788,0.9842202340252766,0.030445172990576592,0.08931433436671676
0.325,-0.0023,-0.421,0.006593545440400357,1.0143201850850692,0.030450122714163714,0.09744050920418053
0.326,0.002,-0.421,0.006593686566891906,1.0240934788718705,0.030451698024937277,0.10007903489120513
0.327,-0.0002,-0.421,0.0066370094865032744,1.02405540331799,0.03093528591305674,0.10006875551874864
0.328,-0.0086,1.579,0.006637505146363779,1.0240934788718707,0.030940818668173827,0.1000790348912052
0.329,-0.0075,-0.421,0.006683191385371255,1.0240934788718705,0.03145078687982568,0.10007903489120513
0.33,-0.0101,-0.421,0.006652036001580718,1.024093478871872,0.03110301793013413,0.10007903489120556
0.331,0.0019,-1.421,0.006585285877234357,1.0240554033179918,0.030357926141447337,0.10006875551874912
0.332,-0.0028,-2.421,0.006591331245916911,1.0240554033179912,0.03042540698300476,0.10006875551874894
0.333,-0.0043,1.579,0.006561125411816587,0.994407078550338,0.030088237289630046,0.09206450759750608
0.334,0.0081,1.579,0.006594772796486005,0.9944462892857194,0.030463822957424176,0.0920750934383462
0.335,0.0095,0.579,0.006595972149213538,0.9945639122165528,0.030477210615915816,0.0921068484567829
0.336,-0.001,1.579,0.006730036786221199,0.9845371218444401,0.0319736941231129,0.08939988552981566
0.337,0.0055,0.5789999999999444,0.006855661259474422,0.9844975164451226,0.033375965121042246,0.08938919314035888
0.338,0.0065,-0.4209999999999445,0.006866017337882462,0.9945639122165529,0.03349156384179951,0.09210684845678292
0.339,0.0011,0.579,0.006977986590954921,0.9945639122165529,0.034741409768928935,0.09210684845678292
0.34,-0.0037,0.5789999999999444,0.007000893811513453,0.9945639122165529,0.034997109396561615,0.09210684845678292
0.341,-0.003,-0.42099999999988896,0.007008134434588761,1.0045294376375318,0.03507793214934623,0.09479727149957115
0.342,0.0046,1.578999999999889,0.0070026546515222126,1.0143970655898293,0.03501676460236933,0.09746126486660778
0.343,-0.0063,-0.421,0.0070301302944204445,1.0143586260658193,0.035323458801261545,0.09745088723203442
0.34400000000000003,-0.00780000000000006,-0.4210000000000555,0.007027966644762013,1.0143586260658193,0.03529930727180929,0.09745088723203442
0.34500000000000003,-0.00889999999999994,-1.420999999999889,0.007049526406674969,1.0143586260658193,0.03553996602300549,0.09745088723203442
0.34600000000000003,-0.007799999999999578,0.5789999999998334,0.007133705265341205,0.9844183008662404,0.03647960436806361,0.0893678070709075
0.34700000000000003,-0.00020000000000003888,-2.420999999999889,0.007073639209670343,0.9742470813317816,0.03580912284765573,0.0866218521660955
0.34800000000000003,-0.0008999999999997612,-0.421,0.00708013564691833,1.0044906205023798,0.03588163869832407,0.09478679192017557
0.34900000000000003,0.003400000000000122,1.579,0.007109295793929401,1.0044906205023798,0.03620713601098988,0.09478679192017557
0.35000000000000003,0.005599999999999961,0.579,0.007145339674718478,1.0044906205023798,0.036609472334275105,0.09478679192017557
0.35100000000000003,0.004900000000000283,-1.421,0.007144257230856352,1.0045294376375316,0.03659738965965416,0.0947972714995711
0.352,0.01,-0.421,0.007104862090839864,1.0143586260658193,0.03615764523029339,0.09745088723203442
0.353,0.0034,-0.421,0.007077787221196302,1.0143586260658193,0.035855424623984014,0.09745088723203442
0.354,0.0041,0.579,0.00704905863767524,1.0143201850850734,0.03553474459691658,0.09744050920418168
0.355,0.0048,1.579,0.007026308446178776,1.0143586260658193,0.03528079779095843,0.09745088723203442
0.356,0.0012,-0.421,0.007014169679132509,1.0143586260658193,0.03514529998118621,0.09745088723203442
0.357,0.0034,-0.421,0.007005046578532215,1.0143586260658193,0.03504346425561706,0.09745088723203442
0.358,0.0048,-2.421,0.007016835676167575,1.0143586260658193,0.035175058914505695,0.09745088723203442
0.359,0.0011,1.579,0.0070147725405860515,1.0242457669331007,0.03515202936368772,0.10012014855975418
0.36,-0.0069,-0.421,0.007003409143766505,1.0242457669331007,0.035025186548865384,0.10012014855975418
0.361,-0.008,-0.421,0.006991930223140836,1.0242457669331007,0.03489705421076226,0.10012014855975418
0.362,-0.0054,-0.421,0.0070125284977483665,1.0242076970406229,0.03512698045316968,0.10010987071572368
0.363,-0.008,-0.421,0.006665623761876479,1.0242457669331007,0.031254689986510875,0.10012014855975418
0.364,-0.0087,-0.421,0.0065966875161464385,1.0242457669331007,0.030485195829918363,0.10012014855975418
0.365,-0.0004,-1.421,0.006804420819906737,1.0242457669331007,0.03280399868435852,0.10012014855975418
0.366,-0.0036,1.579,0.006718563526807377,1.0242457669331007,0.031845624977737914,0.10012014855975418
0.367,0.003,-1.421,0.006719505705893315,1.0340006651272016,0.03185614196039943,0.1027537079329723
0.368,0.0113,0.579,0.0067034090062041,1.0340006651272013,0.031676464111394124,0.10275370793297224
0.369,0.0037,-0.421,0.006657659324220761,1.0242076970406229,0.031165787723677757,0.10010987071572368
0.37,0.0012,0.579,0.006792307816480666,1.0242457669331007,0.032668788458497834,0.10012014855975418
0.371,-0.005,-0.421,0.006666416014803054,1.0242457669331007,0.031263533432960365,0.10012014855975418
0.372,0.0005,-0.421,0.006639804765311615,1.0340006651272016,0.030966487941630916,0.1027537079329723
0.373,-0.0003,1.579,0.0066496127566164735,1.0340383744748618,0.031075968693259806,0.10276388843962778
0.374,-0.001,2.579,0.0066127204272242905,1.0242457669331007,0.03066416164473642,0.10012014855975418
0.375,0.0004,-1.421,0.006599341258179542,1.0339252423058722,0.030514817967967102,0.10273334580575025
0.376,-0.0079,-0.421,0.006638652158565218,1.033925242305872,0.030953622080619646,0.10273334580575019
0.377,-0.0018,0.579,0.006654698176578322,1.033962954404255,0.03113273420033116,0.10274352705502661
0.378,-0.0094,-0.421,0.006695093353189151,1.0435523018408115,0.0315836414411792,0.10533239218945319
0.379,-0.0047,-1.421,0.006662626398411828,1.0338875288319018,0.03122123220756154,0.10272316418510233
0.38,-0.0091,-0.421,0.006698172565690971,1.062618170126737,0.03161801285206711,0.11047966232327226
0.381,-0.0036,-0.421,0.006678611997359697,1.062618170126737,0.031399669905317625,0.11047966232327226
0.382,-0.0014,-0.421,0.006718250613415533,1.053202430630795,0.03184213211235203,0.10793766664972299
0.383,0.0066,0.579,0.006804530575700868,1.0243980323550281,0.032805223822764906,0.1001612561163022
0.384,0.004,1.579,0.006813958746291313,1.0145123754230967,0.0329104648625093,0.09749239541109764
0.385,0.0142,0.579,0.0068092872669834,1.0045294376375318,0.03285831992783794,0.09479727149957115
0.386,0.0131,-0.421,0.0067655891202237795,1.00449062050238,0.03237054360307071,0.09478679192017563
0.387,0.0069,-1.421,0.006805883564438976,0.9944070785503376,0.0328203264283229,0.09206450759750597
0.388,0.0124,0.579,0.006784933931677424,0.9943678662687649,0.032586478184600684,0.0920539213392359
0.389,0.0059,0.579,0.006783975108980226,1.004451801867134,0.032575775419242795,0.09477631193579511
0.39,0.0033,-1.421,0.006795041502824989,1.004451801867133,0.03269930296716648,0.0947763119357948
0.391,-0.0007,-1.421,0.006835290791391288,1.014281742647419,0.033148581746867654,0.09743013078300297
0.392,0.0062,-0.421,0.0068381914107872865,1.0143201850850676,0.0331809596295342,0.09744050920418011
0.393,0.0,0.579,0.006867400342591514,1.0043741600956737,0.03350700149772181,0.09475535075189406
0.394,-0.0076,-0.421,0.006839905448294648,1.0044129817316227,0.0332000924069596,0.09476583154638345
0.395,-0.0124,-0.421,0.006795931140535913,1.0044518018671318,0.032709233461825575,0.09477631193579451
0.396,-0.004,-0.421,0.0067609034854619245,0.9945247061186415,0.032318240659517716,0.0920962638679346
0.397,-0.0095,-2.421,0.006717075362286379,0.9945247061186424,0.03182901348561459,0.09209626386793483
0.398,-0.0102,0.579,0.006779025402359696,0.9742470813317826,0.03252052479918059,0.08662185216609576
0.399,-0.0076,0.579,0.006778500337799896,0.9742871034179896,0.03251466381695969,0.08663265704977256
0.4,-0.0,0.579,0.006797520852852914,0.9639280966355827,0.032726978471372306,0.08383600465359115
0.401,0.0065,-1.421,0.006775519335849106,0.9638876444276987,0.03248138867182186,0.08382508364866414
0.402,0.0091,-0.421,0.006869397021561005,0.953497443878848,0.03352928923305383,0.08102000977699739
0.403,0.0072,-0.421,0.0068831465945097285,0.9638876444276986,0.03368276750747449,0.08382508364866412
0.404,0.0018,0.579,0.00691370407105502,0.9639280966355825,0.03402386237553412,0.08383600465359112
0.405,0.0025,-0.421,0.006952808183359602,0.9639280966355825,0.03446035823628855,0.08383600465359112
0.406,-0.0012,-0.421,0.006938030692418519,0.9534565491307812,0.03429540592697956,0.08100896929815855
0.40700000000000003,0.004199999999999616,0.579,0.0069423240179615,0.9639685471459203,0.03434332975692833,0.08384692520022644
0.40800000000000003,-0.002699999999999656,1.579,0.006941833518055635,0.9640089959589255,0.034337854599304427,0.08385784528862776
0.40900000000000003,0.0034999999999996948,0.579,0.0069278532254123705,0.9324951997190623,0.03418180093867177,0.07534997039113608
0.41000000000000003,-0.002000000000000544,-0.421,0.006928195714884677,0.9324951997190623,0.034185623944187137,0.07534997039113608
0.41100000000000003,-0.011799999999999939,-0.421,0.006917370743231802,0.9325370136901877,0.034064791248064004,0.07536125903540461
0.41200000000000003,-0.01070000000000006,0.579,0.006916229332322903,0.9325788257865031,0.034052050359502886,0.07537254717352498
0.41300000000000003,-0.0118000000000003,-0.421,0.007153714685124081,0.9326206360082605,0.03670295757560592,0.07538383480556529
0.41400000000000003,-0.01719999999999928,-0.421,0.007152610989989904,0.9326624443557121,0.036690637685721936,0.07539512193159358
0.41500000000000004,-0.004199999999999694,0.579,0.007203297005217131,0.9432821691882298,0.03725641541448088,0.07826216116841382
0.41600000000000004,0.0013000000000000832,1.579,0.00721007647409975,0.9644133907826714,0.037332090578318565,0.08396702098245518
0.417,0.0028,0.579,0.007213275379089602,0.9847747207907259,0.03736779804499473,0.08946403083606153
0.418,0.0104,-0.421,0.00731534746961475,0.9746072209416322,0.03850716785515043,0.08671908014595926
0.419,0.014,0.579,0.007226978591293,0.9745672120015387,0.03752075882209239,0.0867082788113785
0.42,0.0079,-0.421,0.0072525971630718064,0.9745672120015387,0.03780672364473789,0.0867082788113785
0.421,0.0046,1.579,0.007306596287811205,0.9846955275120393,0.03840948363707628,0.0894426507870614
0.422,0.0053,0.579,0.007289845542486647,0.9846955275120393,0.038222505067104645,0.0894426507870614
0.423,0.0028,-0.421,0.007290893597977391,0.9846955275120393,0.03823420388486548,0.0894426507870614
0.424,0.0006,-1.421,0.007345642642393726,1.0046458800441753,0.038845334782860334,0.09482870780832131
0.425,0.0075,-0.421,0.007345036244392041,0.9742470813317825,0.03883856592398321,0.08662185216609573
0.426,0.005,0.579,0.0073457875400805206,0.9640089959589255,0.03884695218923504,0.08385784528862776
0.427,-0.0074,-1.421,0.007317290525515036,0.9640089959589255,0.038528857028173547,0.08385784528862776
0.428,-0.0055,0.579,0.007396634657874264,0.9639685471459203,0.039414528209766805,0.08384692520022644
0.429,-0.0102,2.579,0.007535012301306664,0.9743671426586875,0.04095915523284637,0.08665426548569582
0.43,-0.0087,-0.421,0.0075473993769673954,0.9743671426586875,0.04109742476344322,0.08665426548569582
0.431,-0.0076,-0.421,0.00750865266409047,0.9744071598135835,0.04066491833913458,0.08666506903805166
0.432,-0.0112,-0.421,0.007548798310442037,0.9744071598135835,0.04111304022266643,0.08666506903805166
0.433,0.0055,-0.421,0.007552268735307877,0.9845767256505992,0.041151778503622644,0.08941057748916266
0.434,0.0077,-0.421,0.007524687254581618,0.9845767256505992,0.04084390290024066,0.08941057748916266
0.435,0.0056,-0.421,0.007516562693144714,0.9742871034179896,0.04075321327123101,0.08663265704977256
0.436,0.0074,-0.421,0.007425071977034706,0.9845371218444411,0.03973195702665958,0.08939988552981594
0.437,-0.0016,-0.42099999999977794,0.007475517272484938,0.984537121844441,0.04029504774425607,0.08939988552981591
0.438,0.0064,1.578999999999889,0.00750041282759836,0.9743671426586874,0.04057294196350214,0.0866542654856958
0.439,-0.0041,0.5789999999997779,0.007519461718900528,0.9846163278637899,0.04078557336504359,0.08942126901845117
0.44,0.0082,-1.420999999999778,0.007519461718900528,0.9845767256505991,0.04078557336504359,0.08941057748916263
0.441,0.0035,0.579,0.007513021416498022,0.9744071598135835,0.0407136841141432,0.08666506903805166
0.442,0.0078,0.579,0.007512882453650291,0.9641303322160826,0.040712132954833904,0.08389060280500454
0.443,-0.0012,0.579,0.00748768880804896,0.964170774241894,0.0404309113294294,0.08390152106104662
0.444,-0.0002,0.579,0.0075547637760406865,0.964170774241894,0.04117962915379985,0.08390152106104662
0.445,-0.0056,0.579,0.007536688228196062,0.9642112145714407,0.04097786260419522,0.08391243885914297
0.446,0.0009,0.579,0.00754846992464554,0.964251653204936,0.04110937464806432,0.08392335619935122
0.447,-0.0092,-1.421,0.007566513964581289,0.9745272014188895,0.04131078949369219,0.086697477033352
0.448,-0.0001,0.579,0.007546159074626176,0.9433235050138269,0.04108358000886065,0.0782733207262877
0.449,-0.0062,0.579,0.007477656367737696,0.9433235050138269,0.0403189251875366,0.0782733207262877
0.45,0.0014,-0.421,0.007467447332856464,0.9432821691882297,0.04020496782588507,0.0782621611684138
0.451,0.0123,-0.421,0.007477389680338492,0.9432408315511647,0.040315948315309935,0.07825100112149243
0.452,0.0109,-1.421,0.0074504175613552825,0.932662444355712,0.0400148746532806,0.07539512193159355
0.453,0.0073,0.579,0.007455438454605391,0.9326624443557119,0.040070919887190824,0.0753951219315935
0.454,0.0084,0.579,0.007435920809103809,0.9644133907826714,0.03985305606236454,0.08396702098245518
0.455,-0.0018,0.579,0.007456629627240402,0.9643729589312479,0.04008421623619311,0.08395610547322338
0.456,-0.0028,1.579,0.007521123514684111,0.9644133907826714,0.0408041229992944,0.08396702098245518
0.457,0.0033,0.579,0.00752331025171036,0.9644538209391101,0.04082853223925059,0.0839779360340868
0.458,-0.0021,0.579,0.0075332828045252855,0.9644133907826715,0.04093984989277421,0.08396702098245522
0.459,-0.0014,1.579,0.007529857696632298,0.9539062949339893,0.040901617458132,0.08113038853309434
0.46,-0.0057,0.579,0.007521476642305208,0.953865417714455,0.040808064752113814,0.08111935278648648
0.461,-0.0079,0.579,0.007543221697935314,0.9538654177144549,0.0410507918264554,0.08111935278648645
0.462,-0.0191,0.579,0.007468284642929554,0.9539062949339893,0.04021431421836228,0.08113038853309434
0.463,-0.0079,0.579,0.007414322236595422,0.9538654177144549,0.039611964091661234,0.08111935278648645
0.464,-0.0122,-1.421,0.007390665536709383,0.9538654177144549,0.03934789847372989,0.08111935278648645
0.465,-0.0032,2.579,0.007250828971832351,0.9539062949339893,0.03778698638153055,0.08113038853309434
0.466,-0.0042,-2.421,0.007276138748258061,0.9538654177144549,0.03806950430599826,0.08111935278648645
0.467,0.0125,-0.421,0.007293046929522387,0.9432821691882298,0.038258240239377295,0.07826216116841382
0.468,0.0006,-0.421,0.007297645873558129,0.9537427755439165,0.038309575506108494,0.08108624270872383
0.46900000000000003,0.0071000000000001,-0.421,0.0072617725201834975,0.98461632786379,0.03790914267854696,0.08942126901845121
0.47000000000000003,0.0088999999999995,-1.421,0.007125745401950064,0.9845767256505992,0.03639075316501515,0.08941057748916266
0.47100000000000003,-9.99999999999223e-05,-0.421,0.00708545607179736,1.0147045293592678,0.035941027424989516,0.09754427179049545
0.47200000000000003,0.001300000000000422,-0.421,0.007072084728454394,1.0047235008179984,0.03579177110185731,0.09484966332342673
0.47300000000000003,0.0088999999999995,-2.421,0.007064011627316661,1.014550809121818,0.035701655893445844,0.09750277147300018
0.47400000000000003,-0.00010000000000006107,0.579,0.007066690975177238,1.0243219024733468,0.035731563854060164,0.1001407031018581
0.47500000000000003,-0.0012000000000001831,0.579,0.007116791076031049,1.014550809121818,0.03629080137045574,0.09750277147300018
0.47600000000000003,-0.0045000000000003605,-0.421,0.007079275757721858,1.0243219024733468,0.03587204026857213,0.1001407031018581
0.47700000000000004,-0.011000000000000343,-0.421,0.0071456802163103,1.0243219024733465,0.036613273596763495,0.10014070310185803
0.47800000000000004,-0.0171999999999994,1.579,0.007152096523816073,1.0145892413646298,0.03668489500695644,0.09751314714184642
0.47900000000000004,-0.006399999999999917,-1.421,0.007152096523816073,1.0244360951743035,0.03668489500695644,0.10017153205075881
0.48,-0.0049,0.579,0.007087212919443443,0.9946423197761776,0.03596063806643608,0.09212801638283113
0.481,-0.0086,-0.421,0.007055332214742767,1.0046070674082561,0.035604772792436526,0.0948182294435972
0.482,0.0026,-1.421,0.007178616089270113,1.004607067408256,0.03698091708411118,0.09481822944359715
0.483,-0.0017,0.579,0.00721790100125697,1.004607067408256,0.03741943110378261,0.09481822944359715
0.484,0.002,-0.421,0.007199688268299331,1.0046458800441753,0.03721613323866003,0.09482870780832131
0.485,0.0081,1.579,0.007158090262889733,1.0046458800441753,0.036751799538012324,0.09482870780832131
0.486,0.0157,-0.421,0.007184464560196243,1.0046846911806981,0.03704620007356033,0.09483918576824885
0.487,0.0092,-0.421,0.00714923784487316,1.0046846911806981,0.03665298528052951,0.09483918576824885
0.488,0.0135,1.579,0.007148332158789816,1.0342269005891382,0.036642875647469854,0.10281478540497482
0.489,0.0059,-0.421,0.007187015980445467,1.0244741565794129,0.03707468005462106,0.10018180760342879
0.49,0.0012,-0.421,0.007175914210326678,1.0244360951743072,0.03695075762246984,0.10017153205075983
0.491,0.0004,-0.421,0.0071531049664314995,1.014704529359275,0.03669615164983874,0.09754427179049736
0.492,0.0011,0.579,0.007179015732643385,1.0146661014831964,0.03698537806450251,0.0975338973005513
0.493,-0.0101,0.579,0.007243792865336775,1.0146661014831964,0.03770844652523042,0.0975338973005513
0.494,-0.0055,0.579,0.007243092995653888,1.0146276721517054,0.037700634297778014,0.09752352241768314
0.495,-0.0131,0.579,0.007268259464534159,1.014589241364637,0.037981552565669666,0.09751314714184833
0.496,-0.0066,-1.421,0.007248146887050503,1.0145508091218252,0.037757047870298016,0.09750277147300211
0.497,-0.0077,-0.421,0.007269467762540049,1.0145508091218252,0.037995040074963335,0.09750277147300211
0.498,-0.0001,0.579,0.007214339496034709,1.0340383744748696,0.037379676147182045,0.10276388843962987
0.499,0.0064,-0.421,0.007216472654102257,1.043589666047145,0.03740348731720855,0.10534247951726068
0.5,0.0038,-0.421,0.007191714394477356,1.043589666047145,0.037127125645536316,0.10534247951726068
0.501,-0.0017,0.579,0.007198065664680793,1.0436270289157479,0.03719802108315013,0.10535256648391696
0.502,0.0095,-0.421,0.007155324194615723,1.0531283830000937,0.03672092356919438,0.10791767578687463
0.503,0.0048,2.579,0.007168008492863858,1.0436270289157479,0.03686251081809447,0.10535256648391696
0.504,0.0058,-0.421,0.007176658496646169,1.0436270289157479,0.036959065646320205,0.10535256648391696
0.505,0.0101,0.579,0.007181480898069791,1.0436270289157479,0.0370128952344697,0.10535256648391696
0.506,-0.0022,0.579,0.007196440079161124,1.043589666047145,0.03717987564245809,0.10534247951726068
0.507,0.0057,-0.421,0.007205615366112619,1.0339252423058793,0.037282293893110774,0.10273334580575218
0.508,0.0013,-0.421,0.0072055680470552086,1.0338875288319098,0.037281765698722075,0.10272316418510449
0.509,0.0001,-0.421,0.0072352136609484625,1.043440201194065,0.03761268198837311,0.10530212803875591
0.51,-0.0061,-0.421,0.007254426195298602,1.033736661177146,0.03782714003956522,0.10268243398798575
0.511,-0.0051,0.579,0.007243732620028508,1.043290714928216,0.03770777404282029,0.10526177077938109
0.512,-0.0058,-0.421,0.007249317994173179,1.0432907149282153,0.03777012023996509,0.10526177077938091
0.513,-0.0102,-0.421,0.00699685444814207,1.0432533400149289,0.03495202039472062,0.10525168056098495
0.514,-0.0095,0.579,0.0070722169856630235,1.0528321403981837,0.035793247410120535,0.10783769827552774
0.515,-0.0074,-0.421,0.007019360334034663,1.043365460738307,0.035203240163071615,0.10528195013183121
0.516,-0.0052,0.579,0.007051721906495576,1.0141279583245004,0.03556447307680376,0.09738861316415981
0.517,0.0038,-1.421,0.007040460722529585,0.9841806158737627,0.03543877120304525,0.08930363853451094
0.518,0.0075,-2.421,0.006941286090660751,0.9841806158737627,0.03433174399410594,0.08930363853451094
0.519,0.0013,-0.421,0.006950594070389427,0.9841806158737627,0.03443564341501358,0.08930363853451094
0.52,0.0024,2.579,0.006961598933504905,0.984180615873762,0.034558484132139695,0.08930363853451077
0.521,0.0016,-0.421,0.006909256738404172,0.9740469462340575,0.03397421945618147,0.08656782108837087
0.522,0.0041,-1.421,0.006912310931550753,1.004296512321756,0.03400831159094324,0.09473438794749144
0.523,0.0034,-1.421,0.006934903766085715,1.004296512321756,0.034260501915081225,0.09473438794749144
0.524,0.0084,-0.421,0.006880505091405447,0.974046946234052,0.03365328198528163,0.08656782108836937
0.525,0.0019,-1.421,0.00690209461691874,0.9842994655444051,0.033894272969779704,0.08933572473960465
0.526,0.0109,0.579,0.006907468957399617,1.014204853400753,0.03395426352412129,0.09740937276049695
0.527,-0.008,0.579,0.006915500357449193,1.014204853400753,0.034043913248180936,0.09740937276049695
0.528,-0.0055,1.579,0.0068375359862486995,1.014204853400753,0.033173643516694155,0.09740937276049695
0.529,-0.0033,0.579,0.006781337820400334,1.0042576861834436,0.03254633694126965,0.09472390593748538
0.53,-0.0055,-1.421,0.006788245089022722,0.9942894370663118,0.03262343865730677,0.0920327475702078
0.531,-0.0153,-0.421,0.006960755797947742,1.004218858543995,0.03454907271326155,0.09471342352221308
0.532,-0.0135,-0.421,0.006911755384156818,1.0042576861834436,0.03400211034704294,0.09472390593748538
0.533,-0.0022,0.579,0.006918488315145548,0.9943286524408128,0.034077266036153964,0.09204333466348509
0.534,-0.0007,-0.421,0.00692121296920748,0.9942894370663119,0.0341076797228465,0.09203274757020782
0.535,0.0083,0.579,0.006920647990556737,0.9943286524408128,0.03410137320345684,0.09204333466348509
0.536,0.0022,-0.421,0.00692303321999294,0.9841409961273455,0.03412799809568666,0.08929294227172425
0.537,-0.0011,2.579,0.006758837146063326,0.9841409961273455,0.03229517534640238,0.08929294227172425
0.538,0.0098,0.579,0.006705693087143419,0.9841409961273455,0.03170195994333822,0.08929294227172425
0.539,-0.0007,-0.421,0.006568460085083943,0.9738467700065987,0.030170109868561137,0.08651377890672736
0.54,0.0059,0.579,0.006560073055326486,0.9738467700065987,0.03007649046238105,0.08651377890672736
0.541,0.007,-0.421,0.006571956244615646,0.9738467700065986,0.03020913541022895,0.08651377890672733
0.542,0.0124,0.579,0.006610634674882426,0.9738467700065986,0.030640879636524815,0.08651377890672733
0.543,-0.0006,-0.421,0.006654846727455535,0.9738067298233082,0.03113439238508958,0.08650296913732619
0.544,-0.0061,-0.421,0.00660540704744729,0.9738067298233082,0.030582526752326093,0.08650296913732619
0.545,-0.0013,-0.421,0.006595342656296792,0.9737666879936108,0.03047018396228937,0.08649215892343957
0.546,-0.0057,0.579,0.006576294285812649,0.9737266445173033,0.03025755837432861,0.08648134826501265
0.547,-0.002,-2.421,0.006589318963143249,0.9738467700065986,0.030402945071722143,0.08651377890672733
0.548,0.0017,-1.421,0.006545822023682409,0.9738868085436851,0.029917414703911755,0.08652458823169784
0.549,-0.0015,0.579,0.006562995322366041,0.9738467700065987,0.030109109984769122,0.08651377890672736
0.55,0.0033,0.579,0.006553090541400299,0.9738467700065987,0.029998548827938586,0.08651377890672736
0.551,0.0095,-1.421,0.0066500842144221785,0.9738467700065986,0.031081231295287635,0.08651377890672733
0.552,0.0117,-0.421,0.006672913398829119,0.9738067298233082,0.03133605985194717,0.08650296913732619
0.553,0.0081,0.579,0.006699369093703385,0.9738067298233082,0.03163136897995022,0.08650296913732619
0.554,0.0088,0.579,0.006821865733983654,0.9423723223014391,0.0329987258456985,0.07801652705217567
0.555,0.0049,-0.421,0.0068607731576881765,0.9424136980344284,0.03343302618903229,0.07802769738396896
0.556,0.0045,0.5789999999998889,0.006882888260952395,0.9424136980344285,0.03367988388419744,0.07802769738396899
0.557,-0.0034,-0.421000000000111,0.006880064180390585,0.9423723223014392,0.03364836035884374,0.07801652705217571
0.558,0.0068,-1.420999999999889,0.00685661684681316,0.9424136980344285,0.03338663177202513,0.07802769738396899
0.559,-0.0055,-0.421000000000111,0.006866051655052769,0.9424550719509373,0.03349194690388451,0.0780388672253615
0.56,-0.0041,-1.420999999999778,0.006870037181903944,0.9424550719509373,0.03353643496079048,0.0780388672253615
0.561,-0.0084,0.5789999999998889,0.006852566331663843,0.9424550719509373,0.0333414182895446,0.0780388672253615
0.562,-0.0018,-0.42099999999977794,0.006903099808457483,0.9424136980344284,0.03390549332283385,0.07802769738396896
0.5630000000000001,-0.01299999999999951,1.578999999999889,0.0069332598252595376,0.9529247577011563,0.03424215158506062,0.08086539995727782
0.5640000000000001,-0.008599999999999879,0.579,0.0069233635647934,0.9529247577011563,0.034131685537480486,0.08086539995727782
0.5650000000000001,-0.007499999999999301,0.5789999999998889,0.006963598094608433,0.9528838383752177,0.034580799574052155,0.08085435284307663
0.5660000000000001,-0.0011999999999993893,-0.421,0.0070697521981813545,0.9528838383752177,0.03576573445892482,0.08085435284307663
0.5670000000000001,0.004299999999999922,-0.421,0.007076023934383972,0.9528429172920206,0.03583574210596877,0.08084330525446304
0.5680000000000001,0.0036000000000004995,-0.421,0.0070708445729151725,0.9423723223014391,0.03577792798593779,0.07801652705217567
0.5690000000000001,0.0080999999999994,-0.42099999999988896,0.007077506908658613,0.9209471093623818,0.03585229566247056,0.07223229750552901
0.5700000000000001,0.0026999999999999225,0.5789999999996669,0.007140429863474032,0.9209894476301269,0.03655466704247885,0.07224372769574192
0.5710000000000001,0.0020000000000004107,-2.4209999999997778,0.007215315185650116,0.8876866617431447,0.037390567187878455,0.06325287385167246
0.5720000000000001,0.005699999999999112,-0.421,0.007226551600404731,0.8876866617431446,0.037515992577717434,0.06325287385167243
0.5730000000000001,-0.002299999999999145,-0.421,0.0074043446893606365,0.8764380059324943,0.03950059068841035,0.060216040216221775
0.5740000000000001,0.005399999999999723,1.579,0.007397892360709414,0.8649980130879181,0.03942856719567515,0.0571275507429435
0.5750000000000001,0.0029000000000002886,-2.421,0.007349626338900131,0.8650430897066143,0.03888980240872033,0.05713972021404592
0.5760000000000001,0.005499999999998989,-0.421,0.0073521893844738385,0.8534503684762723,0.03891841215633803,0.05400999819647178
0.577,-0.0036,-0.421,0.007270616257977358,0.853404679533201,0.03800786004388568,0.053997663414305556
0.578,-0.0148,0.579,0.0072319526847865806,0.8533589881439382,0.03757628165825965,0.053985327971733624
0.579,-0.0071,-0.421,0.007316326766584974,0.8414663355356572,0.038518099162595104,0.05077463257278978
0.58,-0.0162,-1.421,0.007338371855024948,0.8414199958621663,0.038764175324075605,0.05076212211096379
0.581,-0.0023,0.579,0.007334164066232003,0.8294971933887464,0.038717206289802596,0.04754328706172755
0.582,-0.0041,0.579,0.007237191630348056,0.8294971933887464,0.037634760879945856,0.04754328706172755
0.583,-0.0026,-0.421,0.007114148085492905,0.8294971933887464,0.03626129924492666,0.04754328706172755
0.584,0.0018,0.579,0.007117864932876874,0.829450185024205,0.036302788193340096,0.0475305960713559
0.585,0.0083,-0.421,0.007139217900895835,0.829450185024205,0.03654113862775224,0.0475305960713559
0.586,0.0048,-0.421,0.007093744524624685,0.8414663355356573,0.03603354647574832,0.05077463257278981
0.587,0.0037,-0.421,0.007144009584843037,0.8414663355356573,0.03659462533505059,0.05077463257278981
0.588,0.0012,-0.421,0.00720554936383007,0.8048798920525031,0.03728155714903362,0.040897279754690354
0.589,-0.005,-0.421,0.007139994203042111,0.8414199958621663,0.03654980402516377,0.05076212211096379
0.59,-0.0042,-0.421,0.0071461928989028254,0.8414663355356573,0.03661899636647567,0.05077463257278981
0.591,0.0071,-0.421,0.007122443020762049,0.8414199958621663,0.03635389065531351,0.05076212211096379
0.592,-0.0078,-0.421,0.007100115807085405,0.8414663355356573,0.036104665298243,0.05077463257278981
0.593,-0.006,0.579,0.006999001071561489,0.8414663355356573,0.03497598187043132,0.05077463257278981
0.594,-0.0041,-0.421,0.007000081040674002,0.8532218992950709,0.03498803692089975,0.05394831768052253
0.595,-0.0121,-0.421,0.006979732105952538,0.8532218992950709,0.0347608939107862,0.05394831768052253
0.596,-0.0078,1.579,0.006992134491982261,0.8648176831179902,0.03489933434189191,0.05707886651547888
0.597,-0.0012,0.579,0.007077800705752654,0.8648176831179902,0.035855575144036374,0.05707886651547888
0.598,-0.0048,-0.421,0.007091020931244622,0.8414199958621663,0.03600314462881428,0.05076212211096379
0.599,0.0053,-0.421,0.007092402324232112,0.8294971933887465,0.03601856429405097,0.04754328706172758
0.6,0.0119,-0.421,0.007093907735340748,0.8294971933887465,0.036035368299536,0.04754328706172758
0.601,0.0057,-0.421,0.0070987335884090605,0.8294501850242051,0.03608923641633456,0.047530596071355936
0.602,0.0112,-0.421,0.007096069207898001,0.8531761981171114,0.0360594955273075,0.05393597959526656
0.603,0.0137,-0.421,0.0070911612356076735,0.8532218992950709,0.036004710762658224,0.05394831768052253
0.604,0.0093,0.579,0.0070480477685277735,0.8532218992950709,0.03552346086810573,0.05394831768052253
0.605,0.0115,0.579,0.007000730514551416,0.8877745086692492,0.03499528661006163,0.06327659015204255
0.606,-0.0009,-0.421,0.006987142700009551,0.9210741183272305,0.034843613948168005,0.0722665864999608
0.607,0.0009,0.579,0.006972919282642985,0.9210741183272312,0.03468484643139302,0.07226658649996098
0.608,-0.0039,0.579,0.006966627738189426,0.9211164507571258,0.0346146176766692,0.07227801511411171
0.609,-0.0024,-0.421,0.006933346332374135,0.9102809921456378,0.034243117212336686,0.0693527335764061
0.61,-0.0036,-0.421,0.006918247344064541,0.9427859979184056,0.03407457621983486,0.07812820830982249
0.611,-0.0098,-0.421,0.0069256250754990735,0.9322024494053044,0.03415692943138069,0.07527093570338549
0.612,-0.0087,-1.421,0.00690005275032933,0.9321606204266145,0.033871480832023244,0.0752596430074794
0.613,-0.0095,-0.421,0.006905474298544687,0.9321606204266157,0.033931998338122125,0.07525964300747973
0.614,-0.0121,-0.421,0.006894478686285702,0.9212857610252628,0.033809260882784326,0.07232372431935016
0.615,-0.0143,-0.421,0.006851024381499733,0.9212857610252628,0.03332420642039689,0.07232372431935016
0.616,-0.006,-0.421,0.006844764140837165,0.9319932857385079,0.03325432709120376,0.07521446715555773
0.617,-0.0028,0.579,0.006843893450909768,0.942744638525141,0.03324460809934046,0.07811704238931413
0.618,0.0081,-1.421,0.006830174274994287,0.9427859979184132,0.033091469128855064,0.07812820830982456
0.619,0.0095,0.579,0.006886993620346524,0.9427859979184132,0.033725709560241145,0.07812820830982456
0.62,0.0106,-0.421,0.0069210501786798224,0.9532929525953184,0.03410586258937114,0.08096480264661375
0.621,0.0043,-0.421,0.006981262613409102,0.9637662776166339,0.03477797805182079,0.08379231788355647
0.622,0.0166,0.579,0.0069849215784450825,0.9322024494053169,0.03481882089413902,0.07527093570338887
0.623,-0.0016,-0.421,0.006961393553224719,0.9322442765071781,0.034556191594682685,0.07528222789260185
0.624,0.0005,0.579,0.006984070802470756,0.9322442765071781,0.03480932418984536,0.07528222789260185
0.625,0.0027,-0.421,0.006967061047169913,0.9213704044922179,0.034619454446135726,0.07234657577216347
0.626,0.0008,-0.421,0.006982841435119209,0.8883453019426124,0.034795601496024384,0.06343068893865465
0.627,0.0026,-0.421,0.0069615096422844585,0.8883453019426124,0.03455748742755214,0.06343068893865465
0.628,-0.0124,-0.421,0.00695419442199509,0.8883453019426124,0.03447583199060102,0.06343068893865465
0.629,-0.0066,-0.421,0.006857331115303857,0.8883453019426124,0.033394604724773125,0.06343068893865465
0.63,-0.0049,-0.421,0.0068523748375826955,0.899618443724755,0.033339280755437475,0.06647413312589712
0.631,-0.0096,-0.421,0.006685064640306062,0.9215396681025895,0.03147169690634188,0.07239227238106385
0.632,-0.0021,-0.421,0.006728366005286811,0.9214973551147665,0.03195504419298772,0.07238084901574801
0.633,-0.0032,-0.421,0.006724571530622997,0.9214973551147677,0.03191268873759234,0.07238084901574834
0.634,0.0055,-0.421,0.006721099940191204,0.9536201176007454,0.03187393744611922,0.08105312837277583
0.635,0.0022,1.579,0.0067819862559138485,0.9536201176007448,0.03255357503979522,0.08105312837277567
0.636,0.0087,-0.421,0.006735960778493113,0.9536201176007437,0.03203982011225928,0.08105312837277538
0.637,0.0094,-0.421,0.006729492241599916,0.9641303322160798,0.031967615696595134,0.0838906028050038
0.638,0.0017,2.579,0.006719326626445305,0.9641303322160798,0.03185414300343056,0.0838906028050038
0.639,-0.0031,0.579,0.006718155848096973,0.9641303322160804,0.03184107430367522,0.08389060280500395
0.64,0.0012,-0.421,0.006751827283675556,0.9744071598135761,0.03221692843741013,0.08666506903804966
0.641,-0.0043,0.579,0.006758025454325472,0.9846955275120286,0.03228611491610743,0.08944265078705853
0.642,-0.0036,0.579,0.006731610378450448,0.984695527512028,0.03199125919374364,0.08944265078705838
0.643,-0.0014,-1.421,0.006686953090503351,0.9847351249474701,0.03149277654850169,0.08945334102648361
0.644,-0.0029,-0.421,0.006669901491456832,0.9846955275120263,0.03130243972803951,0.08944265078705789
0.645,-0.0044,-1.421,0.006658295684530292,0.9948775053786387,0.031172891033910067,0.0921915101513445
0.646,-0.0124,0.579,0.0066133793483844515,0.9949166975739943,0.030671516788275635,0.09220209098687776
0.647,-0.0048,-1.421,0.006569932059121069,0.9847747207907113,0.030186540635978608,0.08946403083605757
0.648,-0.0023,-0.421,0.006618013673446337,0.9847747207907107,0.03072324699227943,0.08946403083605742
0.649,0.002,0.579,0.006624230035121622,0.9847747207907118,0.030792636526533006,0.08946403083605772
0.65,0.0042,-0.421,0.006619576692191289,1.014704529359246,0.030740694037417273,0.09754427179048956
0.651,0.0093,-2.421,0.006543641644659661,1.014742955780077,0.02989307643455296,0.09755464588755801
0.652,0.0114,0.579,0.006567867238830691,1.014742955780077,0.030163492279761454,0.09755464588755801
0.653,0.0023,0.579,0.006481598315197798,1.0440005840585749,0.029200523787235783,0.10545341629579923
0.654,0.0034,2.579,0.006339525768188477,1.0440005840585749,0.02761465276136054,0.10545341629579923
0.655,0.0023,2.579,0.00627957675214513,1.0439632345593048,0.02694547768444272,0.10544333293850217
0.656,-0.001,0.579,0.006172365297375549,1.0439258837237473,0.025748740219393558,0.10543324922044352
0.657,0.0015,0.579,0.006175207569403133,1.0439632345593048,0.025780466805219508,0.10544333293850217
0.658,0.0008,0.579,0.006191173453972305,1.0439632345593048,0.02595868444313556,0.10544333293850217
0.659,0.0029,2.579,0.00619123674562932,1.0439632345593046,0.0259593909301181,0.10544333293850211
0.66,0.0051,0.579,0.006206605789949322,1.0534615563504945,0.026130946396642426,0.10800762360410406
0.661,0.0058,-0.421,0.006210389612181492,1.0628750003200222,0.026173182945302798,0.11054899954744347
0.662,-0.0033,-0.421,0.006162201384062295,1.0629116852817106,0.025635286522868082,0.11055890349751946
0.663,-0.0124,-0.421,0.006141798494347546,1.0535355805641522,0.02540754124537527,0.1080276081449823
0.664,-0.0037,0.579,0.006097790171359131,1.0535355805641522,0.024916302608539213,0.1080276081449823
0.665,-0.0069,-1.421,0.006189235643869745,1.0535355805641522,0.02593705382582075,0.1080276081449823
0.666,-0.0004,1.579,0.006034708488536169,1.0630584124688935,0.024212159442542302,0.11059851588008078
0.667,0.0004,0.579,0.006027353313464025,1.0630950911014516,0.02413005801420381,0.1106084181214623
0.668,0.0095,-0.421,0.006026102987791939,1.0630584124688935,0.024116101375162638,0.11059851588008078
0.669,0.0106,-1.421,0.006001291817785766,1.0536836133902447,0.023839149096491426,0.10806757301482951
0.67,0.0095,1.579,0.005946263152083336,1.0630584124688935,0.02322489695301199,0.11059851588008078
0.671,0.003,-0.421,0.00585018937469334,1.0630950911014516,0.02215248273142993,0.1106084181214623
0.672,0.0005,0.579,0.005849453439579671,1.0630950911014514,0.02214426792710454,0.11060841812146224
0.673,0.006,-0.421,0.005649080288091022,1.0724966932942603,0.0199076220585096,0.11314659710452052
0.674,0.0024,-0.421,0.0056475994322410464,1.08185263595989,0.019891092148717666,0.11567244924690989
0.675,-0.0056,0.579,0.005675570317001998,1.08185263595989,0.02020331443686724,0.11567244924690989
0.676,0.001,-0.421,0.005677652607820577,1.08185263595989,0.02022655780616091,0.11567244924690989
0.677,-0.0016,-0.421,0.005681891569236243,1.08185263595989,0.0202738748018115,0.11567244924690989
0.678,-0.0092,0.579,0.005681844099625079,1.0818886774231817,0.02027334492688113,0.11568217946977723
0.679,-0.0066,1.579,0.005549882944961835,1.0819247176858473,0.01880034133732945,0.11569190936850786
0.68,-0.0059,-2.421,0.0056207421835892755,1.0819247176858473,0.019591300715621332,0.11569190936850786
0.681,-0.008,-0.42099999999988896,0.005649095331759356,1.0910926222537118,0.019907789981998235,0.11816699629684399
0.682,0.0033,0.579000000000222,0.005732631225777972,1.0911283585076508,0.020840251296540702,0.11817664412141908
0.683,-0.0014,2.578999999999778,0.005730561230500509,1.1002195736926703,0.020817145175032144,0.12063102698508954
0.684,0.0092,0.5789999999998889,0.005731753098677748,1.1002195736926703,0.020830449287957093,0.12063102698508954
0.685,0.0027,-0.42099999999977794,0.005809005353266595,1.1002550135035063,0.021692770086837055,0.12064059477802341
0.686,0.0038,1.578999999999778,0.005821697957597672,1.091056884829275,0.021834450051582344,0.11815734815626602
0.687,0.0006,-0.421,0.005782234984384143,1.0910926222537118,0.02139394844073897,0.11816699629684399
0.6880000000000001,-9.999999999906741e-05,-0.421000000000111,0.005721777041830232,1.118180281318823,0.020719092521009553,0.1254799335525706
0.6890000000000001,0.008299999999999634,-1.420999999999667,0.0058211904891677085,1.0909496655318263,0.021828785484454025,0.11812840183820433
0.6900000000000001,0.004999999999999001,1.578999999999778,0.005818833961987864,1.1001132474100668,0.02180248097837688,0.12060232175694689
0.6910000000000001,-0.003999999999999589,-0.42099999999988896,0.005817957125821334,1.1001132474100668,0.021792693379715407,0.12060232175694689
0.6920000000000001,-0.0003000000000003663,0.5789999999998889,0.0058045068630275766,1.1001132474100668,0.021642556125868413,0.12060232175694689
0.6930000000000001,-0.003599999999999711,-0.42099999999977794,0.005812343289587739,1.1001132474100668,0.021730029477263643,0.12060232175694689
0.6940000000000001,-0.0010000000000009216,1.578999999999889,0.005844248094987042,1.0910568848292748,0.02208616377297401,0.11815734815626597
0.6950000000000001,-0.009299999999999156,0.579,0.006001575296679237,1.0910926222537116,0.023842313402144183,0.11816699629684392
0.6960000000000001,-0.0017000000000007105,0.579,0.006031947490223523,1.081960756748007,0.024181340066676344,0.11570163894313426
0.6970000000000001,-0.008099999999999722,0.5789999999998889,0.005905583822016503,1.0819247176858473,0.02277081787677235,0.11569190936850786
0.6980000000000001,-0.0055999999999999115,-0.42100000000022203,0.005925007740043459,1.072678460277226,0.022987635477754082,0.11319566928674175
0.6990000000000001,-0.004799999999998745,-2.4209999999996668,0.00593595090615537,1.072678460277226,0.023109787508062096,0.11319566928674175
0.7000000000000001,0.006500000000000166,0.5789999999998889,0.00593241264402292,1.0726784602772257,0.023070292000197116,0.1131956692867417
0.7010000000000001,0.007999999999999523,-0.421,0.005921817828812305,1.0727148099778614,0.022952028403037037,0.11320548272537714
0.7020000000000001,0.003699999999999878,2.579,0.005855432109236827,1.0444486738715686,0.02221100424726033,0.1055743884580476
0.7030000000000001,0.0025999999999993225,-0.421,0.005754554846608232,1.0540166112330476,0.02108497158760934,0.1081574734497418
0.704,-0.0035,-0.421,0.005754154264933978,1.0540166112330476,0.021080500133524305,0.1081574734497418
0.705,-0.0002,-0.421,0.0058417654966709505,1.0540166112330478,0.022058452010066582,0.10815747344974186
0.706,0.002,0.579,0.00587830692499617,1.0250449080629782,0.02246634215946511,0.10033589510792275
0.707,-0.0046,0.579,0.00593248753233031,1.0250449080629782,0.02307112793366468,0.10033589510792275
0.708,0.0038,0.579,0.005939931946126478,1.0250449080629782,0.023154225480604515,0.10033589510792275
0.709,0.0049,-1.421,0.00601410565500415,1.025044908062978,0.023982182311582476,0.10033589510792269
0.71,0.0041,-1.421,0.006009705056984446,1.0051890995894064,0.02393306106301702,0.09497536243214134
0.711,-0.006,0.579,0.006006325603350864,1.01512713998616,0.023895338239617255,0.0976583652597996
0.712,-0.0071,0.579,0.006075298143582101,1.0250068678514892,0.024665237530059038,0.10032562527695858
0.713,-0.006,-0.421,0.006091011707277796,1.0347922728494638,0.02484063866069839,0.10296742066429905
0.714,-0.0161,-0.421,0.006032790356959258,1.0348299533508287,0.024190748484861368,0.10297759338323291
0.715,-0.0038,1.579,0.00610010972320923,1.0348299533508287,0.02494219438108444,0.10297759338323291
0.716,-0.0052,0.579,0.00607713691505317,1.0251590202281777,0.024685762638255927,0.10036670231434149
0.717,0.0024,-0.421,0.006080478604428029,1.0152807729633013,0.02472306392178058,0.09769984201936541
0.718,0.006,0.579,0.006080328077087108,1.0152807729633013,0.024721383674937727,0.09769984201936541
0.719,0.005,-1.421,0.006041547348489954,1.0153191775752481,0.02428849755345134,0.09771021022862345
0.72,-0.0005,0.579,0.005961344881514534,1.0054605993052126,0.023393245294957725,0.09504866003168164
0.721,0.0042,-0.421,0.005962955892367806,0.9954260556927763,0.023411228047349766,0.09233960393897135
0.722,0.0068,1.579,0.005955126149581327,0.9954260556927763,0.02332382930293,0.09233960393897135
0.723,-0.0009,1.579,0.005955802074217155,0.9954260556927763,0.023331374246117115,0.09233960393897135
0.724,0.0056,0.579,0.005928860042760115,0.9954652262913043,0.023030636433180356,0.09235017894394376
0.725,0.0031,-0.421,0.005924714247551166,1.0055381571881976,0.022984359396275734,0.09506959856795726
0.726,0.0023,-0.421,0.0059100232899592904,1.0055381571881976,0.022820373007084095,0.09506959856795726
0.727,-0.0027,0.579,0.005990698702883417,1.0055769338864906,0.02372090447885745,0.0950800672304917
0.728,-0.0021,0.579,0.005993694966133112,1.0055769338864906,0.023754349976764053,0.0950800672304917
0.729,-0.0111,-0.421,0.005975241556672558,1.0055381571881974,0.023548365583521743,0.09506959856795719
0.73,-0.0075,-1.421,0.005973083961950938,1.0054218181201748,0.023524281641714363,0.09503819015784713
0.731,-0.0137,0.579,0.005995959344194003,1.0054218181201748,0.02377962587723875,0.09503819015784713
0.732,-0.0014,-1.421,0.005944393188614179,1.0054605993052133,0.023204023667161865,0.09504866003168182
0.733,0.0033,-0.421,0.005934935058792842,1.0152807729633009,0.023098448210408486,0.09769984201936528
0.734,0.0109,0.579,0.005941793682086809,0.9952301795748013,0.02317500692768538,0.09228672267089265
0.735,0.0044,-0.421,0.00589741942986358,0.9951909997248634,0.02267968364125847,0.09227614516828911
0.736,0.0055,0.579,0.005977868273983511,1.0052666784190223,0.023577686060730702,0.09499630662344226
0.737,0.0044,-2.421,0.006019562822631199,0.9951909997248677,0.024043097415909518,0.09227614516829027
0.738,0.0108,0.579,0.006020314565321793,0.9952301795748062,0.024051488670779105,0.09228672267089397
0.739,0.0025,1.579,0.00606507548467386,1.0250449080629873,0.024551128091527458,0.1003358951079252
0.74,-0.0008,-0.421,0.006044002614939623,1.0152807729633155,0.024315904227050836,0.09769984201936925
0.741,-0.0016,0.579,0.006030569131525561,1.0053054655888207,0.024165954271402196,0.09500677811300072
0.742,0.0046,0.579,0.006017899143463509,1.0151655504101966,0.024024526758566266,0.09766873503816507
0.743,-0.0063,0.579,0.006027701419781657,1.0151271399861788,0.024133943717210327,0.09765836525980463
0.744,-0.014,0.579,0.006046564324878389,1.0151655504101982,0.024344499065773045,0.0976687350381655
0.745,-0.0075,0.579,0.006045843328982921,1.015050314777689,0.024336451019021817,0.09763762452587879
0.746,-0.0013,-0.421,0.006056942323718842,1.0247785969291352,0.02446034247123097,0.10026399828555009
0.747,-0.0068,-0.421,0.006064500565545134,1.0345284709118288,0.024544710612516483,0.10289620125721675
0.748,-0.0043,-0.421,0.006132369021263854,1.034490779429207,0.025302285666676336,0.10288602557363978
0.749,0.0001,0.579,0.006123402793428266,1.034490779429206,0.025202201018127576,0.10288602557363948
0.75,0.0023,0.579,0.006105044690154656,1.0051890995894357,0.02499728047095295,0.09497536243214925
0.751,0.003,-0.421,0.006103979070313161,1.0051890995894364,0.024985385592830485,0.09497536243214943
0.752,0.0037,1.579,0.006055575160528882,1.0052278897526377,0.02444508164472902,0.09498583472984591
0.753,0.0022,0.579,0.006090958650940087,0.974847240099854,0.02484004642447484,0.08678387884414242
0.754,0.0106,2.579,0.006087965118088605,0.974847240099854,0.02480663140437345,0.08678387884414242
0.755,0.0069,-0.421,0.006149782277325574,0.9748472400998539,0.025496659448492307,0.08678387884414239
0.756,0.008,0.579,0.006152269129340122,0.9748472400998539,0.025524418692896168,0.08678387884414239
0.757,0.0033,0.579,0.006172110766395635,0.9849726761306884,0.025745899042018128,0.08951747343798966
0.758,0.0094,0.579,0.006178604934055358,1.0150503147776826,0.02581838955862761,0.09763762452587706
0.759,0.0018,-1.421,0.006167145252611298,1.0150118999928779,0.02569047197602312,0.0976272535702218
0.76,-0.0048,1.579,0.006150282781081044,1.0051890995894204,0.025502246273117122,0.09497536243214512
0.761,-0.0109,1.579,0.006195440717639244,0.9952301795748095,0.02600631735992084,0.09228672267089487
0.762,-0.0055,1.579,0.006445446680125292,0.9952301795748091,0.028796984667213237,0.09228672267089474
0.763,-0.0091,0.579,0.006479021398271776,0.99519099972487,0.029171759201993306,0.09227614516829091
0.764,-0.0098,0.579,0.006540552708829132,0.995230179574808,0.029858596487951444,0.09228672267089445
0.765,-0.0044,-0.421,0.006494384751172357,0.995230179574808,0.02934325113860037,0.09228672267089445
0.766,-0.0021,-0.421,0.00652733073573053,0.9850518471279903,0.029711007495683995,0.08953884747161694
0.767,0.0001,0.579,0.0065086268227864735,0.9850122624247605,0.029502226881604303,0.08952816066954554
0.768,0.0066,0.579,0.006526746437476121,0.9850518471279898,0.029704485323092302,0.08953884747161679
0.769,0.0041,-0.421,0.006524031615896249,0.9850518471279887,0.02967418139052708,0.0895388474716165
0.77,0.0096,0.579,0.006567004905756674,0.9850518471279853,0.03015386657046346,0.0895388474716156
0.771,-0.0001,-0.421,0.006567180931711925,0.9850518471279853,0.030155831443115573,0.0895388474716156
0.772,0.001,0.579,0.006581295358301442,0.9850914302405513,0.030313382360913153,0.08954953384425067
0.773,0.0021,0.579,0.00663326808849242,0.9748472400998284,0.030893522920651943,0.08678387884413549
0.774,0.001,1.579,0.006663105758371924,0.9949950773334326,0.0312265830166213,0.09222325140762559
0.775,0.0036,0.579,0.006639109717977936,0.9949558882255254,0.030958729543183804,0.09221267140562009
0.776,0.0098,0.579,0.006657405850058109,0.9949558882255243,0.031162958342922504,0.09221267140561978
0.777,-0.0025,-0.421,0.006667411096428107,1.005033923965195,0.031274640935083545,0.09493346919947965
0.778,-0.0079,-0.421,0.006670060693950707,1.0050339239651955,0.031304216810435784,0.09493346919947977
0.779,-0.0064,-1.421,0.006670703808823878,1.0149734837541313,0.03131139551782958,0.09761688222204146
0.78,-0.0079,-2.421,0.0066019579741997585,1.0149734837541313,0.030544026806738275,0.09761688222204146
0.781,-0.0013,0.579,0.006577713411222349,1.0150887281087089,0.03027339922406843,0.09764799508905135
0.782,-0.0002,-1.421,0.006447967170108191,1.0249307831929315,0.02882511939217616,0.10030508447153799
0.783,0.0031,-1.421,0.006456303641525548,1.0250449080629755,0.028918174445788706,0.10033589510792203
0.784,0.0057,-0.421,0.006447582557730503,1.0250449080629755,0.02882082619381512,0.10033589510792203
0.785,0.0101,1.579,0.006364336402748435,1.0250068678514863,0.02789159906316532,0.1003256252769578
0.786,0.008,-0.421,0.006473624366645804,1.0250068678514863,0.029111515359945477,0.1003256252769578
0.787,0.0011,0.579,0.006479048811995224,1.0249688262281906,0.029172065205022336,0.10031535506484392
0.788,0.0073,2.579,0.006535426746767642,1.0054218181201722,0.029801378433625157,0.09503819015784641
0.789,0.0066,-0.421,0.006533773227194336,1.0349053102377586,0.02978292118176881,0.10299793770994568
0.79,0.003,-0.421,0.006579510813913773,1.0251209842511626,0.03029346255727504,0.10035643362657104
0.791,-0.0006,-1.421,0.006581993418064719,1.0251209842511626,0.03032117438531345,0.10035643362657104
0.792,-0.0035,-0.421,0.0065855345136102954,1.025082946862815,0.030360701520877633,0.10034616455777892
0.793,-0.006,0.579,0.006613514207203655,1.025082946862815,0.030673022136764566,0.10034616455777892
0.794,-0.0002,-1.421,0.006588539720741464,1.0250449080629755,0.030394246853993685,0.10033589510792203
0.795,-0.01,-1.421,0.006473468826154161,1.0250068678514863,0.029109779154293934,0.1003256252769578
0.796,-0.0035,1.579,0.006513194568122614,1.0249688262281906,0.029553213895877277,0.10031535506484392
0.797,-0.0122,-0.421,0.006514081882380993,1.0249688262281906,0.029563118455222696,0.10031535506484392
0.798,-0.0045,-0.421,0.006586451525228097,1.0249688262281906,0.03037093757411716,0.10031535506484392
0.799,0.0002,0.579,0.006578487391767627,1.0250068678514863,0.030282038706833995,0.1003256252769578
0.8,0.0064,0.579,0.006587019208906763,1.0347545909759637,0.03037727428811863,0.10295724757492566
0.801,0.0024,0.579,0.006597866003167935,1.0347545909759637,0.030498350576990213,0.10295724757492566
0.802,0.0075,0.579,0.006628441967335574,1.034792272849461,0.030839651811341122,0.10296742066429827
0.803,-0.0019,-0.421,0.006623120937800171,1.0250068678514863,0.03078025633525757,0.1003256252769578
0.804,0.0093,-0.421,0.0066526520115786116,1.0346415371211788,0.031109894081986635,0.10292672608377088
0.805,0.0017,-0.421,0.006607831937506848,1.0051503079292354,0.03060959435241729,0.09496488973030344
0.806,0.0053,-1.420999999999556,0.0066037415305626465,1.0150118999928608,0.030563935581645604,0.09762725357021718
0.807,0.0053,2.578999999999667,0.006559408693962855,1.0150118999928608,0.03006907459309827,0.09762725357021718
0.808,-0.0009,-0.42099999999988896,0.006560954957696858,1.0149734837541313,0.03008633461205152,0.09761688222204146
0.809,-0.002,0.5789999999998889,0.0064925652682253365,1.0149350660613112,0.029322941336682312,0.09760651048130048
0.81,-0.0086,-0.42099999999988896,0.006490067000346342,1.0051115147719267,0.029295054663798833,0.09495441662427874
0.811,-0.0188,0.5789999999998889,0.006496405794381176,0.9950734509190756,0.02936581083739072,0.09224441016161522
0.812,-0.0097,-0.42099999999988896,0.006442785514502341,0.9848934987691609,0.028767279664062874,0.08949609768619313
0.8130000000000001,-0.010800000000000367,0.5789999999998889,0.006575879372754138,0.974607220941606,0.030252926947556866,0.08671908014595218
0.8140000000000001,-0.014099999999999278,-0.421,0.006521960569413508,0.9745672120015124,0.029651063535041565,0.0867082788113714
0.8150000000000001,-0.007599999999999323,-0.421,0.006495088392645069,0.9745272014188632,0.029351105468290856,0.08669747703334489
0.8160000000000001,-0.0015000000000004441,-0.42099999999988896,0.006493781146928307,0.9848143150419374,0.029336513464771865,0.0894747202158304
0.8170000000000001,-0.005499999999998756,0.579,0.00650723255369107,0.9848539077013604,0.02948666348806193,0.08948540916585934
0.8180000000000001,0.005699999999998357,0.5789999999997779,0.00651691810280033,0.9848143150419374,0.029594777490558548,0.0894747202158304
0.8190000000000001,-0.009099999999998923,-1.420999999999778,0.0065603633747984185,0.9848143150419375,0.03007973112532739,0.08947472021583044
0.8200000000000001,0.0006000000000005995,0.579,0.0065573297711929,0.9949950773334305,0.03004586881932068,0.09222325140762502
0.8210000000000001,0.006000000000000522,0.579,0.0065149994243605645,1.0050339239651958,0.02957336042857404,0.09493346919947983
0.8220000000000001,0.01069999999999951,0.5789999999996669,0.006529537910897861,1.0050727201173049,0.02973564487440764,0.09494394311401987
0.8230000000000001,0.006299999999999267,-2.4209999999997778,0.0065383023135589,1.0050727201173046,0.029833476669021235,0.0949439431140198
0.8240000000000001,-0.0002999999999993227,-0.421,0.006547319338844976,1.0050339239651933,0.029934128339184036,0.09493346919947916
0.8250000000000001,0.005799999999998867,-0.42099999999977794,0.00654662733451561,1.0050339239651935,0.029926403907977427,0.09493346919947923
0.8260000000000001,-0.004399999999999878,1.578999999999889,0.006570208124249884,1.034339999763856,0.03018962218620248,0.102845319131289
0.8270000000000001,-0.003299999999999889,0.579000000000111,0.006496563366565681,1.0343023014130706,0.029367569721616776,0.10283514159349307
0.8280000000000001,-0.0023000000000003664,1.579,0.006501094815195294,1.034339999763855,0.029418151577423682,0.10284531913128869
0.8290000000000001,-0.005599999999999922,-0.421,0.0064542804460066055,1.034339999763855,0.028895590722045363,0.10284531913128869
0.8300000000000001,-0.004899999999999922,1.579,0.0064995514975253925,1.0246644423979057,0.029400924443625222,0.10023317964144608
0.8310000000000001,-0.004199999999999933,1.579,0.006462893080155765,0.9950342648978726,0.02899172841536566,0.09223383099293658
0.8320000000000001,-0.0035999999999996,1.579,0.006461847134468636,0.994995077333416,0.02898005314808303,0.0922232514076211
0.833,0.0,-0.421,0.00646284508630653,0.9849330882455162,0.028991192688678665,0.08950678577687965
0.834,0.0036,-0.421,0.00645749702975855,0.9849330882455128,0.028931495526188667,0.08950678577687875
0.835,0.0126,-0.421,0.006431961478213851,0.9849330882455128,0.028646457408853975,0.08950678577687875
0.836,0.0061,-0.421,0.006433547904165424,0.984814315041906,0.028664165734665372,0.08947472021582192
0.837,0.0096,1.579,0.006417522586145656,1.0149350660612808,0.028485284676621696,0.09760651048129226
0.838,0.0107,2.579,0.006419429930047762,1.0148966469142042,0.02850657521792896,0.09759613834794127
0.839,0.0081,-0.421,0.006386507941448217,0.9848143150419048,0.028139086713406068,0.08947472021582159
0.84,0.0019,-0.421,0.006352958336632861,0.984814315041906,0.027764592503748894,0.08947472021582192
0.841,0.0026,-0.421,0.006364925216239127,0.9948775053785963,0.027898171636644074,0.09219151015133305
0.842,0.0076,0.579,0.006364847459781035,0.9949950773333993,0.027897303687722495,0.0922232514076166
0.843,0.0024,-0.421,0.006388214993623602,1.005072720117274,0.02815814151774081,0.09494394311401153
0.844,-0.0067,-0.421,0.0063605441464194435,1.0050339239651649,0.027849268369717236,0.0949334691994715
0.845,-0.0104,-0.421,0.006473570163424986,0.9951126353971471,0.02911091032175046,0.09225498891368998
0.846,-0.0017,-0.421,0.006478246686171574,0.9850518471279442,0.029163111553316853,0.08953884747160451
0.847,-0.0119,-0.421,0.006639466067462516,0.9748072410107834,0.03096270725974184,0.0867730801690721
0.848,-0.0028,0.579,0.006542560153658926,0.9748472400997886,0.029881004396154875,0.08678387884412476
0.849,0.0033,1.579,0.006618567201181767,0.9748472400997886,0.03072942569193757,0.08678387884412476
0.85,0.0044,0.579,0.006618613296946986,0.9748472400997886,0.030729940231445835,0.08678387884412476
0.851,0.007,0.579,0.00658788878376016,0.9748472400997886,0.03038698083307655,0.08678387884412476
0.852,0.0026,-0.421,0.006605874958408245,0.9748072410107834,0.030587749763043428,0.0867730801690721
0.853,0.0066,-1.421,0.006626080803427894,0.9849330882454994,0.03081329554823924,0.08950678577687513
0.854,0.0073,0.579,0.006781549675385296,0.9951126353971471,0.032548701751990726,0.09225498891368998
0.855,0.0065,-1.421,0.006764841734008351,0.9951518183323461,0.03236220097693262,0.09226556724923077
0.856,0.0025,0.579,0.006772982153045235,0.9951518183323461,0.03245306761486394,0.09226556724923077
0.857,-0.0037,-0.421,0.006766461087140721,0.9851310117626116,0.03238027684920594,0.08956021978749211
0.858,0.0003,-0.421,0.006764907633357664,0.9541106547619121,0.032362936572027504,0.08118556017401019
0.859,-0.0005,0.579,0.006770359793140439,0.9646155246192364,0.03242379577677857,0.0840215916657507
0.86,-0.0056,0.579,0.006787171307993158,0.964615524619237,0.032611452680714054,0.08402159166575088
0.861,-0.007,-0.421,0.006738013365829335,0.9646559463039485,0.032062731919312186,0.08403250443024465
0.862,-0.0143,-0.421,0.006474683063962485,0.9646559463039491,0.02912333296605615,0.08403250443024483
0.863,-0.0034,-0.421,0.006443303892407094,0.9646963662949539,0.028773066007145374,0.08404341673748351
0.864,-0.0078,-0.421,0.006382729293669837,0.9749272333545977,0.028096907924084247,0.08680547486509853
0.865,-0.0042,1.579,0.00629602347522612,0.9749672275207868,0.02712906263560872,0.08681627221112362
0.866,0.0046,0.579,0.006361892324468325,0.9851310117626235,0.02786431727642334,0.08956021978749532
0.867,0.0035,-0.421,0.0063632554560475426,0.9851705916944389,0.02787953310046143,0.08957090530141351
0.868,0.01,0.579,0.006351027977551698,0.9851705916944389,0.027743045057737736,0.08957090530141351
0.869,-0.0037,1.579,0.006327919848496591,0.98517059169444,0.027485102808498862,0.08957090530141382
0.87,0.0061,1.579,0.006268526222224756,0.9750472109317674,0.02682212721603633,0.08683786557452923
0.871,0.0043,0.579,0.006270368631776241,0.9750472109317674,0.026842692933952993,0.08683786557452923
0.872,-0.0036,0.579,0.006244093892728616,0.9852893219501253,0.026549403707813283,0.08960295926769034
0.873,0.004,-0.4209999999995559,0.006164790085279469,0.9954260556927674,0.02566418264911755,0.09233960393896895
0.874,0.0004,1.579,0.006133209866804265,0.9752871218080085,0.025311671523464613,0.08690263503949851
0.875,0.0066,-2.4209999999995557,0.006142885303743531,0.9753271012166476,0.025419672649844488,0.08691342840138319
0.876,-0.001,-0.421,0.006115663589071298,0.9753271012166487,0.02511581290014559,0.08691342840138348
0.877,-0.0035,0.5789999999997779,0.00610147987389855,0.964938850685076,0.02495748855525824,0.0841088809817799
0.878,-0.001,-0.421,0.0062186429611984975,0.9954260556927752,0.02626531015318375,0.09233960393897105
0.879,-0.01,-0.421,0.006311974700360877,0.9852497467880097,0.02730711663900998,0.0895922750414624
0.88,-0.0038,-0.421,0.006322587497250418,0.9852497467880096,0.027425580954916966,0.08959227504146237
0.881,-0.0005,-0.421,0.006311346596705543,0.9749672275208016,0.027300105492879305,0.08681627221112762
0.882,-0.0012,-0.421,0.006363771441961621,0.9645751012406237,0.027885292743180037,0.08401067844394927
0.883,-0.0018,-1.420999999999778,0.0063546081684022525,0.9541106547619307,0.02778300859085174,0.0811855601740152
0.884,0.0004,-0.421,0.006371633476612365,0.9541515214751584,0.02797305194240256,0.08119659308420367
0.885,0.0102,-1.4209999999991119,0.006414482157325726,0.9541515214751584,0.028451346184821123,0.08119659308420367
0.886,0.0066,2.579,0.006294885535586664,0.9645346761678609,0.027116360494756058,0.08399976476477301
0.887,-0.002,-0.42099999999977794,0.006464702726858375,0.9749272333546125,0.02901192842115954,0.08680547486510252
0.888,0.0034,0.579,0.006400478884968534,0.9645346761678608,0.028295036015360625,0.08399976476477299
0.889,-0.0013,-0.42100000000022203,0.006326619089300318,0.9327878581547264,0.02747058321013568,0.07542898027427979
0.89,0.0049,-1.421,0.006282277483591699,0.9327878581547263,0.026975624337261597,0.07542898027427976
0.891,-0.0005,1.579,0.0062943192365806306,0.9328296590074746,0.02711003923702855,0.07544026537694033
0.892,0.0064,1.579,0.006289058044946067,0.9328714579871767,0.027051311695709224,0.07545154997392896
0.893,0.0002,-0.421,0.006272567131823679,0.9434475016241667,0.02686723347749227,0.07830679646626058
0.894,-0.0121,0.579,0.0062914548207999455,0.943488830206273,0.027078065473706416,0.07831795406858737
0.895,-0.0103,-0.421,0.006256708740389543,0.9435301569781015,0.02669021572126991,0.07832911118218794
0.896,-0.015,0.579,0.006188810404922233,0.94357148193989,0.02593230713731457,0.07834026780712658
0.897,-0.0045,0.579,0.006199833058795048,0.94357148193989,0.026055346442043874,0.07834026780712658
0.898,-0.011,-0.421,0.006152480389235813,0.9436128050918765,0.025526776860990977,0.07835142394346746
0.899,0.0003,0.579,0.006157152210092874,0.9540697862982146,0.02557892560817157,0.08117452679124204
0.9,-0.0011,0.579,0.006149702008712294,0.943488830206273,0.025495763457882098,0.07831795406858737
0.901,0.0054,-0.421,0.006133882597488743,0.943488830206273,0.025319180814479574,0.07831795406858737
0.902,0.0091,-1.421,0.006111700387502144,0.943488830206273,0.02507157404703478,0.07831795406858737
0.903,0.0145,1.579,0.006111700387502144,0.9541106547619308,0.02507157404703478,0.08118556017401522
0.904,0.008,0.579,0.006075528832356952,0.9436128050918765,0.024667812571132992,0.07835142394346746
0.905,0.0037,-0.421,0.006106068662242307,0.9436128050918765,0.025008710460062696,0.07835142394346746
0.906,0.0044,0.579,0.006129377447126349,0.933038635180558,0.025268892510529745,0.0754966833065232
0.907,0.0051,0.579,0.006124098538261589,0.933038635180558,0.025209967202346802,0.0754966833065232
0.908,-0.0029,1.579,0.006113708427523481,0.9330804247988047,0.02509398859900608,0.0755079653761714
0.909,0.0051,0.579,0.0061160949142013065,0.9331222125455151,0.025120627525073567,0.07551924694055526
0.91,0.0025,0.579,0.00613134732819037,0.9330804247988048,0.025290881116841184,0.07550796537617142
0.911,0.0018,0.579,0.006109989043336905,0.9647772011967098,0.025052471333779587,0.08406523998042942
0.912,-0.0073,0.579,0.0060703936089190735,0.9751671737477607,0.02461049113759107,0.0868702522988405
0.913,-0.0062,-1.421,0.005922416309238232,1.0053830354392084,0.022958708882742727,0.09502771988015223
0.914,-0.0094,0.579,0.006079795697206857,1.0053830354392084,0.024715441036161825,0.09502771988015223
0.915,-0.0119,-1.421,0.006120052362091033,1.0152423668985833,0.025164802153295845,0.09768947341789833
0.916,0.0019,0.579,0.006328804679335991,1.0053054655888018,0.0274949796469208,0.09500677811299563
0.917,0.0037,0.579,0.0063116638442507695,1.0151271399861592,0.027303646737831935,0.09765836525979936
0.918,0.0019,0.579,0.006305677455221217,1.0248927387455526,0.02723682425093049,0.10029481349699783
0.919,-0.0027,0.579,0.006370865278597513,1.0248927387455526,0.027964477006572005,0.10029481349699783
0.92,0.0016,0.579,0.006407533432295285,1.0150503147776666,0.028373781715650113,0.09763762452587274
0.921,-0.002,1.579,0.006449079836439585,1.0051115147719285,0.028837539422178923,0.09495441662427921
0.922,0.0041,1.579,0.006436236924925016,1.0051115147719285,0.028694181668076725,0.09495441662427921
0.923,-0.0013,1.579,0.006453999741275708,1.0050727201173064,0.028892457382713257,0.09494394311402028
0.924,0.0034,0.579,0.006441478438528236,1.0050727201173086,0.02875268955527982,0.09494394311402088
0.925,0.0009,-0.421,0.006443170098230841,0.9950342648978912,0.02877157254263012,0.09223383099294159
0.926,-0.0013,-0.421,0.006410844875405711,0.9645346761678747,0.02841074537818173,0.08399976476477673
0.927,-0.0125,-2.421,0.006410705280581855,0.9645346761678747,0.028409187164500225,0.08399976476477673
0.928,-0.0111,-0.421,0.006410175689670642,0.9645346761678759,0.028403275657320703,0.08399976476477705
0.929,-0.0067,-0.421,0.006468860679533972,0.9645346761678759,0.029058341164606438,0.08399976476477705
0.93,-0.0031,-0.421,0.006442387125324312,0.9748072410108317,0.028762832683504286,0.08677308016908515
0.931,-0.0092,-0.421,0.006457100611981844,0.9748072410108317,0.02892707055120614,0.08677308016908515
0.932,0.0009,0.579,0.006456993779552922,0.9748072410108317,0.02892587804458035,0.08677308016908515
0.933,0.0046,0.579,0.006513601563025988,0.9849726761306784,0.029557756937010318,0.08951747343798695
0.934,0.0082,-0.421,0.006522082881250207,0.9748472400998404,0.02965242882905526,0.08678387884413874
0.935,0.0028,-1.421,0.006543061489256275,0.9748472400998404,0.029886600506133974,0.08678387884413874
0.936,0.0159,1.579,0.006497406976897344,0.9646155246192865,0.029376986440119233,0.08402159166576421
0.937,0.0032,-0.421,0.006510792544614455,0.9328714579872099,0.02952640154144816,0.07545154997393791
0.9380000000000001,0.004599999999999845,-0.421,0.0065692106799163895,0.9328714579872112,0.030178488310575482,0.07545154997393824
0.9390000000000001,0.0032000000000001225,-0.421,0.0065615177527668855,0.9328714579872112,0.030092616757433223,0.07545154997393824
0.9400000000000001,0.004299999999999589,0.579,0.006563554760394739,0.9329132550941177,0.030115354657502594,0.07546283406532259
0.9410000000000001,0.0006000000000006106,0.579,0.00654497528510402,0.9222164118776792,0.02990796306665864,0.07257497494511854
0.9420000000000001,0.006099999999999922,-1.421,0.006544873774823569,0.9112656725310253,0.02990682996799894,0.06961857071862552
0.9430000000000001,0.005399999999999312,0.579,0.00651557579629978,0.9001384099832552,0.029579794124441186,0.06661450998955917
0.9440000000000001,-0.0008000000000004441,0.579,0.006532134091379434,0.9001384099832552,0.029764624487220514,0.06661450998955917
0.9450000000000001,-0.0047999999999999215,0.579,0.006420554952474079,0.9000950909343196,0.028519133171642837,0.0666028150148815
0.9460000000000001,-0.0041000000000005555,-0.421,0.0064025032630458155,0.900138409983254,0.028317632939296733,0.06661450998955884
0.9470000000000001,-0.0090999999999994,0.579,0.00627612623286218,0.900095090934322,0.026906961597624797,0.06660281501488215
0.9480000000000001,-0.003699999999999756,-1.421,0.006267337046959175,0.9327042508291187,0.026808853162476574,0.07540640855168025
0.9490000000000001,-0.0014999999999999111,0.579,0.006172720677853942,0.9433235050138251,0.02575270711951402,0.07827332072628722
0.9500000000000001,-0.0006999999999994004,0.579,0.0061726671301001795,0.9539062949339875,0.025752109397906432,0.08113038853309386
0.9510000000000001,0.004699999999999767,0.579,0.00618089535014573,0.9538654177144531,0.025843956106080868,0.08111935278648597
0.9520000000000001,0.0025999999999997557,1.579,0.0062534811998994026,0.9538654177144531,0.026654188613599233,0.08111935278648597
0.9530000000000001,0.00040000000000101033,-0.421,0.006217646818252662,0.9434061712315693,0.026254190804170276,0.07829563837515006
0.9540000000000001,0.009499999999999878,0.579,0.006138072581512488,0.9434061712315693,0.025365951104743337,0.07829563837515006
0.9550000000000001,0.008399999999999033,0.579,0.006121273766497761,0.9747672402804757,0.025178435961517632,0.08676228105091204
0.9560000000000001,-0.00029999999999988895,0.579,0.006195212191047185,0.9747672402804757,0.026003766454002583,0.08676228105091204
0.9570000000000001,0.0006999999999997224,0.579,0.006179413013699546,0.9747272379085807,0.02582740966927737,0.08675148148956771
0.9580000000000001,-0.0018000000000002886,0.579,0.0061776951381137275,0.9849726761306682,0.02580823404967347,0.0895174734379842
0.9590000000000001,-0.004399999999999756,-0.421,0.0061851135540895675,0.9746872338949409,0.02589104139846551,0.08674068148499656
0.96,-0.0022,2.579,0.0061648708612890325,0.9746472282393522,0.02566508430348955,0.08672988103714349
0.961,-0.0,1.579,0.006164424047561153,0.9746472282393488,0.02566009678859013,0.08672988103714256
0.962,-0.0051,-2.421,0.006171254686531478,1.0048399207362768,0.02573634313356867,0.09488109356092493
0.963,-0.0142,-0.421,0.006182466563141045,1.0048011155956027,0.0258614946187436,0.0948706172197148
0.964,-0.0105,-1.421,0.006316886749916877,0.9948383116392769,0.02736194691574186,0.09218092889897118
0.965,-0.0167,0.579,0.00633245263950954,0.9948383116392758,0.027535699648529546,0.09218092889897088
0.966,-0.0,-1.421,0.006273781396918,0.9847747207907015,0.02688078759383178,0.08946403083605493
0.967,0.0022,-1.421,0.00631477444471773,0.9847351249474563,0.027338368513836298,0.0894533410264799
0.968,0.0135,0.579,0.006305772161314391,0.9847351249474564,0.02723788139850967,0.08945334102647992
0.969,0.0077,0.579,0.006308759305451653,0.9847351249474564,0.02727122510520824,0.08945334102647992
0.97,0.0095,0.579,0.006303778801439828,0.9847351249474564,0.027215630712252855,0.08945334102647992
0.971,0.0015,0.579,0.006315222629135615,0.9846955275120138,0.027343371328929954,0.08944265078705453
0.972,0.0059,-0.421,0.006312471093371969,0.9744071598135579,0.027312657577849394,0.08666506903804473
0.973,-0.0006,-0.421,0.00631050529415071,0.9640089959588996,0.027290714534711873,0.08385784528862074
0.974,-0.0016,0.579,0.006316620446421075,0.9534974438788217,0.027358974328799683,0.08102000977699028
0.975,0.0016,0.579,0.0063078717515268855,0.9534974438788217,0.02726131787061,0.08102000977699028
0.976,-0.0009,-0.421,0.006323502688041532,0.9534974438788217,0.027435796683355197,0.08102000977699028
0.977,-0.0034,0.579,0.006337954432594137,0.9535383368730207,0.0275971128801981,0.08103104978233208
0.978,-0.0088,-0.421,0.006263891328559461,0.9216665954106856,0.026770390665052116,0.07242653933037513
0.979,-0.0081,-1.421,0.006294074334528621,0.9217089006291759,0.027107305541626905,0.07243796059818072
0.98,-0.0058,-0.421,0.0062625737310605945,0.9324533838728478,0.02675568311076944,0.0753386812406441
0.981,-0.0003,-0.421,0.006256859255678406,0.9324951997190355,0.026691895833582845,0.07534997039112885
0.982,-0.0087,-1.421,0.00620782857171511,0.9324951997190355,0.026144595579501127,0.07534997039112885
0.983,0.0037,0.579,0.006254120041973748,0.9324533838728478,0.026661319626290578,0.0753386812406441
0.984,0.0052,-0.421,0.0063021635435659435,0.9430341161854568,0.02719760055290516,0.07819519354891548
0.985,0.0067,0.579,0.006391102767441689,0.943075462883435,0.028190376012889862,0.07820635604203897
0.986,0.0078,-0.421,0.006458815438108207,0.9324533838728478,0.028946212131514652,0.0753386812406441
0.987,0.0089,-0.421,0.00635208452300189,0.9215819791476424,0.02775483864384744,0.07240369522188418
0.988,0.0013,0.579,0.0063885691230376185,0.9216242882502637,0.02816209445297651,0.07241511753830036
0.989,0.002,0.579,0.0063908251402868856,0.9216242882502635,0.0281872770267024,0.07241511753830034
0.99,-0.0005,0.579,0.006387250155583984,0.9216242882502637,0.028147371606706606,0.07241511753830036
0.991,0.0002,0.579,0.006380191408918292,0.9324533838728478,0.0280685790317035,0.0753386812406441
0.992,-0.0019,-0.421,0.006431636397804756,0.9431581508416517,0.028642828730318145,0.07822867956024292
0.993,0.0046,-0.421,0.006411378141163089,0.9325788257864762,0.028416697905475134,0.07537254717351773
0.994,-0.0008,-0.42099999999977794,0.006436118084662353,0.932537013690161,0.028692855125171488,0.07536125903539738
0.995,-0.0091,0.579,0.006437092117713661,0.9324951997190355,0.02870372767463182,0.07534997039112885
0.996,-0.008,-0.4210000000004441,0.006463765926217312,0.9324533838728478,0.029001471474867264,0.0753386812406441
0.997,0.0029,-2.421,0.006484212789523314,0.9324533838728477,0.029229707603307294,0.07533868124064408
0.998,-0.0015,-1.420999999999334,0.0064473669970522745,0.9324533838728478,0.028818420018652386,0.0753386812406441
0.999,-0.0003,1.579,0.006438677279526893,0.9217089006291758,0.028721421889621603,0.07243796059818068
1.0,0.0033,-0.421,0.006437389132804416,0.9217089006291758,0.028707043076773832,0.07243796059818068
1.0010000000000001,0.010899999999998956,-0.421,0.00652141921679611,0.9216665954106856,0.02964502073895756,0.07242653933037513
1.002,0.0062,0.579000000000222,0.006505471739267473,0.9216665954106856,0.029467008567846117,0.07242653933037513
1.0030000000000001,0.010599999999999112,1.579,0.006542663914087236,0.9107092448706147,0.0298821626118718,0.06946835025999701
1.004,0.0066,2.578999999999334,0.006555686667114466,0.9107520590676282,0.030027527829415607,0.06947990893827416
1.0050000000000001,0.010199999999997603,-0.421,0.0064877903494328665,0.9215819791476425,0.029269641768797542,0.07240369522188421
1.006,-0.0006,-0.4209999999995559,0.0064331537281134615,0.9215396681025545,0.02865976578271786,0.0723922723810544
1.0070000000000001,-0.004999999999997979,1.579,0.006448514965002971,0.9215396681025545,0.02883123409955658,0.0723922723810544
1.008,0.0041,-0.421,0.006498191151795166,0.9534156526285942,0.029385739716356288,0.08099792834575462
1.0090000000000001,0.0011999999999991783,-0.421,0.006502074767922967,0.9638876444276727,0.029429090204697264,0.08382508364865714
1.01,-0.0025,0.5789999999993338,0.0065278695702880515,0.9639280966355567,0.02971702218416887,0.08383600465358414
1.0110000000000001,-0.0035000000000010435,-2.421,0.0065541638543869215,0.9429100652131821,0.030010529580047355,0.07816170313268657
1.012,-0.0082,-0.421,0.0065743238873668865,0.9321606204265919,0.030235563992793674,0.07525964300747329
1.0130000000000001,-0.014399999999999111,-0.421,0.006640810538631263,0.899488405195046,0.030977714788757996,0.06643902623067584
1.014,-0.0104,0.5789999999997779,0.006539340585094225,0.8995317534603472,0.029845066274328688,0.06645072909298409
1.0150000000000001,-0.008199999999999845,-0.421,0.0064668266586875005,0.8884330837433315,0.029035636604194535,0.06345438765692744
1.016,-0.0075,-0.42099999999977794,0.006256853926591727,0.8883891939271696,0.02669183634816967,0.06344253859049517
1.0170000000000001,0.0016000000000002442,0.579,0.006292145326067826,0.8771495475076101,0.0270857731717846,0.06040813724760993
1.018,0.0027,0.579,0.006335744044104022,0.8998351328467247,0.027572439633070538,0.06653263334362186
1.0190000000000001,-0.0009000000000007327,0.579,0.006342230138231568,0.9109232957326331,0.027644840029660174,0.06952613821870221
1.02,-0.0042,-0.421,0.006305828732824618,0.9108804895842717,0.027238512872505515,0.06951458171334404
1.0210000000000001,0.000499999999999023,-0.421,0.006276260996206226,0.9108376814241729,0.026908465880381535,0.06950302466487103
1.022,-0.0039,-0.421,0.0062753973085886705,0.9217935052414302,0.026898825051122677,0.07246080156127295
1.0230000000000001,-0.0030999999999995337,-0.421,0.006262943294584091,0.9218358046357291,0.0267598083277552,0.07247222125670398
1.024,-0.001,0.579,0.006265453134636121,0.9218358046357291,0.026787824173897766,0.07247222125670398
1.025,-0.0046,-0.421,0.006278600003131128,0.9218358046357291,0.026934574818312244,0.07247222125670398
1.026,0.0044,0.579,0.0062864209805873665,0.9217935052414302,0.027021875720583382,0.07246080156127295
1.027,-0.0079,0.579,0.006294800729147359,0.9218358046357291,0.027115413851103,0.07247222125670398
1.028,-0.0127,0.579,0.006286360912023332,0.932537013690161,0.02702120521106361,0.07536125903539738
1.029,-0.0022,-1.421,0.006226915489037614,0.9325370136901608,0.0263576514428063,0.07536125903539735
1.03,0.0014,0.579,0.006229530973651847,0.9218358046357291,0.026386846536127623,0.07247222125670398
1.031,-0.0048,-0.421,0.006267146915210038,0.9218781020891653,0.026806730835268383,0.07248364042815443
1.032,0.0076,-0.421,0.006267101482401568,0.9218781020891653,0.026806223695950523,0.07248364042815443
1.033,0.009,-1.421,0.006236555589249126,0.9110517021101274,0.026465258126390057,0.06956080447685298
1.034,0.0134,0.579,0.006231289116234942,0.9220049828069693,0.026406471632182984,0.0725178947993436
1.035,0.0097,-0.421,0.006220434983234045,0.932746055428679,0.026285313425341027,0.07541769466587901
1.036,0.0108,-0.421,0.006301980719640447,0.9433235050138005,0.02719555979856954,0.07827332072628057
1.037,0.0075,0.579,0.006256210567810543,0.9433648390281679,0.026684654918176343,0.07828447979517131
1.038,0.0049,-0.421,0.006217558588060017,0.9434061712315436,0.026253205943202632,0.07829563837514311
1.039,0.0024,-0.421,0.006240763776687496,0.9433648390281679,0.02651223161050396,0.07828447979517131
1.04,0.0031,1.579,0.006240763776687497,0.9538245387430553,0.02651223161050397,0.0811083165669222
1.041,-0.0082,1.579,0.006248575751571989,0.9538245387430553,0.026599432022441173,0.0811083165669222
1.042,-0.0035,0.579,0.006251902280625696,0.9641707742418681,0.026636564080351414,0.08390152106103964
1.043,-0.0079,-0.421,0.006250419441467846,0.9744471753250886,0.026620012032077707,0.08667587214673629
1.044,-0.0014,-0.421,0.006234533448579274,0.9744471753250886,0.026442686177297378,0.08667587214673629
1.045,-0.0076,-0.421,0.0062343355407766645,0.9744871891934577,0.026440477050646522,0.08668667481181852
1.046,-0.0066,-0.421,0.006208473499522987,0.9744471753250897,0.026151794523602744,0.0866758721467366
1.047,-0.0059,0.579,0.0061615195640564524,0.9744871891934552,0.025627675773184987,0.08668667481181785
1.048,-0.0015,-0.421,0.006189132122651102,0.9433235050137992,0.025935898280258534,0.07827332072628024
1.049,0.0006,0.579,0.006202681780541698,0.9327042508290925,0.026087145022233308,0.07540640855167317
1.05,0.0104,-0.421,0.006203080716937504,0.921878102089175,0.026091598111057247,0.07248364042815704
1.051,0.0013,0.579,0.006236345670459085,0.921878102089175,0.02646291492825699,0.07248364042815704
1.052,0.0074,0.579,0.0061418494543560975,0.9218781020891749,0.02540811008152794,0.07248364042815701
1.053,0.0041,0.579,0.006126135120662534,0.9325788257864845,0.025232700355862066,0.07537254717351997
1.054,0.0016,-1.421,0.006058284612035851,0.92175120390601,0.024475325634376325,0.07244938134179152
1.055,-0.001,-0.421,0.0060540211205918956,0.8996184437247463,0.024427734824664208,0.06647413312589477
1.056,0.0044,0.579,0.00597771695406552,0.910752059067655,0.02357599696682318,0.06947990893828138
1.057,0.008,-2.421,0.005979491092072546,0.9107520590676574,0.023595800610246714,0.06947990893828204
1.058,-0.0029,1.579,0.005981265893987681,0.8996617857244235,0.02361561166448013,0.06648583429665357
1.059,-0.0073,0.579,0.006030705587320855,0.8997051256361596,0.02416747744598184,0.06649753490372459
1.06,-0.0063,1.579,0.0060294980747581705,0.8997051256361597,0.024153998704121767,0.06649753490372462
1.061,-0.0052,-0.421,0.006048202367029784,0.8997051256361634,0.024362783552408524,0.06649753490372565
1.062,-0.0107,-0.421,0.006053995397327697,0.8658090331604443,0.024427447691222584,0.057346504285191745
1.063,-0.0082,0.579,0.006007724943031338,0.8658090331604442,0.023910958233073664,0.05734650428519172
1.064,-0.0039,0.579,0.005869443163564097,0.8772384496242193,0.02236740128220702,0.06043213842095243
1.065,-0.0032,-0.421,0.005847930861753292,0.8771939996921927,0.022127272299797766,0.06042013813834587
1.066,0.0066,0.579,0.005809531099202489,0.8771939996921927,0.021698638674852524,0.06042013813834587
1.067,0.0077,2.579,0.005769724454327402,0.8886086213301262,0.021254300862420937,0.06350177807022102
1.068,0.0138,1.579,0.005769695347766482,0.8886086213301262,0.021253975963257822,0.06350177807022102
1.069,0.0037,-0.421,0.005824805966726222,0.8997051256361658,0.021869142902023044,0.06649753490372627
1.07,0.0073,-0.421,0.0058274736835967605,0.8997051256361658,0.02189892103283918,0.06649753490372627
1.071,0.0011,1.579,0.00581504118490342,0.8997484634602653,0.021760144472046564,0.06650923494719173
1.072,0.0044,0.579,0.005821251421240757,0.899748463460264,0.021829465632809415,0.0665092349471914
1.073,0.0018,-0.421,0.005811829181181528,0.8997917991970285,0.021724290792044493,0.0665209344271327
1.074,-0.0044,0.579,0.00581862926071293,0.9109232957326636,0.021800196020250122,0.06952613821871044
1.075,-0.0036,-0.421,0.005819215616287272,0.9109232957326636,0.021806741157476026,0.06952613821871044
1.076,0.0033,0.579,0.005801705737541884,0.9217935052414495,0.021611288834325393,0.07246080156127817
1.077,0.0007,-1.421,0.005785936723657229,0.9326206360082526,0.021435268746330078,0.07538383480556315
1.078,-0.0015,-0.421,0.005772051258242066,0.943199492102379,0.02128027358543348,0.07823984058545536
1.079,-0.0083,0.579,0.005660060793426354,0.943199492102379,0.020030190884277384,0.07823984058545536
1.08,-0.009,0.579,0.0056566415410749145,0.932578825786487,0.01999202381154976,0.07537254717352064
1.081,0.0,-0.421,0.005703567978501004,0.932578825786487,0.020515835617758178,0.07537254717352064
1.082,-0.0061,0.579,0.005699626178549262,0.9325788257864858,0.020471835658125912,0.07537254717352031
1.083,-0.0028,1.579,0.005650379812412099,0.9326206360082432,0.019922127872698182,0.07538383480556061
1.084,0.0037,-1.421,0.005578006582232832,0.932746055428685,0.019114268710556402,0.07541769466588062
1.085,0.0121,-1.421,0.005478927680962043,0.932746055428685,0.018008310085132522,0.07541769466588062
1.086,0.002,0.579,0.005391660245497501,0.9327878581547324,0.01703419580113525,0.07542898027428141
1.087,0.0056,0.579,0.005283817555265062,0.9435301569781074,0.01583041223145769,0.07832911118218953
1.088,-0.0056,-0.421,0.005231836893430721,0.9435301569781086,0.015250183135519176,0.07832911118218987
1.089,0.002,-1.421,0.00527177797088646,0.9541515214751654,0.0156960215385932,0.08119659308420557
1.09,0.0031,0.579,0.005295276998535618,0.9541923864381305,0.015958327155473535,0.0812076255218704
1.091,0.002,-1.421,0.00528587201645327,0.9541923864381305,0.01585334495520164,0.0812076255218704
1.092,-0.0013,-1.421,0.005235517545966569,0.9436128050918836,0.015291268062451138,0.07835142394346938
1.093,0.0013,-0.421,0.005231912178344581,0.9435714819398971,0.015251023496067993,0.0783402678071285
1.094,0.0005,0.579,0.0052771621554426155,0.9435714819398983,0.01575612197647028,0.07834026780712879
1.095,-0.0071,-0.421,0.005364698077788304,0.9540697862982227,0.016733233219236865,0.08117452679124423
1.096,-0.0023,0.579,0.0053878411999946155,0.9541106547619378,0.01699156607613195,0.08118556017401711
1.097,-0.0066,0.579,0.005360347745932839,0.9541106547619378,0.01668467306185423,0.08118556017401711
1.098,-0.0044,-0.421,0.005359266566918618,0.9644538209390889,0.016672604505975346,0.08397793603408109
1.099,-0.0008,0.579,0.005357850506547251,0.9644538209390889,0.016656797869428648,0.08397793603408109
1.1,0.0072,-0.421,0.005365593736362267,0.9644538209390889,0.016743230921195656,0.08397793603408109
1.101,-0.0018,-0.421,0.005354225908187265,0.964494249400756,0.01661633864179785,0.08398885062817009
1.102,0.0044,-1.421,0.005536518568138994,0.964494249400756,0.018651162777302423,0.08398885062817009
1.103,0.0055,0.579,0.005555517092844315,0.9644538209390889,0.0188632319665918,0.08397793603408109
1.104,0.0062,-1.421,0.00570816496375748,0.9644538209390889,0.020567149019805813,0.08397793603408109
1.105,0.0036,1.579,0.005751705592211343,0.9540697862982181,0.021053167061763276,0.08117452679124301
1.106,0.0015,-0.421,0.005760134086458434,0.954069786298218,0.021147249311287118,0.08117452679124297
1.107,0.0051,0.579,0.005745842277875602,0.954069786298218,0.02098771838419406,0.08117452679124297
1.108,0.0087,0.579,0.005708113298755802,0.9222164118776491,0.020566572314235754,0.07257497494511041
1.109,-0.0004,-0.421,0.005706742244180198,0.9222164118776491,0.02055126805051898,0.07257497494511041
1.11,-0.0054,0.579,0.005660678454638258,0.9222164118776491,0.020037085467646133,0.07257497494511041
1.111,-0.0044,-0.421,0.005699963631975029,0.9112656725309949,0.02047560244926024,0.06961857071861731
1.112,-0.0033,-0.421,0.005684330155880719,0.9221318460666278,0.02030109528870337,0.07255214445730443
1.113,-0.0065,-1.421,0.005618581418070654,0.9329968436905272,0.01956718138009997,0.0754854007315438
1.114,-0.0091,-0.421,0.0057034541258018465,0.9435714819398937,0.020514564748046808,0.07834026780712756
1.115,-0.0047,-0.421,0.00575134166579658,0.9540289160837885,0.021049104768456995,0.08116349293582442
1.116,0.003,1.579,0.005743219935530378,0.9644133907826503,0.02095844674211571,0.08396702098244949
1.117,-0.0017,0.579,0.005718225286121085,0.9644133907826503,0.020679446392403482,0.08396702098244949
1.118,0.0084,-1.421,0.005665568447186317,0.9644133907826502,0.02009166953516625,0.08396702098244946
1.119,0.0019,0.579,0.00550503564924145,0.9539471704018884,0.018299737748747682,0.08114142380680796
1.12,-0.0017,0.579,0.0054941408251188715,0.9539880441184202,0.018178125331206735,0.08115245860769965
1.121,-0.0028,-0.42099999999977794,0.005482817870817724,0.9540289160837885,0.018051733952073365,0.08116349293582442
1.122,0.0019,0.579,0.005481602837581844,0.9434475016241703,0.018038171261428197,0.07830679646626157
1.123,-0.0042,1.578999999999778,0.005469440217029672,0.9434475016241703,0.01790240718920995,0.07830679646626157
1.124,0.0012,0.579,0.0054682026676812325,0.9434888302062766,0.01788859316464226,0.07831795406858832
1.125,0.0005,-1.420999999999334,0.0054551720396814815,0.9539471704018884,0.017743140043481508,0.08114142380680796
1.1260000000000001,0.0011999999999982235,1.579,0.005451070833173375,0.9539880441184202,0.017697360723625214,0.08115245860769965
1.127,-0.0068,-1.420999999999556,0.005475441371366957,0.9539880441184202,0.017969394492426818,0.08115245860769965
1.1280000000000001,-0.005699999999998557,0.579,0.0054823071607269696,0.9434888302062766,0.018046033200220885,0.07831795406858832
1.129,0.0008,-0.42099999999977794,0.005554540330150035,0.9434888302062766,0.018852328947756552,0.07831795406858832
1.1300000000000001,-0.007499999999999289,0.579,0.005522967746454206,0.9434475016241702,0.01849990304458786,0.07830679646626154
1.131,-0.0043,-0.42099999999977794,0.005459117424118028,0.9434475016241702,0.017787180014577738,0.07830679646626154
1.1320000000000001,-0.0016999999999994448,0.579,0.005509646059682829,0.9434475016241702,0.018351201008119645,0.07830679646626154
1.133,0.0008,1.578999999999778,0.005501443549350823,0.9434061712315482,0.018259641282128966,0.07829563837514437
1.1340000000000001,0.008399999999998001,0.579,0.005526768188516431,0.9327042508290878,0.0185423251104892,0.07540640855167192
1.135,-0.0006,0.579000000000222,0.005617907000574653,0.9220049828069742,0.01955965326021499,0.07251789479934492
1.1360000000000001,-0.0016999999999992893,1.579,0.005493902351726781,0.9221318460666278,0.018175463395097895,0.07255214445730443
1.137,0.0015,0.579000000000222,0.005531459248212554,0.9220895602527597,0.018594688609344778,0.07254072842822337
