time_sec,bts_raw,diy_raw,bts_rms,diy_rms,bts_norm_rms,diy_norm_rms
0.0,0.0019,-1.437,0.004916224320957607,0.7117793460053795,0.006788880641304272,0.0001975465807906578
0.001000000000000112,-0.0083,-0.437,0.004933634260551398,0.7126747123236205,0.006877599450706357,0.0003275854061907397
0.0020000000000000018,0.0008,-0.437,0.004940369139734657,0.7254813748518752,0.00691191952742958,0.002187565303291749
0.0030000000000001137,-0.0003,-2.437,0.004902218625969099,0.7263598512050873,0.006717509423872116,0.0023151511089962466
0.0040000000000000036,0.003,-2.437,0.004779338576711589,0.7291991978483541,0.006091328522401115,0.002727524564275945
0.0050000000000001155,0.0022,-0.437,0.004678419284853486,0.7320275314786252,0.005577056811628179,0.00313829854094572
0.006000000000000005,0.0029,-0.437,0.004637276871067135,0.7328981614306308,0.005367400370984658,0.003264744771958032
0.007000000000000117,0.0008,-0.437,0.004637846075825003,0.733767758363713,0.005370300965105158,0.0033910409721229933
0.008000000000000007,0.0029,-0.437,0.004631468281938317,0.7346363259462587,0.005337800549053144,0.0035171876742200003
0.009000000000000119,0.0007,-0.437,0.0046296015189479485,0.7355038678249946,0.005328287765332721,0.003643185407882604
0.010000000000000009,0.0047,-0.437,0.004614727559044104,0.738308049722833,0.005252491981742868,0.004050451699649637
0.01100000000000012,-0.0037,-0.437,0.004645746083779778,0.7750221464207642,0.005410558387954841,0.009382635759916288
0.01200000000000001,-0.0026,-0.437,0.004657285046622017,0.7758445305783612,0.0054693594561368,0.009502074996911107
0.013000000000000123,-0.0171,-0.4370000000000017,0.004671248168787363,0.7876247299950465,0.0055405137279464015,0.011212976182175769
0.014000000000000012,0.0049,-1.437,0.0046767831664652725,0.7992313150591523,0.005568719363088443,0.012898662429127381
0.015000000000000124,-0.0038,0.563,0.0047856975694296755,0.8000288139541547,0.006123733130119934,0.013014487446722095
0.016000000000000014,-0.0012,-1.437,0.0047853841711984965,0.8026075877145057,0.006122136093106156,0.013389016512576853
0.017000000000000126,0.0107,0.563,0.004791435878182592,0.8034017351503588,0.006152974812309449,0.013504354779885944
0.018000000000000016,0.0085,0.563,0.0048435802638477935,0.8041950983612849,0.0064186958843612816,0.013619579150026588
0.019000000000000128,0.0027,0.563,0.004854608725851561,0.8067605548911791,0.006474895506033681,0.013992174083481128
0.020000000000000018,0.0045,0.563,0.004851775229925021,0.8180956989250925,0.006460456375806144,0.015638437502018817
0.02100000000000013,-0.0002,-0.437,0.004896475523453579,0.8188748260787144,0.006688243313285909,0.015751594293636078
0.02200000000000002,0.0012,-0.437,0.004959644442063566,0.8300445532963012,0.007010143985031715,0.01737383334576831
0.02300000000000013,-0.0024,0.563,0.004987309482588317,0.8325303580992484,0.007151121467704407,0.017734860034134468
0.02400000000000002,0.0041,1.563,0.004986262604730893,0.833295989035452,0.0071457867130029495,0.017846056698120543
0.025000000000000133,-0.0071,0.563,0.004981094189676102,0.8340609171567035,0.007119449135684739,0.017957151288542996
0.026000000000000023,-0.0057,0.5629999999999965,0.004916895135625263,0.8500869830450206,0.00679229902643555,0.020284702304752066
0.027000000000000135,-0.0046,-0.437,0.004764592276195213,0.8525143491124308,0.006016183274604574,0.02063724162390155
0.028000000000000025,-0.0035,-0.437,0.004763999872725986,0.8549348233301755,0.006013164462839469,0.02098878000296976
0.029000000000000137,-0.0024,-2.437,0.004703871693032218,0.8556804078207632,0.0057067590048993306,0.021097065214751038
0.030000000000000027,-0.0031,-1.437,0.00467067670708541,0.8564253432226402,0.005537601632729584,0.021205256155917264
0.03100000000000014,-0.0039,0.563,0.004675640931751078,0.8571696312281055,0.005562898682128861,0.021313353072250046
0.03200000000000003,0.0085,0.563,0.004650333979948716,0.8678466203028843,0.005433937715813838,0.022864029136122392
0.03300000000000014,-0.0006,0.563,0.00476676524449353,0.8685811214600787,0.00602725644112859,0.02297070465628738
0.03400000000000003,0.0009,0.563,0.004659265774215899,0.8709569456964302,0.005479452988795682,0.02331575828043885
0.03500000000000014,-0.0034,0.563,0.0046600538265086,0.9334179792031394,0.00548346880176151,0.03238730728224294
0.03600000000000003,-0.0024,-0.4369999999999861,0.004637425327006132,0.9356291790018516,0.005368156883325526,0.032708451621371475
0.037000000000000144,-0.0013,1.563,0.004604746825573054,0.9378351653140787,0.005201631449703636,0.033028838778054175
0.038000000000000034,0.002,-2.437,0.004608934342246196,0.9385148935874138,0.00522297049522939,0.03312755934019166
0.039000000000000146,-0.0005,-0.437,0.00461881532379154,0.9407141128873325,0.005273322704305376,0.03344696368758823
0.040000000000000036,-0.0031,-0.437,0.004641324176166631,0.9429082027882713,0.005388024916393325,0.03376562306501578
0.04100000000000015,-0.0009,0.563,0.004640098454080237,0.9571134436939601,0.005381778794539946,0.03582872595851092
0.04200000000000004,0.0027,-1.437,0.004627649859015588,0.9577794904284705,0.0053183423577324255,0.035925459477801056
0.04300000000000015,0.0078,-0.43699999999999306,0.004618980574756785,0.9599345753672107,0.00527416480193645,0.03623845395655446
0.04400000000000004,-0.0013,0.563,0.004615966119638119,0.9738915002194705,0.005258803526977206,0.03826549258533686
0.04500000000000015,0.0024,-0.437,0.0046338031529143025,0.9745460801755043,0.005349698750766078,0.038360560723236334
0.04600000000000004,0.006,1.563,0.00463194336390519,0.9752002207604088,0.00534022150555574,0.03845556504892353
0.04700000000000015,0.0027,-1.437,0.004763251025741114,0.988941725171637,0.006009348435071866,0.0404513170182145
0.04800000000000004,0.0034,0.563,0.00470592129420427,0.9895863499317091,0.005717203508440198,0.04054493930991324
0.049000000000000155,-0.0009,-0.437,0.004672715021607461,0.9916723151682564,0.005547988620956,0.04084789516570077
0.050000000000000044,-0.0049,-0.437,0.004674655816730218,1.0009155610452771,0.005557878662886175,0.04219034105878883
0.051000000000000156,-0.0027,-1.4369999999999932,0.004670947263310014,1.0009155610452771,0.005538980352396814,0.04219034105878883
0.052000000000000046,0.0038,-0.43699999999999306,0.00463248571519764,1.002341952058717,0.005342985257875766,0.042397503432635264
0.05300000000000016,0.0078,0.563,0.004631809498937063,1.0037663161170414,0.0053395393469228,0.04260437142098053
0.05400000000000005,0.0057,0.563,0.004637324337469649,0.9763512044340246,0.005367642253657196,0.038622728546055876
0.05500000000000016,0.0006,-0.437,0.004637038962551691,0.9481437293092038,0.005366188019837594,0.03452600650279195
0.05600000000000005,-0.0008,-0.437,0.0046547168558881006,0.9496493879020098,0.005456272286993963,0.03474468132992494
0.05700000000000016,-0.0005,-0.437,0.004649330239072733,0.9496493879020098,0.005428822781612849,0.03474468132992494
0.05800000000000005,0.0042,-0.437,0.004654908962675891,0.9496493879020098,0.005457251238437134,0.03474468132992494
0.05900000000000016,0.0003,0.5629999999999792,0.004645840135021702,0.9511526630656927,0.0054110376609679,0.03496300999893551
0.06000000000000005,0.0075,-2.437,0.004646403221171378,0.9526535660833145,0.005413907075449262,0.035180994148522944
0.061000000000000165,-0.0034,-0.437,0.004629529433725955,0.9526535660833145,0.005327920428327539,0.035180994148522944
0.062000000000000055,0.0043,-1.437,0.004623517060019315,0.9541521081491952,0.005297282146439202,0.03539863540449801
0.06300000000000017,-0.0023,-1.437,0.004717587909001238,0.9556483003698852,0.005776655074539187,0.035615935379924295
0.06400000000000006,-0.011,-0.437,0.004430920975841441,0.9556483003698852,0.004315837311911558,0.035615935379924295
0.06500000000000017,-0.0034,0.563,0.004409385976454389,0.9601228877298686,0.004206097729197826,0.03626580356525591
0.06600000000000006,-0.0026,-0.437,0.00448000883151634,0.9586336792688044,0.004565982700878415,0.03604951787848458
0.06700000000000017,-0.0088,-0.437,0.004520870886408524,0.9630943965008499,0.004774210468713407,0.03669737163116619
0.06800000000000006,-0.0033,0.563,0.004397787980163074,0.9704823334521562,0.004146995834164131,0.03777036111458251
0.06900000000000017,-0.0011,-1.437,0.004407749955970238,0.969009045896087,0.00419776077956458,0.03755638770575005
0.07000000000000006,0.0068,-0.437,0.004420516423812931,0.9690090458960869,0.00426281705510029,0.03755638770575003
0.07100000000000017,-0.008,-1.4369999999999723,0.004440511857565417,0.9675335149306962,0.004364711209668838,0.03734208847461765
0.07200000000000006,-0.0058,0.5629999999999861,0.0044479531122655425,0.9690090458960869,0.00440263088502993,0.03755638770575003
0.07300000000000018,1.199040866595035e-15,-0.437,0.004460201951257511,0.9690090458960869,0.004465049390623871,0.03755638770575003
0.07400000000000007,0.0054,-0.437,0.004502171562316922,0.9675335149306961,0.004678921122010434,0.03734208847461764
0.07500000000000018,-0.002600000000000311,1.563,0.004519629913541531,0.9675335149306961,0.004767886630846725,0.03734208847461764
0.07600000000000007,-0.004,0.563,0.0044654179104387905,0.9660557302763906,0.004491629246685983,0.03712746192822522
0.07700000000000018,0.0049999999999992,0.563,0.004436668182474122,0.9734211919674115,0.004345124336550118,0.03819718720972941
0.07800000000000007,0.0014,-0.437,0.004414558227209402,0.9734211919674114,0.0042324548527502516,0.038197187209729394
0.07900000000000018,0.0024999999999989566,-0.437,0.004471571649396593,0.9748878117432556,0.004522987907683413,0.03841019222128041
0.08000000000000007,-0.0022,-0.437,0.0044780031156654776,0.9556483003698852,0.004555761831280978,0.035615935379924295
0.08100000000000018,-0.0015000000000019984,-1.437,0.0044939646085288614,0.9466367320752705,0.004637099542735434,0.034307137257669075
0.08200000000000007,-0.0105,-0.437,0.004516933868010125,0.9466367320752705,0.004754147930126276,0.034307137257669075
0.08300000000000018,-0.0017999999999987787,0.563,0.004462553156003464,0.9466367320752705,0.004477030827124426,0.034307137257669075
0.08400000000000007,0.0037,-3.437,0.004534707524397151,0.9586336792688043,0.004844720193452285,0.036049517878484566
0.08500000000000019,0.0011000000000001777,0.563,0.004541934206153135,0.9850919984882391,0.004881546432731556,0.039892200681334714
0.08600000000000008,0.0019,0.5629999999999861,0.004585007961464098,0.9836405933933674,0.005101044740986929,0.03968140537904144
0.08700000000000019,-0.0020999999999988675,-0.4369999999999861,0.004579134987183096,1.0108580315467952,0.005071116820614053,0.043634339073068
0.08800000000000008,0.003,0.563,0.004580224498318778,1.0248923094088827,0.005076668829009445,0.045672612091992436
0.08900000000000019,0.005099999999999135,0.563,0.0045760566853277765,0.9994881347111453,0.00505543019090963,0.041983028319796896
0.09000000000000008,0.0012,1.563,0.004614690528362221,1.0009165599302778,0.005252303278158323,0.04219048613218455
0.09100000000000019,0.001500000000000089,-0.437,0.00460747069757852,1.000916559930278,0.005215511950551254,0.04219048613218458
0.09200000000000008,0.0019,0.563,0.004607672093136287,0.9994881347111452,0.0052165382363696345,0.04198302831979688
0.0930000000000002,-0.0002000000000008882,1.563,0.004599708554086226,0.9923161736346725,0.0051759570672425224,0.0409414061644852
0.09400000000000008,-0.0042,-0.437,0.004533766314984786,1.019301982450912,0.004839923911534522,0.04486069909458918
0.0950000000000002,0.0027000000000018654,-0.437,0.004594883893494108,1.0193019824509117,0.005151371218383259,0.044860699094589146
0.09600000000000009,0.0111,1.563,0.004595421863754114,1.0193019824509117,0.00515411264552632,0.044860699094589146
0.0970000000000002,-0.0013000000000010436,-0.437,0.004557068159710589,1.0066089977740933,0.004958667110487536,0.04301722923809792
0.09800000000000009,-0.006,0.563,0.004555917250114682,0.9980576651246469,0.004952802223448251,0.04177527359303406
0.0990000000000002,-0.001599999999999756,-1.437,0.004545272243368623,0.9966251423678637,0.004898556640372002,0.04156722067340118
0.10000000000000009,-0.0005,-1.437,0.004545950663261091,1.0094436742227666,0.0049020137807492085,0.043428924416110584
0.1010000000000002,0.005699999999998779,0.563,0.004579526684424913,1.0108580315467925,0.0050731128592994765,0.043634339073067616
0.10200000000000009,0.0002,0.5629999999999861,0.004599191365234513,1.0037673121651505,0.005173321539479038,0.04260451608235935
0.1030000000000002,-0.0023000000000001552,-0.437,0.004700284305420274,1.0037673121651505,0.0056884781397601464,0.04260451608235935
0.10400000000000009,-0.003,-0.4369999999999861,0.004656323321776005,1.0108580315467925,0.005464458630211992,0.043634339073067616
0.10499999999999998,0.0046,0.563,0.004628784023691634,1.0094436742227668,0.005324121914817195,0.04342892441611062
0.1060000000000001,-0.0019,-0.437,0.0046363636475923635,1.0108580315467928,0.005362746701799691,0.04363433907306764
0.10699999999999998,0.0024,-0.437,0.0047144063465987245,1.0234983228961594,0.005760442242388404,0.04547015599659874
0.1080000000000001,0.0003,0.563,0.004718080739995521,1.0359843985311001,0.005779166477799014,0.047283575349489064
0.10899999999999999,0.001,0.563,0.004721398530676415,1.0483217688422002,0.005796073511707348,0.049075397435150284
0.1100000000000001,-0.0026,-0.437,0.0048086053975260525,1.0469580232818039,0.006240468471087055,0.04887733339453848
0.11099999999999999,0.0028,0.563,0.004763969945786984,1.022102435207467,0.006013011959013538,0.04526742378328005
0.1120000000000001,0.0097,0.563,0.004826035097607335,1.022102435207467,0.006329287977387826,0.04526742378328005
0.11299999999999999,0.0054,-0.437,0.004811132054720689,1.0401134359014583,0.006253343990664119,0.047883257467004156
0.1140000000000001,-0.0023,1.563,0.004826038447512736,1.0332235075584233,0.00632930504807421,0.04688259642965441
0.11499999999999999,-0.0088,-0.437,0.004718951424393066,1.03460535717037,0.0057836033733263655,0.04708328981822204
0.1160000000000001,-0.0062,1.563,0.00471786115559941,1.0332235075584235,0.005778047504003543,0.046882596429654436
0.11699999999999999,-0.0023,-1.437,0.004722203416337489,1.0332235075584235,0.005800175105349911,0.046882596429654436
0.1180000000000001,0.009,-0.4369999999999861,0.004647057133099489,1.0332235075584235,0.00541723932639725,0.046882596429654436
0.119,0.0043,0.5629999999999861,0.0046357281101535985,1.0332235075584235,0.005359508084882387,0.046882596429654436
0.1200000000000001,-0.0062,-0.437,0.004678758750951003,1.0262873250702875,0.005578786687130723,0.045875217656137626
0.121,-0.0026,0.563,0.004632563629043327,1.0276785013389271,0.005343382296796437,0.046077265604795976
0.12200000000000011,0.0035,-0.437,0.004564195183244945,1.0193039441837362,0.004994985504307476,0.04486098400750919
0.123,-0.0066,-0.437,0.004637073132574375,1.0304552193777354,0.005366362145871374,0.046480543173850884
0.12400000000000011,0.0057,1.563,0.004637432756361707,1.0304552193777354,0.0053681947423644795,0.046480543173850884
0.125,-0.0012,-0.437,0.004615530728043114,1.0387398763061515,0.005256584827496694,0.0476837680817639
0.1260000000000001,-0.0026,-1.437,0.00461233226302156,1.0262873250702866,0.005240285861776691,0.0458752176561375
0.127,-0.0012,-0.437,0.004605072929601994,1.0248942604413527,0.00520329323382603,0.045672895450842944
0.1280000000000001,0.0079,0.563,0.0046422825946674994,1.0248942604413527,0.005392908893609207,0.045672895450842944
0.129,-0.0034,-1.437,0.004642599681205626,1.0248942604413527,0.005394524725760055,0.045672895450842944
0.13000000000000012,-0.0049,-0.437,0.004675418509464462,1.0332235075584226,0.005561765246808951,0.04688259642965431
0.131,-0.006,0.563,0.004701204811636527,1.034605357170369,0.005693168920857531,0.04708328981822191
0.13200000000000012,-0.0049,0.563,0.004839418503498138,1.0262873250702866,0.0063974880897420565,0.0458752176561375
0.133,-0.0081,1.563,0.0047251785049783855,1.034605357170369,0.005815335773809676,0.04708328981822191
0.13400000000000012,0.0027,-2.437,0.004728563067629921,1.0332235075584226,0.005832583069078755,0.04688259642965431
0.135,0.0071,-0.437,0.004715226589882168,0.9865422817091646,0.005764622096496174,0.0401028330478918
0.13600000000000012,0.0005,-2.437,0.004725274690651346,0.9850930134183408,0.005815825923608335,0.03989234808504601
0.137,0.0016,-2.437,0.004741618067486142,0.9836416098210417,0.005899109666586389,0.039681553000253195
0.13800000000000012,0.0005,0.563,0.004740565602736015,1.0179013223855355,0.005893746441799427,0.04465727376355351
0.139,-0.006,0.563,0.004739938620136986,1.0179013223855355,0.0058905514192433735,0.04465727376355351
0.14000000000000012,-0.0017,-0.437,0.004725746549509474,1.0164967651694348,0.00581823045556397,0.04445328242853458
0.14100000000000001,-0.001,-0.43699999999997224,0.00473143720307999,1.003768308212274,0.005847229293082968,0.04260466074359503
0.14200000000000013,-0.0003,0.5629999999999167,0.004729176755391364,1.003768308212274,0.005835710342855127,0.04260466074359503
0.14300000000000002,-0.001,-2.436999999999917,0.004742355861643772,1.0037683082122737,0.005902869370570204,0.042604660743594994
0.14400000000000013,-0.0076,0.5629999999999722,0.0047462159088267454,0.9908763593621234,0.0059225396737590435,0.040732294259131864
0.14500000000000002,0.0025,-0.437,0.004728802915208938,0.9923171811759751,0.005833805301443995,0.040941552495081815
0.14600000000000013,-0.0011,-0.437,0.004727460547656077,0.993755913980556,0.0058269647693199025,0.041150507333074626
0.14700000000000002,0.0025,-0.437,0.0046278302695420765,0.980732358772125,0.005319261706534724,0.03925902695533972
0.14800000000000013,0.0014,-0.437,0.004648661886481274,1.008028324261844,0.0054254169429047,0.04322336559320331
0.14900000000000002,-0.0012,1.563,0.004808696369509661,1.0066099910093504,0.006240932052596411,0.043017373490951256
0.15000000000000013,-0.0074,0.563,0.004863934437741457,0.9980586668699098,0.006522418132475964,0.041775419081840924
0.15100000000000002,0.005,0.563,0.004871310888491487,0.9908763593621234,0.006560007575255488,0.040732294259131864
0.15200000000000014,0.0104,-0.437,0.004838383865982877,1.0023439469847828,0.006392215710247449,0.04239779316638679
0.15300000000000002,-0.0045,-1.437,0.004845984029487461,1.0023439469847828,0.006430945164405253,0.04239779316638679
0.15400000000000014,-0.0027,-0.437,0.004855692741091755,1.003768308212274,0.006480419508053653,0.04260466074359503
0.15500000000000003,0.0027,0.563,0.004856597860409556,1.0122714003946924,0.006485031879498686,0.043839610168365295
0.15600000000000014,-0.0086,1.563,0.004862203192207599,1.0122714003946924,0.006513595928256405,0.043839610168365295
0.15700000000000003,0.0019,1.563,0.004875658872029806,1.0136818122918696,0.0065821643392546605,0.044044451809940044
0.15800000000000014,-0.0046,1.563,0.004893022933893108,1.0150902645014512,0.006670649361652195,0.04424900883563426
0.15900000000000003,0.0091,-0.437,0.0048947027022467424,1.015090264501451,0.0066792092447926785,0.04424900883563423
0.16000000000000014,0.0037,0.563,0.004898234351920799,1.0221024352074655,0.006697206076580615,0.04526742378327983
0.16100000000000003,0.0084,-0.437,0.004899579754421418,1.023499299741494,0.006704062074407513,0.04547029786905622
0.16200000000000014,-0.0021,-2.437,0.0048960466696807425,1.023499299741494,0.006686057929704957,0.04547029786905622
0.16300000000000003,0.0044,0.563,0.004849021182156733,1.0221024352074655,0.006446422103158458,0.04526742378327983
0.16400000000000015,-0.0043,0.563,0.004938642366947009,1.023499299741494,0.0069031201157485275,0.04547029786905622
0.16500000000000004,0.0032,-0.437,0.004948951739674304,1.0122714003946922,0.0069556553511019035,0.04383961016836526
0.16600000000000015,-0.0033,-0.437,0.004873525930503559,1.0207036590228988,0.006571295144004817,0.04506427205830093
0.16700000000000004,-0.0026,-0.437,0.004847760090053076,1.008028324261843,0.006439995740253516,0.04322336559320318
0.16800000000000015,-0.0005,0.563,0.004846045226307991,1.0009175588142782,0.0064312570155192275,0.04219063120543499
0.16900000000000004,0.0064,0.563,0.00476147118910874,1.0136818122918694,0.006000278616873832,0.044044451809940016
0.17000000000000015,-0.0019,0.563,0.0047964973792203585,1.0122714003946922,0.006178767569569687,0.04383961016836526
0.17100000000000004,-0.0009,-0.437,0.004828797286037537,1.0136818122918694,0.006343363733799934,0.044044451809940016
0.17200000000000015,0.01,1.5629999999999444,0.004844977125397011,1.0136818122918694,0.006425814110870827,0.044044451809940016
0.17300000000000004,-0.0006,-0.43700000000002776,0.004841325863755251,1.0150902645014512,0.006407207751904024,0.04424900883563426
0.17400000000000015,0.003,-1.4369999999999723,0.004799520533013686,1.0150902645014512,0.006194173171854434,0.04424900883563426
0.17500000000000004,0.0019,-0.437,0.004810475202301188,1.0359853636031366,0.0062499967553508035,0.047283715512047665
0.17600000000000016,0.003,-0.437,0.004821912991470251,1.0359853636031366,0.006308282255527565,0.047283715512047665
0.17700000000000005,0.0077,0.563,0.004830963891798851,1.0276785013389258,0.0063544044776550155,0.04607726560479578
0.17800000000000016,0.0015,-0.437,0.004855568660505759,1.0276785013389256,0.006479787209371617,0.046077265604795754
0.17900000000000005,-0.0061,-1.437,0.004806535401905932,1.0262873250702862,0.006229920040066069,0.04587521765613743
0.18000000000000016,-0.0054,0.563,0.004797246769864437,1.0193039441837344,0.00618258636775457,0.04486098400750893
0.18100000000000005,-0.0116,-0.437,0.004777815762625924,1.04559345522049,0.0060835684579911755,0.048679149897732005
0.18200000000000016,0.0007,-1.437,0.00485904828502885,1.052402402397167,0.0064975189276921695,0.049668049608417815
0.18300000000000005,0.0025,-0.437,0.004928465989624661,1.0524024023971672,0.006851262607846138,0.04966804960841785
0.18400000000000016,0.0011,-1.437,0.0050095920556245295,1.040113435901457,0.007264670589430985,0.04788325746700396
0.18500000000000005,-0.0033,-0.437,0.005015694313691722,1.0136818122918694,0.007295766910441695,0.044044451809940016
0.18600000000000017,-0.0044,-0.437,0.0049678574299993955,1.0136818122918694,0.007051996313546416,0.044044451809940016
0.18700000000000006,0.0018,2.563,0.004990507945327678,0.9879894240902682,0.007167420421794646,0.040313009253531415
0.18800000000000017,0.0029,0.563,0.0050045134843704955,0.961610829627616,0.0072387908445476525,0.03648190530228213
0.18900000000000006,-0.0036,-0.437,0.005026998838554133,0.9734232461634601,0.007353373312879013,0.0381974855515766
0.19000000000000017,0.0026,-0.437,0.005032473259627654,0.9734232461634601,0.007381270257448639,0.0381974855515766
0.19100000000000006,0.0004,-0.437,0.005032622267656433,0.9748898628489812,0.007382029583167914,0.03841049011430352
0.19200000000000017,0.004,0.563,0.005065888415786606,1.0023449444463273,0.007551549588656896,0.04239793803304637
0.19300000000000006,0.0019,-0.437,0.005075423649435081,1.0009185576972859,0.007600139910990072,0.042190776278541245
0.19400000000000017,-0.001,0.563,0.005078916485605528,0.9748898628489838,0.007617938954163611,0.038410490114303905
0.19500000000000006,-0.0025,0.563,0.005031760384177331,0.974889862848984,0.007377637535987204,0.03841049011430394
0.19600000000000017,0.0055,-0.437,0.0050596943805771705,0.974889862848984,0.007519985583152151,0.03841049011430394
0.19700000000000006,-0.0046,-2.437,0.00506641170462656,0.974889862848984,0.00755421620117465,0.03841049011430394
0.19800000000000018,-0.013699999999998623,-0.437,0.005113634769337592,0.9763542764796025,0.007794858855614096,0.03862317471561842
0.19900000000000007,-0.0075,-0.437,0.005166706043120893,0.9778164969534444,0.008065303230113003,0.03883554079307811
0.20000000000000018,0.002699999999999201,0.563,0.00527457683365541,0.9645777546085702,0.008614998882641112,0.03691280763992135
0.20100000000000007,-0.0009,1.563,0.0052573255246327255,0.9645777546085701,0.00852708843419442,0.03691280763992133
0.20200000000000018,0.0027000000000002443,0.563,0.005233502226729031,0.9763542764796025,0.008405687977021051,0.03862317471561842
0.20300000000000007,0.0038,0.563,0.0051337358168882866,1.0037693042584106,0.00789729120449303,0.04260480540468738
0.20400000000000018,0.0030999999999981567,-1.4369999999999445,0.005114392230237355,0.9951935714652255,0.007798718778782331,0.04135930599662202
0.20500000000000007,-0.0052,0.563,0.005110827797346956,0.9951935714652255,0.007780554887947086,0.04135930599662202
0.20600000000000018,-0.004100000000000156,0.563,0.005109801615696916,0.9937569200621517,0.007775325598452349,0.04115065345167022
0.20700000000000007,-0.0048,0.563,0.005039293965383966,0.9821890793819266,0.007416027695331864,0.03947059425821398
0.20800000000000018,0.0013000000000001775,0.5629999999999444,0.005035730124888647,0.9690100776712914,0.007397866823265633,0.037556537555965455
0.20900000000000007,0.0021,-1.437,0.0051240744216446985,0.9690100776712914,0.007848057978923436,0.037556537555965455
0.2100000000000002,0.0027999999999998447,0.563,0.0051295000742847,0.9778154744706309,0.007875706405838248,0.03883539229244619
0.21100000000000008,0.0021,0.563,0.005116638719699836,0.9778154744706309,0.007810166599687851,0.03883539229244619
0.2120000000000002,-0.006999999999996048,-0.437,0.005062850076400637,0.9778154744706309,0.007536066602548276,0.03883539229244619
0.21300000000000008,0.0108,0.563,0.0050694805354897276,0.9630954346124863,0.00756985456792313,0.0366975224016554
0.2140000000000002,0.0038999999999995115,0.563,0.005050826159878174,0.9616108296276185,0.007474794272884165,0.036481905302282486
0.21500000000000008,0.0017,-1.437,0.005032691704161038,0.9616108296276183,0.007382383422650495,0.03648190530228247
0.2160000000000002,0.0035999999999987787,-0.437,0.005090128977117222,0.9630954346124863,0.007675076366501518,0.0366975224016554
0.21700000000000008,-0.0019,0.563,0.005079892125379048,0.9630954346124863,0.007622910688766463,0.0366975224016554
0.2180000000000002,-0.00039999999999831246,1.563,0.00507336131251143,0.9645777546085701,0.007589630507699693,0.03691280763992133
0.21900000000000008,0.0072,-0.437,0.0050738021692413905,0.9645777546085701,0.007591877056803915,0.03691280763992133
0.2200000000000002,0.0082999999999992,0.563,0.005102974688958777,0.9645777546085701,0.007740536459247124,0.03691280763992133
0.22100000000000009,0.0047,0.563,0.005217273331740014,0.9645777546085701,0.008322987618781408,0.03691280763992133
0.2220000000000002,-0.0029999999999989566,0.563,0.005238774222584718,0.9734232461634629,0.008432553388757235,0.038197485551577
0.2230000000000001,0.0017,-0.437,0.005158962256886123,0.9616108296276193,0.008025841893023812,0.03648190530228261
0.2240000000000002,-0.006599999999997757,2.563,0.005162217967833175,0.9616108296276192,0.008042432576605665,0.0364819053022826
0.2250000000000001,0.0035,-0.437,0.00517975528315098,0.9526556650602652,0.008131800476288644,0.03518129899413937
0.2260000000000002,0.003900000000000244,-0.437,0.005176451220367269,0.9616108296276197,0.00811496339797591,0.03648190530228266
0.2270000000000001,0.005,-0.437,0.00517179829138529,0.9894344498896956,0.008091252671279256,0.040522878056726434
0.2280000000000002,0.0038999999999987786,-0.437,0.0052345640271352425,0.9894344498896956,0.008411098775108792,0.040522878056726434
0.2290000000000001,-0.0016,0.563,0.005255976914677578,0.9894344498896956,0.008520216091592432,0.040522878056726434
0.2300000000000002,-0.0023000000000018652,-2.437,0.005235099213342041,0.9807333782138864,0.008413826015075352,0.039259175014303434
0.2310000000000001,-0.0107,-1.437,0.005309807738011447,0.9807333782138863,0.008794531032755005,0.03925917501430342
0.2320000000000002,-0.009600000000000554,0.563,0.0051996709829202695,0.9807333782138863,0.008233288316750239,0.03925917501430342
0.2330000000000001,-0.0121,-0.437,0.0052114663531466045,0.9850940283474018,0.00829339600393087,0.039892495488606176
0.23399999999999999,-0.0037,-0.437,0.005212767370366498,0.9865432951472574,0.008300025820084954,0.04010298023491069
0.2350000000000001,0.0017,-0.43699999999997224,0.005223827182459497,0.9792765340947379,0.00835638519777352,0.03904758977350805
0.236,-0.0048,0.563,0.005242695129019615,0.9792765340947379,0.00845253382285392,0.03904758977350805
0.2370000000000001,-0.0041,0.5630000000000277,0.005360922164049704,0.9792765340947382,0.00905500356322848,0.0390475897735081
0.238,-0.0048,1.5629999999999722,0.0053748763397082665,0.9719544164502325,0.00912611224479201,0.037984159579033755
0.2390000000000001,0.0064,0.563,0.0053709487158478345,0.9704833636610234,0.009106097579560143,0.03777051073731042
0.24,0.0017,0.563,0.005416612717153003,0.9836426262476675,0.009338795447723603,0.03968170062131269
0.2410000000000001,-0.0059,-2.437,0.00548171763415857,1.0179023046021165,0.009670561717895805,0.04465741641610574
0.242,0.0031,-0.437,0.005522617787321896,1.01930492504873,0.009878983629612675,0.044861126463763216
0.2430000000000001,0.0021,0.563,0.005508723970061805,1.01930492504873,0.00980818252667232,0.044861126463763216
0.244,0.0031,0.563,0.005512095125064118,1.020705618061787,0.00982536149828815,0.04506455657996625
0.2450000000000001,-0.0059,-0.437,0.0055273760907866,1.0193049250487303,0.00990323133109884,0.04486112646376325
0.246,0.0028,-0.437,0.005521847608010198,1.0193049250487303,0.00987505889505562,0.04486112646376325
0.2470000000000001,-0.0074,0.563,0.005534602013008766,1.020705618061787,0.009940053699891623,0.04506455657996625
0.248,0.0075,0.563,0.005524217692132267,0.995194576093432,0.0098871365384248,0.04135945190413415
0.2490000000000001,-0.0107,-0.437,0.005355860539433973,0.995194576093432,0.009029210176230852,0.04135945190413415
0.25,0.006,0.563,0.00532227070461461,1.0037703003035547,0.00885804070507144,0.04260495006563559
0.2510000000000001,-0.0005,1.563,0.005340466334521317,1.003770300303555,0.00895076329109464,0.042604950065635624
0.252,-0.0023,-2.437,0.005418045721697179,0.9923191962555151,0.009346097854279478,0.040941845155829854
0.2530000000000001,-0.0005,-0.437,0.005415996111844327,0.9994911356428315,0.009335653306502377,0.04198346416110971
0.254,-0.0019,-0.437,0.005423580028194028,0.9994911356428314,0.00937429996725187,0.041983464161109686
0.2550000000000001,0.0025,-0.437,0.005415298318201377,0.9923191962555158,0.00933209743998846,0.04094184515582995
0.256,0.0014,0.563,0.005398705985791918,0.9923191962555158,0.009247545051472659,0.04094184515582995
0.2570000000000001,0.0003,-0.437,0.0053947918190172615,0.9908783773717619,0.009227598961816347,0.040732587345433745
0.258,0.0105,1.563,0.005380997232859878,0.9980606703574194,0.009157303527792328,0.04177571005901656
0.2590000000000001,0.0094,-1.437,0.005424441906066578,0.9980606703574197,0.009378691985862315,0.04177571005901661
0.26,0.0008,0.563,0.005424059907588913,0.9908783773717623,0.009376745370829605,0.04073258734543381
0.2610000000000001,0.004,-0.437,0.005417677720196514,0.9908783773717623,0.009344222566038451,0.04073258734543381
0.262,0.0033,1.563,0.005575031150749143,0.9894354603654547,0.010146075377689875,0.040523024813509806
0.2630000000000001,0.0008,-0.437,0.005597986573363241,0.9980606703574197,0.010263053254188123,0.04177571005901661
0.264,0.0001,0.563,0.005495944636256926,0.9980606703574197,0.009743060687850717,0.04177571005901661
0.2650000000000001,-0.0083,0.563,0.005482635325121361,0.9966281519202661,0.009675238152824213,0.04156765776674657
0.266,-0.0006,-0.437,0.005479975222626663,0.9879904360439438,0.00966168261318861,0.04031315622496048
0.2670000000000001,0.0001,0.563,0.005497850013899551,0.9879904360439438,0.009752770246864658,0.04031315622496048
0.268,0.0008,0.563,0.005505015268613596,0.9879904360439438,0.009789283461851312,0.04031315622496048
0.26900000000000013,0.0084,0.563,0.005511611429897751,0.9763542764796009,0.009822896650030496,0.03862317471561819
0.27,0.011,0.563,0.005485820184955941,0.9763542764796009,0.00969146778826403,0.03862317471561819
0.27100000000000013,0.0048,-1.437,0.0054223586797223396,0.9879904360439437,0.009368076132775623,0.04031315622496046
0.272,-0.0042,0.563,0.005492127769162325,0.9865432951472555,0.009723610424829717,0.04010298023491042
0.27300000000000013,0.0019,-0.437,0.005648295829463533,0.9937569200621501,0.010519422742380618,0.041150653451669995
0.274,0.0052,-0.437,0.005650443384744407,0.9951935714652239,0.010530366407441483,0.04135930599662179
0.27500000000000013,0.0005,-1.437,0.005756636866494918,0.9616108296276168,0.011071514710479092,0.03648190530228224
0.276,-0.0021,-2.437,0.00574960848986552,0.9894344498896928,0.011035699008579012,0.04052287805672601
0.27700000000000014,-0.0112,0.563,0.005790059815559547,1.0023449444463286,0.01124183375333079,0.04239793803304656
0.278,-0.005,-0.437,0.005776986718972161,1.003769304258409,0.011175214937212382,0.04260480540468716
0.27900000000000014,-0.0039,-0.437,0.005765304645789269,1.005191645750057,0.011115684597170088,0.042811379644887605
0.28,-0.0104,0.563,0.005770326179120934,1.003769304258409,0.011141273684148719,0.04260480540468716
0.28100000000000014,-0.0043,-0.437,0.005781676399617418,0.9894354603654547,0.01119911294565071,0.040523024813509806
0.28200000000000003,-0.0036,1.5629999999999444,0.005707610698209396,0.9937579261427255,0.010821683672501857,0.0411507995701174
0.28300000000000014,-0.0028,0.563,0.005636471433817956,0.9937579261427255,0.01045916714540262,0.0411507995701174
0.28400000000000003,-0.0036,0.5629999999999444,0.005548342455678946,0.9937579261427255,0.01001007322567968,0.0411507995701174
0.28500000000000014,0.0055,-0.437,0.005545252434414352,0.9951945760934332,0.0099943268753753,0.04135945190413433
0.28600000000000003,0.012,-0.437000000000111,0.005559062680948324,0.9951945760934333,0.010064702112661026,0.04135945190413434
0.28700000000000014,-0.0043,-2.436999999999889,0.0055393550270286356,0.9937579261427257,0.009964274447048298,0.041150799570117434
0.28800000000000003,-0.0021,-0.436999999999889,0.005526420572253091,0.9923191962555161,0.009898362131743043,0.04094184515583
0.28900000000000015,-0.0079,1.563,0.005524727374611142,0.9807343976545828,0.00988973381467928,0.039259323073112466
0.29000000000000004,0.0088,2.563,0.005492424854300185,0.9923191962555166,0.009725124332421413,0.04094184515583007
0.29100000000000015,0.0067,0.563,0.005491084612737777,0.9923191962555166,0.009718294634070798,0.04094184515583007
0.29200000000000004,0.0009,0.563,0.005462915970075978,0.9660588350613465,0.009574750859782297,0.03712791285270223
0.29300000000000015,0.0027,0.563,0.005465065375489913,0.9675366149735023,0.009585703952882902,0.03734253871036696
0.29400000000000004,0.0042,-0.437,0.005471655417119173,0.9675366149735023,0.009619285956089083,0.03734253871036696
0.29500000000000015,-0.0002,0.563,0.005463446582202393,0.967536614973502,0.00957745479082446,0.03734253871036691
0.29600000000000004,-0.0067,0.563,0.005440700190469758,0.9675366149735015,0.009461542108770553,0.03734253871036685
0.29700000000000015,-0.0031,0.563,0.00549309661704592,0.9807354170942194,0.009728547548836449,0.03925947113176758
0.29800000000000004,-0.002,-0.437,0.005443352500895047,0.9792775550520264,0.009475057941024235,0.03904773805257984
0.29900000000000015,-0.0045,-1.437,0.0053927499066783145,0.990879386375037,0.009217193639578503,0.04073273388836042
0.30000000000000004,-0.0052,0.563,0.0052860249407617535,0.9923202037937484,0.008673336961697089,0.04094199148598069
0.30100000000000016,-0.0092,0.563,0.005290731151652516,0.9908793863750365,0.008697319206137068,0.040732733888360344
0.30200000000000005,-0.0023,-1.437,0.005377303352798721,0.9792775550520241,0.009138479990850427,0.0390477380525795
0.30300000000000016,-0.0048,0.563,0.005394976121617167,0.9601260117000098,0.009228538144123399,0.03626625727609969
0.30400000000000005,-0.0009,0.563,0.005411260535048575,0.9616129090529435,0.009311521417193519,0.036482207308312045
0.30500000000000016,-0.003,0.563,0.005418540293336179,0.9630975108323984,0.009348618127640547,0.03669782394214574
0.30600000000000005,0.0035,-0.437,0.005414535408283178,0.9980626738409033,0.009328209749324225,0.04177600103560754
0.30700000000000016,0.0028,-1.437,0.005420853511738779,0.9980626738409033,0.009360405990628819,0.04177600103560754
0.30800000000000005,-0.007,0.563,0.00542131603697619,0.9994931362589492,0.009362762959655649,0.04198375472125779
0.30900000000000016,0.002,0.563,0.005335759803416364,0.9865453220203095,0.008926779414884393,0.0401032746084934
0.31000000000000005,0.001,0.563,0.0052561975385041395,0.9908803953772864,0.00852134036219158,0.04073288043113813
0.31100000000000017,0.0133,-0.437,0.0052657671810941884,1.0235032071135106,0.008570106028058416,0.04547086535753227
0.31200000000000006,0.0086,-1.437,0.005376525147505287,1.0359892238822934,0.009134514356924363,0.04728427616097653
0.31300000000000017,-0.002,0.563,0.005366737907810933,1.024898162495152,0.00908463984424509,0.04567346216692594
0.31400000000000006,-0.0009,-0.437,0.005380832503860548,1.0332273781562518,0.009156464090032316,0.04688315857721899
0.31500000000000017,0.0002,-0.437,0.005444120966296576,1.0332273781562518,0.009478973941715855,0.04688315857721899
0.31600000000000006,0.0057,-0.437,0.005513484167453113,1.0645532734439533,0.009832439879364477,0.0514327854113194
0.31700000000000017,-0.0034,0.563,0.005588138012701484,1.089751721710795,0.010212866257758402,0.05509249043681383
0.31800000000000006,0.0027,0.563,0.005589251073335044,1.0962864397332697,0.010218538271361308,0.056041562384966645
0.3190000000000002,-0.0049,-0.437,0.005598511439679396,1.094982433388203,0.010265727905321384,0.0558521745891873
0.32000000000000006,-0.0002,1.563,0.005562279309425758,1.1053705070893864,0.010081093637012357,0.057360889932562394
0.3210000000000002,0.0099,-0.437,0.005568301666540632,1.1053705070893864,0.010111782793062981,0.057360889932562394
0.32200000000000006,0.0135,-1.437,0.005549094390671128,1.1053705070893864,0.010013904989534732,0.057360889932562394
0.3230000000000002,0.0023000000000023314,0.563,0.005540823224204931,1.1040772298298478,0.009971756190723899,0.05717306037909265
0.32400000000000007,0.0128,0.563,0.005635747706901537,1.1053705070893867,0.010455479126267861,0.05736088993256242
0.3250000000000002,-0.002100000000001288,-2.437,0.005614792653961471,1.1169417240714226,0.010348694875938622,0.05904143948433651
0.32600000000000007,-0.0079,1.563,0.005621921092201109,1.109241291823352,0.010385020478914436,0.05792306464242903
0.3270000000000002,-0.0031999999999996003,0.563,0.005619769171877086,1.0844957816951313,0.010374054570155994,0.054329142238332365
0.32800000000000007,-0.0014,0.563,0.005606265630829886,1.0831775810088744,0.010305242264520712,0.05413769292268333
0.3290000000000002,-0.0029000000000003107,-0.437,0.0056004841845744705,1.0831775810088744,0.010275780759175483,0.05413769292268333
0.33000000000000007,-0.0043,1.563,0.005596649691443565,1.094983346461868,0.01025624067614408,0.055852307199745085
0.3310000000000002,-0.005399999999998069,1.563,0.005505167804143552,1.105371411582156,0.00979006076326217,0.05736102129687099
0.3320000000000001,0.0033,0.563,0.005491544712885653,1.105371411582156,0.00972063924515376,0.05736102129687099
0.3330000000000002,-0.0068999999999991785,-0.437,0.005492205315030075,1.0936777864227358,0.009724005588582225,0.05566269375269075
0.3340000000000001,-0.0032,0.563,0.00549272019233338,1.0936777864227358,0.009726629336992795,0.05566269375269075
0.3350000000000002,-0.004299999999999267,-0.437,0.005538811625199508,1.092370666028816,0.009961505341328693,0.055472853686989176
0.3360000000000001,-0.001,-0.437,0.005512163750873681,1.0936777864227363,0.009825711206573233,0.05566269375269081
0.3370000000000002,0.0014999999999986456,-0.437,0.005400150840529273,1.093677786422736,0.009254907845086419,0.05566269375269078
0.3380000000000001,-0.0046,0.563,0.0053852079080984805,1.0685719243659433,0.009178760586384355,0.05201643551624539
0.3390000000000002,-0.0023999999999992005,1.563,0.005381330142582632,1.0685719243659437,0.009158999992853677,0.052016435516245456
0.3400000000000001,0.0012,0.563,0.005323520952454574,1.064553273443957,0.008864411807005574,0.05143278541131991
0.3410000000000002,0.0018999999999988009,0.563,0.005254428903474551,1.0318436831503852,0.008512327625918336,0.046682197172250854
0.3420000000000001,-0.0035,0.563,0.00521479680957332,1.0387427638394204,0.00831036758084829,0.04768418745361981
0.3430000000000002,0.003399999999999045,0.563,0.005214055660520216,1.0632094073539167,0.008306590780749324,0.05123760857220544
0.3440000000000001,-0.0009,0.5629999999999444,0.005210491679446459,1.0632094073539167,0.008288429192313485,0.05123760857220544
0.3450000000000002,0.003099999999997513,-0.436999999999889,0.005194278560140671,1.0884389679064566,0.008205809224923335,0.05490183220087411
0.3460000000000001,-0.0081,1.562999999999889,0.0052008619356136,1.0871255485651026,0.008239357258255593,0.0547110773054443
0.3470000000000002,-0.00019999999999966694,-0.436999999999889,0.0052261195605493825,1.1105267546529816,0.008368066861212872,0.05810975926456859
0.3480000000000001,0.0013,1.5629999999999444,0.005224438533918278,1.109239489148212,0.008359500566052494,0.057922802830304744
0.3490000000000002,0.00020000000000137668,0.5629999999999444,0.005224229927044079,1.1334449202573507,0.008358437532294545,0.06143828667821063
0.3500000000000001,0.0064,-0.4369999999999445,0.005291384875012401,1.1271256559433762,0.008700650496165667,0.06052050622116114
0.3510000000000002,0.009599999999998955,0.5629999999998889,0.005330655348922804,1.1258573691953564,0.008900767772346746,0.060336306172954046
0.3520000000000001,0.0049,-1.437,0.005264226134099001,1.1321837124525749,0.008562253051090339,0.06125511474268298
0.3530000000000002,0.004199999999998312,0.563,0.005261497221864321,1.124587652100623,0.00854834686588393,0.06015189838786569
0.3540000000000001,-0.0034,0.563,0.005257192556067809,1.1233164998088894,0.008526410843516765,0.05996728216146305
0.3550000000000002,0.001399999999999023,2.563,0.005278530847566144,1.1296570726173054,0.008635148028169722,0.06088815736479881
0.3560000000000001,-0.003,0.563,0.005307908274286534,1.1283916311281306,0.008784851610303887,0.06070437054870758
0.3570000000000002,-0.0007999999999988676,0.563,0.005318116555092638,1.1296570726173054,0.008836871694249654,0.06088815736479881
0.3580000000000001,0.0043,-0.437,0.005312029547612302,1.1233164998088894,0.008805853088264967,0.05996728216146305
0.3590000000000002,0.0020999999999988007,1.563,0.005271825387634301,1.1233164998088898,0.008600977868161894,0.05996728216146311
0.3600000000000001,-0.0033,2.563,0.005280082640617544,1.1334449202573493,0.008643055765655945,0.061438286678210434
0.3610000000000002,-0.011599999999997269,1.563,0.005279999097366917,1.1321837124525738,0.008642630040012882,0.06125511474268282
0.3620000000000001,0.0007,0.563,0.00511143672065098,1.13972914774897,0.0077836578826622135,0.06235097855069758
0.363,-0.004,-1.437,0.005038648927012792,1.132183712452573,0.007412740662886925,0.06125511474268272
0.3640000000000001,-0.0083,0.563,0.005052906930925858,1.1309210981446025,0.007485397614095914,0.06107173853319518
0.365,0.012,2.563,0.0050525990019943305,1.1309210981446025,0.0074838284479285975,0.06107173853319518
0.3660000000000001,0.0091,-2.437,0.005053066121756465,1.1384749016619984,0.007486208830061547,0.062168817702573584
0.367,0.0011,-1.437,0.00506805747451389,1.1459789148147526,0.007562602832510566,0.06325866555176231
0.3680000000000001,0.0033,-0.437,0.005061475664182262,1.1447315164202043,0.007529062774936755,0.0630774992305278
0.369,0.0055,1.563,0.0050870705173999015,1.166978131390134,0.007659490849776249,0.06630849376414062
0.3700000000000001,0.0113,0.563,0.005082901611140175,1.1669781313901342,0.007638246640519845,0.06630849376414066
0.371,-0.0014,-1.437,0.005087534428873784,1.157143262793554,0.00766185488288556,0.06488012334835819
0.3720000000000001,-0.0029,-0.437,0.005006026768355119,1.1645269864259113,0.007246502344790361,0.06595250090899386
0.373,-0.0105,0.563,0.00482048314743804,1.1682017752328175,0.006300995954533524,0.06648621008512445
0.3740000000000001,0.0019,1.563,0.004814887664073324,1.1669781313901342,0.006272482092123351,0.06630849376414066
0.375,-0.0029,-0.437,0.004647870454986426,1.1657532031388598,0.005421383909960047,0.06613059090164741
0.3760000000000001,-0.0014,-0.437,0.004643334839810932,1.149712120116514,0.005398270999308745,0.06380085886697676
0.377,-0.0105,-0.437,0.004576173813671674,1.138474023469229,0.005056027061861526,0.062168690157954266
0.3780000000000001,-0.0043,-0.437,0.004565239387387713,1.137218393097789,0.005000306634103474,0.06198632826281452
0.379,-0.0033,1.563,0.0045841124908561305,1.137218393097789,0.005096481538124251,0.06198632826281452
0.3800000000000001,-0.0025,1.563,0.004579988306503784,1.1372183930977893,0.005075465225946732,0.06198632826281455
0.381,0.0018,-0.437,0.004677550345089059,1.1258555931252123,0.00557262880652645,0.06033604822481521
0.3820000000000001,-0.0037,-0.437,0.004688750391121615,1.1156582756637565,0.005629702798305912,0.058855037427441644
0.383,-0.0029,0.563,0.00469471149306201,1.1143769378189452,0.005660079805878351,0.058668941898845826
0.3840000000000001,-0.008,-0.437,0.004763001563038938,1.1258555931252123,0.006008077205277641,0.06033604822481521
0.385,0.001,0.563,0.004777356381879979,1.1321819463066565,0.006081227512887782,0.061254858235892364
0.3860000000000001,0.0047,-0.437,0.004768108989276839,1.1321819463066565,0.006034103991441632,0.061254858235892364
0.387,-0.0015,-0.437,0.004789036994138078,1.1334431560766627,0.0061407504082455315,0.06143803045684091
0.3880000000000001,-0.0004,-0.437,0.004823802130362604,1.1334431560766627,0.006317909063962014,0.06143803045684091
0.389,0.0004,-1.437,0.004855380531149841,1.133443156076663,0.006478828526408896,0.061438030456840945
0.3900000000000001,-0.0022,-0.437,0.004967878295946544,1.1334431560766627,0.007052102643725112,0.06143803045684091
0.391,0.0019,-1.437,0.004976532313922527,1.1559070475233442,0.007096202404510454,0.0647005812119111
0.3920000000000001,-0.0003,-2.437,0.0049839032322070475,1.1559070475233442,0.007133763654558437,0.0647005812119111
0.393,0.0019,0.563,0.005149742344724252,1.1779426204069716,0.007978858408366306,0.06790092497783967
0.39400000000000013,-0.001,-2.437,0.005156504942075203,1.1839906925067647,0.0080133197333014,0.06877931874335147
0.395,0.0026,-0.437,0.005216265426652411,1.182783383138414,0.008317851464294444,0.06860397476518701
0.39600000000000013,0.0084,-2.437,0.005211466886479075,1.1827833831384142,0.008293398721724432,0.06860397476518704
0.397,-0.0028,-0.437,0.005150444414878733,1.1791540382348122,0.007982436067432076,0.06807686564948634
0.39800000000000013,0.0019,-2.437,0.00520505275971756,1.1803650598013156,0.008260713158022728,0.06825274876998572
0.399,0.0095,0.563,0.005242854556585478,1.1767282561648942,0.008453346245191923,0.06772455638274012
0.40000000000000013,-0.0083,-0.437,0.0052496423380411295,1.182782537843825,0.00848793590508033,0.06860385199854588
0.401,0.0037,-1.437,0.005211028551310852,1.1827825378438253,0.008291165022173997,0.0686038519985459
0.40200000000000014,0.0015,-0.437,0.005126941117395961,1.182782537843826,0.00786266629118092,0.068603851998546
0.403,-0.0043,-0.437,0.005230744783306835,1.1755134879458333,0.008391636400558485,0.06754812911590885
0.40400000000000014,0.0048,-1.437,0.005240324458104115,1.1742974630936922,0.00844045318926101,0.06737151934155369
0.405,0.0063,-0.437,0.005251610947393266,1.1730801777005628,0.00849796768474036,0.06719472649210834
0.40600000000000014,0.0048,0.563,0.005250884231179309,1.1546686428580655,0.008494264432530431,0.0645207210979421
0.40700000000000003,0.0012,0.563,0.005247140077269835,1.1534306421650977,0.00847518470653384,0.06434091965502621
0.40800000000000014,-0.0025,0.5630000000000555,0.005257070243850623,1.1521913112721742,0.00852578755621438,0.06416092502007677
0.40900000000000003,-0.0036,1.562999999999889,0.0052397709440757155,1.1596065665805775,0.008437632553076583,0.06523788209418349
0.41000000000000014,-0.001,-0.4370000000000555,0.005247683794708633,1.1484652943072338,0.008477955420559668,0.06361977570535433
0.41100000000000003,0.0015,-1.4369999999999445,0.005237535032020991,1.1194899174175739,0.008426238633278394,0.05941152719355124
0.41200000000000014,-0.0007,-0.437,0.005122998188971106,1.1156546910476892,0.007842573635860306,0.058854516814533374
0.41300000000000003,-0.0043,-0.437,0.005125383064316154,1.1220385611145993,0.00785472665339636,0.059781680309625156
0.41400000000000015,-0.0007,-0.4370000000000555,0.005114997697555771,1.1156546910476892,0.007801804162240004,0.058854516814533374
0.41500000000000004,0.0007,-1.437,0.005048168953623994,1.1447271494488584,0.007461253492117142,0.06307686499199011
0.41600000000000015,0.0069,-1.4369999999999445,0.004903323475977087,1.1156546910476894,0.006723139597184808,0.05885451681453341
0.41700000000000004,-0.0022,-0.437,0.004849906882295424,1.0910546488078907,0.00645093551696835,0.05528172148765471
0.41800000000000015,-0.0058,-2.437,0.004848615001503352,1.0831701967833156,0.006444352258873475,0.05413662047222524
0.41900000000000004,0.0044,-0.437,0.004841445444027264,1.0831701967833156,0.00640781711756574,0.05413662047222524
0.42000000000000015,-0.0022,0.563,0.004830650356806619,1.0712342499056924,0.006352806743724529,0.05240309925260503
0.42100000000000004,0.004,-1.437,0.004706460002288259,1.1014797661326317,0.005719948695439226,0.056795816874033254
0.42200000000000015,0.0007,1.563,0.004704853661559994,1.093670473092281,0.005711762990018594,0.0556616315987067
0.42300000000000004,-0.0,-0.437,0.004711215445731031,1.0936704730922806,0.005744181822622051,0.055661631598706636
0.42400000000000015,0.0025,-0.437,0.004630678145830457,1.1040708909432349,0.005333774117233707,0.057172139748784476
0.42500000000000004,0.0003,-1.437,0.004627606182303566,1.093670473092279,0.005318119786834443,0.05566163159870641
0.42600000000000016,-0.0004,-0.437,0.004673237646029851,1.1014797661326303,0.005550651847687441,0.05679581687403306
0.42700000000000005,0.0003,-0.437,0.004801787583128895,1.1258520409765205,0.006205725767197611,0.06033553232731703
0.42800000000000016,-0.0044,0.563,0.00470505561461522,1.1334396277070504,0.00571279211677221,0.06143751801290527
0.42900000000000005,0.0021,-0.437,0.004711348699149349,1.1346994395746361,0.00574486086487595,0.06162048720903026
0.43000000000000016,0.0104,-0.437,0.004757488623915765,1.1233111595379075,0.005979983977688933,0.0599665065654286
0.43100000000000005,-0.0063,0.563,0.004838867900426453,1.113090532089866,0.006394682287418053,0.0584821103343907
0.43200000000000016,-0.0041,-0.437,0.004855214481848985,1.114373349081177,0.00647798236056239,0.05866842068732094
0.43300000000000005,-0.0106,1.563,0.00493209754861394,1.1447271494488502,0.006869768564634017,0.06307686499198892
0.43400000000000016,-0.0049,-1.437,0.005257041174454263,1.1434783855285562,0.008525639422315283,0.06289550034816797
0.43500000000000005,-0.0031,-0.437,0.005208761734474727,1.1509497772086739,0.00827961361559098,0.0639806104069149
0.43600000000000017,-0.0046,0.563,0.005235908679336357,1.1509497772086739,0.008417950949506073,0.0639806104069149
0.43700000000000006,-0.006,-0.437,0.005227136355156068,1.1509497772086739,0.008373248315543924,0.0639806104069149
0.43800000000000017,-0.0072,0.563,0.005242529862806397,1.1509497772086739,0.00845169164752114,0.0639806104069149
0.43900000000000006,-0.0108,1.563,0.0052529088585272455,1.152190443533964,0.008504581672680757,0.06416079899382884
0.44000000000000017,-0.0032,-2.437,0.0052833380257324425,1.152190443533964,0.008659644788839117,0.06416079899382884
0.44100000000000006,0.0033,0.563,0.005287490375915036,1.152190443533964,0.008680804630459222,0.06416079899382884
0.44200000000000017,0.0134,-2.437,0.005302936107480195,1.1447271494488502,0.008759514088778871,0.06307686499198892
0.44300000000000006,0.0043,-1.437,0.005322968420696074,1.1220394521709929,0.008861596176342015,0.05978180972249721
0.4440000000000002,0.0079,-0.437,0.005358795337461158,1.1220394521709929,0.009044165528913429,0.05978180972249721
0.44500000000000006,-0.0022,-0.437,0.005359077700829547,1.105364175619275,0.00904560441626437,0.05735997037939227
0.4460000000000002,0.0014,-1.437,0.005379608248683852,1.1169354581940147,0.009150225443361793,0.05904052945754455
0.44700000000000006,0.0075,0.563,0.005346174532304687,1.0936713872612582,0.008979851531662274,0.05566176436834253
0.4480000000000002,0.006399999999997979,-1.437,0.00535806889147947,1.0949769549302224,0.009040463653772327,0.055851378923518075
0.44900000000000007,-0.0027,-1.437,0.0053554141888431375,1.071236116536011,0.009026935631119337,0.05240337035328095
0.4500000000000002,0.0008999999999992673,-0.437,0.005295458128522123,1.069901579051483,0.008721407271330141,0.05220954835729462
0.45100000000000007,-0.0024,0.563,0.005297030553031883,1.069901579051483,0.008729420144070394,0.05220954835729462
0.4520000000000002,-0.011499999999998622,-0.437,0.005296037439801238,1.0632047055414358,0.008724359366980985,0.051236925702904
0.45300000000000007,-0.0053,-0.437,0.005300339402975234,1.0645476383890708,0.008746281617131967,0.05143196700224698
0.4540000000000002,0.004799999999999178,-0.437,0.00532261470903362,1.0765577232217243,0.00885979370727568,0.05317625567245505
0.45500000000000007,0.0011,1.563,0.005308001025933488,1.0805317288128258,0.008785324260748394,0.0537534216978819
0.4560000000000002,0.0022000000000002443,-0.437,0.00527724235646909,1.0805317288128258,0.008628582043524,0.0537534216978819
0.4570000000000001,0.0033,-0.437,0.005282045763224724,1.0805317288128258,0.008653059585570482,0.0537534216978819
0.4580000000000002,0.0006999999999990452,-1.437,0.005348254730335599,1.079208686240496,0.008990451952854365,0.05356126916929664
0.4590000000000001,-0.0036,-0.437,0.005344403521113457,1.0858068573316075,0.008970826686775409,0.054519556745003764
0.4600000000000002,0.00030000000000079936,0.563,0.005387405724298252,1.0752297907489583,0.009189960374613252,0.052983392957551535
0.4610000000000001,0.0039,-1.437,0.0054360557085037335,1.0765577232217254,0.009437874426979052,0.053176255672455215
0.4620000000000002,0.0016999999999991117,-1.437,0.0054360557085037335,1.0805317288128278,0.009437874426979052,0.05375342169788219
0.4630000000000001,-0.0023,0.563,0.005446394240618684,1.0884352936472341,0.009490558254815578,0.05490129856861235
0.4640000000000002,-0.0007999999999996892,2.563,0.0054488327090039266,1.0897471344175391,0.009502984375580552,0.05509182419975017
0.4650000000000001,0.0006,0.563,0.0055202681795483806,1.089747134417539,0.009867010331077942,0.05509182419975014
0.4660000000000002,-0.005599999999998779,-0.437,0.005519840597177202,1.081853153383367,0.009864831426396051,0.05394533923543859
0.4670000000000001,-0.0001,-0.437,0.005477861808433173,1.075230720596343,0.009650912926710964,0.0529835280042461
0.4680000000000002,0.0019999999999985568,-0.437,0.005476751073932798,1.076558651922146,0.009645252766783107,0.05317639055257006
0.4690000000000001,-0.0045,-0.43699999999983347,0.0054938635566360245,1.0510439515343888,0.009732455774189606,0.04947075454497779
0.4700000000000002,0.0030999999999994448,2.5629999999998336,0.005477187335673959,1.052402402397163,0.009647475900416341,0.04966804960841723
0.4710000000000001,0.0006,-0.437,0.005489549596764214,1.076558651922146,0.009710472390411994,0.05317639055257006
0.4720000000000002,-0.003800000000000466,-0.436999999999889,0.005545419020404755,1.0699034480068856,0.0099951757761226,0.052209819795654915
0.4730000000000001,-0.0059,1.5629999999999444,0.005554891448308303,1.05781781561308,0.010043446048470331,0.050454558950244435
0.4740000000000002,0.0009000000000013767,0.5629999999998889,0.005575781231273462,1.0591675785930785,0.010149897691415596,0.05065059222613576
0.4750000000000001,0.0071,-1.4370000000000556,0.005605837365084404,1.0591675785930785,0.01030305987745141,0.05065059222613576
0.4760000000000002,0.011099999999998469,-2.4369999999999443,0.005611873762021473,1.063206586268923,0.010333820578627312,0.051237198850986924
0.4770000000000001,0.0042,-1.436999999999889,0.005643496867626511,1.0712379831630876,0.010494967851066782,0.05240364145348605
0.4780000000000002,0.0048999999999972685,0.5629999999999444,0.005687617486061776,1.0712379831630874,0.010719800838945517,0.05240364145348602
0.4790000000000001,-0.0074,-0.4369999999999445,0.0057238355049487296,1.0699034480068854,0.010904363197547765,0.05220981979565489
0.4800000000000002,-0.009199999999998935,0.563,0.005740662427391822,1.0712379831630876,0.01099011102665481,0.05240364145348605
0.4810000000000001,-0.0044,0.563,0.005646587188462942,1.07257085783906,0.010510715727950651,0.05259722195091809
0.4820000000000002,0.009400000000001999,2.563,0.005622003705188834,1.083173888902384,0.010385441464057584,0.05413715669836768
0.4830000000000001,0.0184,-0.437,0.005609704477904635,1.0844920940763982,0.01032276618621751,0.05432860666579764
0.4840000000000002,0.0036000000000003998,-1.437,0.005531014514713989,1.0725708578390598,0.009921772270726978,0.05259722195091805
0.4850000000000001,0.0054,0.563,0.005509669904250023,1.065890755243806,0.00981300288543918,0.051627035025922405
0.4860000000000002,0.0035999999999982457,-0.437,0.005572244072677373,1.0739020782175226,0.01013187278687065,0.052790562185900364
0.4870000000000001,-0.0043,-0.437,0.005554877107043354,1.0725708578390598,0.010043372967231609,0.05259722195091805
0.4880000000000002,0.0032999999999980016,0.563,0.005526158170145415,1.0739020782175226,0.009897024964405258,0.052790562185900364
0.4890000000000001,-0.0057,-1.437,0.005484260632332543,1.0805326540976536,0.009683520508998504,0.05375355608193201
0.49,0.003,-0.437,0.00540315100641557,1.0699034480068856,0.009270196303958264,0.052209819795654915
0.4910000000000001,-0.0045,-0.437,0.00548531140757219,1.045593455220486,0.009688875124257706,0.04867914989773143
0.492,0.0046,0.563,0.00548895848346866,1.0442261465246008,0.009707460153205722,0.04848056836395032
0.4930000000000001,-0.0065,0.563,0.005335324399603028,1.0179013223855302,0.008924560653140843,0.04465727376355274
0.494,0.0011,-1.437,0.005336143791182653,1.009445655113988,0.00892873616707567,0.043429212111506806
0.4950000000000001,-0.0054,1.563,0.005280155279755847,1.0179013223855302,0.00864342592534728,0.04465727376355274
0.496,0.0059,0.563,0.005275796980507619,1.0262873250702815,0.008621216593819288,0.04587521765613676
0.4970000000000001,0.0045,0.563,0.005280177017148452,1.0304552193777299,0.008643536696299761,0.04648054317385008
0.498,0.0009,0.563,0.005226460039967715,1.0290677969057764,0.008369801900467757,0.046279040409103515
0.4990000000000001,-0.0052,-0.437,0.005198798450144459,1.0207046385428087,0.008228842002125357,0.04506441431920123
0.5,-0.0084,-0.437,0.005198292934839493,1.0207046385428087,0.008226265961252298,0.04506441431920123
0.5010000000000001,-0.0036,0.563,0.005220729248248063,1.0221034133868758,0.008340598524111403,0.04526756584949224
0.502,0.0026,0.563,0.005232372809848821,1.0332244752092354,0.008399932614092246,0.04688273696674235
0.5030000000000001,-0.0065,1.563,0.00514899538314016,1.03460632352876,0.0079750519883582,0.04708343016760462
0.504,-0.0028,1.563,0.005129101514867866,1.0359863286742708,0.00787367539839293,0.04728385567447521
0.5050000000000001,0.0027,-0.437,0.005107138926315529,1.0373644980016867,0.007761756876375424,0.04748401455569345
0.506,0.0053,0.563,0.005140781664208865,1.0262882992609799,0.00793319593478477,0.04587535914304725
0.5070000000000001,-0.0085,-0.437,0.00513615051549955,1.0262882992609799,0.007909596197551853,0.04587535914304725
0.508,0.0014,-1.437,0.00512960623384164,1.0262882992609799,0.00787624738126482,0.04587535914304725
0.5090000000000001,-0.0077,0.563,0.0051371657664384856,1.0179023046021125,0.007914769785550908,0.04465741641610516
0.51,0.0073,0.563,0.00514978741737958,1.0179023046021123,0.007979088092811545,0.04465741641610513
0.5110000000000001,0.0015,1.563,0.0051516498005159915,1.0164977487432003,0.007988578557360423,0.04445342527819796
0.512,0.0034,-1.437,0.005143163271820346,1.0164977487432,0.007945332300371522,0.044453425278197935
0.5130000000000001,-0.0046,0.563,0.005145982629085153,1.008030307934385,0.007959699381800227,0.04322365369254541
0.514,-0.0089,-0.437,0.005147908388281117,1.0080303079343853,0.007969512802584407,0.043223653692545445
0.5150000000000001,0.0002,-0.437,0.0051614910528172235,0.9748898628489769,0.008038728311326382,0.038410490114302906
0.516,0.0013,0.563,0.0052003751889521145,0.9748898628489762,0.008236876859971914,0.038410490114302795
0.5170000000000001,-0.0019,0.563,0.005197242965207819,0.9748898628489757,0.00822091545126755,0.038410490114302726
0.518,0.0072,-0.437,0.005197887209242045,0.9763542764795943,0.008224198435873725,0.03862317471561723
0.5190000000000001,0.0011,0.563,0.005197507799784849,0.9778164969534376,0.008222265014155806,0.03883554079307713
0.52,-0.0043,-2.437,0.005184816218772428,1.0122733757524096,0.00815759035226016,0.04383989706010117
0.5210000000000001,0.0088,0.563,0.005250060338660712,0.9908783773717574,0.008490065982390417,0.0407325873454331
0.522,0.0033,-0.437,0.005362105650850976,0.9923191962555107,0.009061034459509669,0.040941845155829215
0.5230000000000001,0.0048,0.563,0.005398664033964309,0.9923191962555111,0.009247331270363444,0.04094184515582928
0.524,0.0063,-0.437,0.00536705549527413,0.9792765340947321,0.00908625822904557,0.03904758977350721
0.5250000000000001,0.0026,1.563,0.005368147282372292,0.9778164969534392,0.009091821835452573,0.038835540793077356
0.526,-0.006,-1.437,0.005321261172146845,0.9690111094453924,0.00885289625766481,0.037556687406020604
0.5270000000000001,-0.0071,-0.437,0.005235096795532886,0.9421012768123629,0.008413813694231363,0.03364842890218633
0.528,-0.0078,-0.437,0.005221791221944567,0.93448899019736,0.008346010205264147,0.032542855920651224
0.5290000000000001,-0.0049,0.563,0.005241258118902076,0.9344889901973604,0.008445211004412194,0.032542855920651294
0.53,0.0012,0.563,0.005191604441302868,0.9360166138025435,0.008192182259808868,0.03276472084367154
0.5310000000000001,0.0034,1.563,0.00514585504279576,0.9630964727230021,0.00795904921850529,0.03669767317198188
0.532,-0.0017,0.563,0.005138980552800965,0.9630964727230021,0.007924017703071298,0.03669767317198188
0.5330000000000001,0.0049,-0.437,0.005112923810141599,0.9360155456584573,0.007791235899137876,0.032764565711409475
0.534,-0.0005,0.563,0.004786074485890673,0.937540681905909,0.006125653847850376,0.03298606938220127
0.5350000000000001,-0.0089,-1.437,0.004795221345958827,0.9298910620374793,0.006172265068448955,0.0318750742931722
0.536,-0.0013,-0.437,0.004765687833900208,0.9283533587718062,0.006021766095538259,0.031651745447304015
0.5370000000000001,-0.002,0.563,0.0048174866176076145,0.9283533587718062,0.006285726024533999,0.031651745447304015
0.538,0.0023,-1.437,0.004846707506293323,0.9298910620374793,0.006434631909008832,0.0318750742931722
0.5390000000000001,-0.0053,0.563,0.004838954419119529,0.9298910620374793,0.006395123175532535,0.0318750742931722
0.54,-0.01,0.563,0.004819157832012603,0.9221779894823913,0.006294242317854113,0.03075486363206561
0.5410000000000001,-0.0039,-0.437,0.004818883225310875,0.9237259727863467,0.006292842957477251,0.030979685502717142
0.542,0.0037,-0.437,0.00480883895549337,0.9252713663106515,0.006241658652401308,0.031204131245858684
0.5430000000000001,0.0044,-0.437,0.004987732806654785,0.9237259727863468,0.00715327867261405,0.03097968550271716
0.544,0.0018,-1.437,0.004945536775668607,0.9237259727863468,0.006938253134448353,0.03097968550271716
0.5450000000000002,-0.0004,-1.437,0.0049467810743645205,0.9511568676392299,0.00694459392031078,0.03496362065157337
0.546,-0.0026,1.563,0.004957372892681279,0.937541748312403,0.00699856846200311,0.032986224262103556
0.5470000000000002,-0.0004,-0.437,0.004981400092033884,0.937541748312403,0.007121007974693313,0.032986224262103556
0.548,0.0035,-0.437,0.0049775649986341045,0.9496535991312697,0.0071014648327690525,0.0347452929492089
0.5490000000000002,-0.0026,-1.437,0.004981233045116491,0.9496535991312697,0.007120156725121448,0.0347452929492089
0.55,0.0049,0.563,0.004955647999693996,0.9496535991312697,0.006989778629542555,0.0347452929492089
0.5510000000000002,0.0042,1.563,0.004898144579555204,0.9511568676392299,0.006696748608170119,0.03496362065157337
0.552,0.0067,0.563,0.0048864792018888615,0.9511568676392299,0.006637303346329424,0.03496362065157337
0.5530000000000002,0.0027,0.563,0.0049235780446884436,0.9496535991312697,0.006826354270121705,0.0347452929492089
0.554,-0.0009,0.563,0.004884176695195675,0.9375417483124029,0.00662557006883243,0.032986224262103535
0.5550000000000002,-0.006,0.563,0.004902063102588355,0.9237259727863468,0.00671671689675854,0.03097968550271716
0.556,0.0004,-0.437,0.004913545404349316,0.9601260117000134,0.006775229227369452,0.03626625727610022
0.5570000000000002,-0.0021,-0.437,0.004888246355882982,0.9601260117000134,0.006646308535436708,0.03626625727610022
0.558,-0.0029,-0.437,0.004827772766847331,0.9601260117000134,0.006338142915986352,0.03626625727610022
0.5590000000000002,-0.0051,-0.437,0.004833922573314702,0.9526577640325873,0.006369481537519136,0.03518160383908355
0.56,0.0014,-0.437,0.004777272269844197,0.9645798276378508,0.006080798888788845,0.03691310871701926
0.5610000000000002,-0.0026,-1.437,0.004721378930195063,0.963097510832402,0.005795973630179335,0.036697823942146275
0.562,0.0024,-0.437,0.004720031615000163,0.9496535991312697,0.005789107885508773,0.0347452929492089
0.5630000000000002,-0.0027,0.563,0.004707761912187786,0.9421023380565238,0.005726583060573726,0.03364858303233544
0.5640000000000001,0.0038,0.563,0.004721483854079495,0.9496535991312698,0.005796508308777986,0.03474529294920892
0.5650000000000002,-0.0064,0.5629999999998889,0.004637377277372167,0.9496535991312698,0.005367912028580646,0.03474529294920892
0.5660000000000001,-0.0053,-0.436999999999889,0.004648894935515956,0.9496535991312698,0.005426604530763804,0.03474529294920892
0.5670000000000002,0.0008,0.563,0.004648264778731904,0.9571452874639148,0.005423393332969774,0.03583335079904474
0.5680000000000001,0.0019,0.563000000000222,0.004705884732552104,0.964578791123766,0.0057170171949706685,0.03691295817855098
0.5690000000000002,0.0026,2.562999999999889,0.004652177721753463,0.9660588350613449,0.005443333186537947,0.037127912852702005
0.5700000000000001,0.0088,1.562999999999889,0.004664566896232094,0.9645787911237659,0.005506466823693748,0.03691295817855097
0.5710000000000002,0.0109,0.5629999999998889,0.004664566896232094,0.9360166138025435,0.005506466823693748,0.03276472084367154
0.5720000000000001,0.0073,-0.437,0.0045850928246926465,0.9360166138025435,0.005101477193067436,0.03276472084367154
0.5730000000000002,0.0007000000000001555,-0.437,0.004626641149324775,0.9360166138025435,0.005313202103091151,0.03276472084367154
0.5740000000000001,0.0014,-0.437,0.004639395817084449,0.9344889901973606,0.005378198246923895,0.03254285592065132
0.5750000000000002,-0.0007999999999985567,-0.436999999999889,0.004750748139473746,0.9360166138025435,0.0059456353372891405,0.03276472084367154
0.5760000000000001,0.0057,0.563,0.004824846399392902,0.9237259727863468,0.00632323052441651,0.03097968550271716
0.5770000000000002,-0.0020000000000010435,0.563,0.004787750736501142,0.9237259727863468,0.006134195805024848,0.03097968550271716
0.5780000000000001,-0.0067,0.563,0.004735857039429148,0.9329588652699462,0.005869752209750018,0.03232062771726383
0.5790000000000002,0.0015999999999982903,0.563,0.00467163250226759,0.9344889901973606,0.005542472241851369,0.03254285592065132
0.5800000000000001,-0.0061,-2.437,0.004647124979186137,0.9344889901973608,0.0054175850613148,0.03254285592065134
0.5810000000000002,-0.003500000000000977,0.563,0.004653486030906532,0.9329588652699462,0.005450000161444138,0.03232062771726383
0.5820000000000001,-0.0079,-1.437,0.004643918880619712,0.9190742011704992,0.005401247196033497,0.030304083902980096
0.5830000000000002,-0.004000000000000155,0.563,0.0046411801317862095,0.9190742011704992,0.005387290884786653,0.030304083902980096
0.5840000000000001,-0.0047,0.563,0.004625259357210782,0.920627403335078,0.0053061606684822495,0.030529663736592216
0.5850000000000002,-0.0010999999999980017,-0.437,0.004625845617479559,0.920627403335078,0.0053091481752892316,0.030529663736592216
0.5860000000000001,0.0079,-0.437,0.004565984244811344,0.9128360601992466,0.005004102331580935,0.029398085421626093
0.5870000000000002,0.006799999999998068,0.563,0.0046422662697293,0.9143998585489719,0.005392825703827137,0.029625204195716657
0.5880000000000001,-0.0019,0.563,0.004645775214194293,0.9143998585489719,0.005410706832794596,0.029625204195716657
0.5890000000000002,0.0035999999999985345,0.563,0.004646285769515237,0.9049776405131107,0.00541330855693982,0.028256765221539006
0.5900000000000001,-0.003,0.563,0.004616323393995985,0.9033975322715798,0.005260624151080408,0.02802727767488062
0.5910000000000002,0.0032000000000023984,0.563,0.00450873856656137,0.9033975322715798,0.0047123857296713124,0.02802727767488062
0.5920000000000001,0.014,-0.437,0.004494461272484637,0.9175194593810936,0.004639630478273262,0.030078280461443528
0.5930000000000002,0.00019999999999960032,0.563,0.0044803197199900285,0.91907528900372,0.004567566948491332,0.030304241894800188
0.5940000000000001,-0.0016,2.563,0.004470477405450526,0.91907528900372,0.004517411781495986,0.030304241894800188
0.5950000000000002,-0.0063000000000003106,-0.437,0.004525666151570076,0.9097014979495024,0.004798646522245262,0.028942836229428445
0.5960000000000001,-0.0077,0.563,0.004562244196869324,0.9097014979495025,0.004985043529065554,0.02894283622942846
0.5970000000000002,-0.004099999999998624,1.563,0.004555068752063243,0.8954562849983099,0.004948478386682586,0.026873927982593294
0.5980000000000001,0.0021,0.563,0.004556293779344069,0.8970503814487075,0.00495472096789629,0.02710544711142473
0.5990000000000002,-0.001200000000000555,-0.437,0.004549413844994055,0.8970503814487075,0.004919661708729452,0.02710544711142473
0.6000000000000001,-0.0037,0.563,0.004545582385398565,0.8890524415836593,0.004900137084203741,0.025943863651690997
0.6010000000000002,-0.001200000000001199,0.563,0.004577791813823784,0.9018157641115856,0.005064272182204092,0.027797549049411435
0.6020000000000001,-0.0066,-0.437,0.0045617465098409605,0.9252724468579296,0.004982507380081614,0.031204288179502455
0.6030000000000002,0.0018000000000007105,0.563,0.00466936495815734,0.9601270530211378,0.005530917129173105,0.03626640851272049
0.6040000000000001,0.005,-0.437,0.00468384980507391,0.9719575023926468,0.0056047300431057755,0.03798460776690796
0.6050000000000002,0.0042999999999986235,2.563,0.0047318227393894205,0.9719575023926468,0.005849193936450607,0.03798460776690796
0.6060000000000001,-0.0019,0.563,0.004828527484726171,0.9719575023926468,0.00634198886107332,0.03798460776690796
0.6070000000000002,0.003599999999999822,-0.437,0.004828688906833655,0.9734263274494115,0.006342811447338485,0.03819793306316787
0.6080000000000001,0.0028,0.563,0.004832207340412252,0.9748929394994849,0.006360740931606468,0.038410936952663996
0.6090000000000002,0.002099999999999689,1.563,0.004824428464003725,0.9763573485155133,0.006321100779512166,0.03862362088377695
0.6100000000000001,0.0007,-0.437,0.004867574014941325,0.9778195643954669,0.006540964949032085,0.03883598629404175
0.6110000000000002,0.000999999999999689,-0.437,0.004865546984337818,0.9908814043785134,0.006530635462200963,0.04073302697376733
0.6120000000000001,-0.0004,0.563,0.004861763490488067,0.9951975899719746,0.006511355264936537,0.04135988962578795
0.6130000000000002,0.005799999999998778,-1.437,0.004863920299732898,1.003773288433065,0.006522346087005621,0.042605384047620105
0.6140000000000001,0.0003,-0.437,0.00489319578734466,1.0108639658940934,0.00667153020057413,0.043635200949974084
0.6150000000000002,-0.0032999999999995117,-0.437,0.004927900263407223,1.0108639658940934,0.006848379739919559,0.043635200949974084
0.6160000000000001,-0.0011,-1.437,0.004926615990440775,1.0108639658940943,0.006841835250324019,0.043635200949974216
0.617,-0.0076,-1.437,0.004955682732784716,1.0122763387817748,0.0069899556248985105,0.04384032739665776
0.6180000000000001,-0.0014,0.563,0.005249054171215203,1.012276338781775,0.008484938682703717,0.04384032739665779
0.619,-0.0036,-0.437,0.005245902805718076,1.0122763387817735,0.008468879730092782,0.043840327396657566
0.6200000000000001,-0.0043,-0.437,0.005272214600803992,0.9792795969634224,0.008602961248335764,0.03904803461026142
0.621,-0.0021,0.563,0.005212656266167984,0.9660609049124451,0.008299459647401893,0.03712821346821583
0.6220000000000001,0.007,-0.437,0.005128965935544572,0.9778195643954721,0.007872984503626902,0.03883598629404251
0.623,0.0059,-0.437,0.005127547899025306,0.979279596963425,0.007865758372197775,0.03904803461026181
0.6240000000000001,0.012,0.563,0.005137507470523839,0.9923222188671593,0.007916511065551168,0.04094228414583858
0.625,0.0088,0.563,0.0051456366963562455,0.9937609443783447,0.007957936553177154,0.041151237924572676
0.6260000000000001,-0.0003,-1.437,0.005206534452597908,0.9937609443783452,0.008268263674067649,0.04115123792457274
0.627,0.0008,-1.437,0.005259281340472914,0.9937609443783452,0.008537055019765639,0.04115123792457274
0.6280000000000001,-0.0003,0.563,0.005287226493492734,1.0051956242871523,0.0086794599196288,0.042811957469047555
0.629,-0.001,0.563,0.005265704721786702,1.0373683531487898,0.008569787743473544,0.047484574459266786
0.6300000000000001,0.0027,-0.437,0.00526528050255028,1.0373683531487898,0.008567625976893131,0.047484574459266786
0.631,-0.0017,-0.437,0.0052346154688256655,1.0108649549485957,0.008411360915336412,0.0436353445956341
0.6320000000000001,0.0005,0.563,0.0053290869023546236,1.0094506073250584,0.008892775170684339,0.043429931347530766
0.633,-0.0031,0.563,0.005273684290616073,1.0023499317391724,0.008610450598291042,0.042398662364183576
0.6340000000000001,-0.0009,0.563,0.0052989506197695406,1.000923552097375,0.008739204556820356,0.04219150164190139
0.635,-0.0049,0.563,0.0053880622586705024,1.008034275267777,0.009193305989198748,0.04322422988953175
0.6360000000000001,-0.0085,0.563,0.00539006438991824,1.0094506073250584,0.009203508592120433,0.043429931347530766
0.637,-0.0027,0.563,0.005332018203519719,1.0179062334589724,0.008907712703808173,0.04465798702493957
0.6380000000000001,0.0024,-0.437,0.005323514754785748,1.0428618386784227,0.008864380224483626,0.04828242265957576
0.639,0.0003,-0.437,0.005320335610850883,1.0428618386784227,0.008848179716532427,0.04828242265957576
0.6400000000000001,-0.0012,0.563,0.00532945266168637,1.0428618386784227,0.008894639033121392,0.04828242265957576
0.641,-0.0015,1.563,0.005327367278296756,1.042861838678422,0.008884012188009337,0.04828242265957566
0.6420000000000001,-0.0011,0.563,0.005317748970708124,1.0414909438192168,0.0088349985315788,0.04808332028817052
0.643,-0.0033,-0.437,0.005132784093625998,1.0496885050066738,0.00789244134535046,0.04927389581714116
0.6440000000000001,-0.0073,-0.437,0.005137354755466446,1.0564710599512646,0.007915732849291616,0.05025896244321092
0.645,-0.0058,-1.437,0.005135031839812801,1.023503207113518,0.007903895570361232,0.04547086535753333
0.6460000000000001,0.0003,-0.437,0.005189461253797878,1.023503207113517,0.008181260852371247,0.045470865357533204
0.647,0.0011,0.563,0.0051343180873263,1.034609222598535,0.007900258379636418,0.047083851214968844
0.6480000000000001,-0.0025,-0.437,0.005204101961995394,1.022106347919506,0.008255868015313398,0.04526799204731603
0.649,-0.0018,0.563,0.005249083242939877,1.0207075770969147,0.008485086828467605,0.045064841101085405
0.6500000000000001,0.0073,1.563,0.005248199257574068,1.0290707115785358,0.008480582152919424,0.04627946372257235
0.651,-0.0018,2.563,0.0052602925043047045,1.0276814199519504,0.008542207780393189,0.04607768949053036
0.6520000000000001,0.012,2.563,0.005273251959563908,1.0262902476396036,0.00860824749494258,0.04587564211646551
0.653,-0.0046,1.563,0.005283050035988098,1.02768141995195,0.008658177230201097,0.04607768949053029
0.6540000000000001,-0.0068,0.563,0.005279980241252877,1.0276814199519513,0.0086425339516848,0.04607768949053048
0.655,0.0113,0.563,0.005299564720714767,1.0605193946634595,0.00874233393612806,0.05084692368329247
0.6560000000000001,-0.0006,0.563,0.005285407038325276,1.0276814199519513,0.008670188210479681,0.04607768949053048
0.657,-0.0028,0.563,0.005294173936579376,1.0262902476396047,0.008714863194620944,0.04587564211646567
0.6580000000000001,-0.0009,0.563,0.005316624764501702,1.0276814199519513,0.008829269721572375,0.04607768949053048
0.659,0.0082,0.563,0.0053137777728699,1.0276814199519513,0.008814761818969353,0.04607768949053048
0.6600000000000001,0.0002,1.563,0.00533670552692519,1.0164997158878903,0.008931598700056212,0.044453710977112114
0.661,0.0017,1.563,0.005420508063342139,1.0164997158878903,0.00935864563010059,0.044453710977112114
0.6620000000000001,0.0028,-1.437,0.005544864972276287,1.0164997158878903,0.009992352418233028,0.044453710977112114
0.663,-0.006,-1.437,0.005548628449513854,1.0150932193083868,0.010011530613420323,0.04424943797800354
0.6640000000000001,-0.007,0.563,0.005518069126869563,1.0193068867758894,0.00985580424191111,0.0448614113758605
0.665,-0.0063,0.563,0.005540383470166077,1.031843683150384,0.009969515260791506,0.046682197172250695
0.6660000000000001,0.0075,0.563,0.005531093552554632,1.0332273781562544,0.00992217503738115,0.04688315857721938
0.667,0.0173,0.563,0.005532900424629661,1.0262912218275289,0.009931382624712217,0.04587578360297325
0.6680000000000001,0.0006,0.563,0.005481179688728771,1.0304591003737769,0.009667820417284282,0.04648110683160339
0.669,-0.0059,0.563,0.00550062411669387,1.0304591003737769,0.009766906717341485,0.04648110683160339
0.6700000000000002,0.0039,-0.437,0.005493471044928187,1.0304591003737769,0.009730455585090263,0.04648110683160339
0.671,0.0057,1.563,0.00551041106636017,1.0318446520951838,0.009816779752075155,0.04668233789727136
0.6720000000000002,0.0072,0.563,0.005528946635310334,1.0318446520951838,0.009911234623672485,0.04668233789727136
0.673,-0.0033,1.563,0.0054897686958761596,1.0318446520951838,0.009711588891261873,0.04668233789727136
0.6740000000000002,0.0032,0.563,0.005512091647951904,1.0332283458034472,0.009825343779372235,0.04688329911378167
0.675,-0.008,-0.437,0.005380561886740531,1.0442309337910007,0.009155085060049906,0.04848126364418015
0.6760000000000002,-0.0094,0.563,0.005307745701651649,1.0442309337910007,0.008784023161099304,0.04848126364418015
0.677,-0.0058,1.563,0.005318059085399585,1.0373683531487838,0.008836578836097165,0.04748457445926591
0.6780000000000002,-0.0047,2.563,0.005323401386878803,1.0551187950180407,0.008863802516234013,0.05006256579530973
0.679,-0.0015,0.563,0.0053668644681456636,1.0792142447435684,0.009085284779407234,0.05356207646034144
0.6800000000000002,-0.0022,-0.437,0.005367857383324447,1.0778895850425187,0.009090344547249872,0.053369689067528016
0.681,-0.0106,-0.437,0.005367145889137845,1.0778895850425187,0.009086718864530425,0.053369689067528016
0.6820000000000002,0.0018,0.563,0.005370447622382638,1.1027833425086446,0.009103544071812924,0.056985142223113905
0.683,0.0065,-0.437,0.005370290443020731,1.1027833425086448,0.009102743106032665,0.05698514222311393
0.6840000000000002,0.0108,-1.437,0.005361823528984993,1.1027833425086448,0.009059596802823873,0.05698514222311393
0.685,0.0018,0.563,0.005391554775174739,1.1092412918233547,0.00921110340339446,0.05792306464242941
0.6860000000000002,0.0007,-1.437,0.005394351727517977,1.1079525328152138,0.009225356312229071,0.05773589129870606
0.687,0.0061,-2.437,0.005340693193353378,1.1079525328152138,0.008951919334478614,0.05773589129870606
0.6880000000000002,-0.0004,0.563,0.0053340047398718355,1.106662272989077,0.008917835837150724,0.05754849998318128
0.6890000000000001,-0.0048,0.563,0.0053665375039528,1.107952532815214,0.009083618612000294,0.05773589129870609
0.6900000000000002,-0.0026,0.5629999999998889,0.005367832130565537,1.115661860268312,0.009090215862443555,0.05885555803867797
0.6910000000000001,-0.0004,-0.437000000000111,0.005392431105136477,1.115661860268312,0.009215569067989671,0.05885555803867797
0.6920000000000002,0.0018,-1.437,0.005397558686881735,1.105370507089389,0.009241698564022694,0.05736088993256278
0.6930000000000001,-0.0022,-1.436999999999889,0.005396908024326849,1.1040772298298502,0.009238382871462074,0.057173060379093005
0.6940000000000002,0.0003,-0.437,0.005405063624392498,1.1040772298298502,0.009279942758783103,0.057173060379093005
0.6950000000000001,-0.0098,-0.43699999999977795,0.005394874018283752,1.105370507089389,0.009228017838689383,0.05736088993256278
0.6960000000000002,0.0014,1.562999999999778,0.005387826505317096,1.0988898102046663,0.0091921046204798,0.056419663762341185
0.6970000000000001,0.0094,-0.437,0.005423034872176533,1.100189185315846,0.009371521922414323,0.05660837893932471
0.698,-0.0072,-0.437000000000111,0.005446542776903858,1.100189185315846,0.009491315176590213,0.05660837893932471
0.6990000000000003,-0.0006999999999974243,-1.436999999999889,0.005446291368294029,1.1014870276132362,0.009490034030701262,0.05679687149758704
0.7000000000000002,0.0051,-0.437,0.005458642240636902,1.100189185315846,0.009552972485107369,0.05660837893932471
0.7010000000000001,-0.0039,-0.436999999999889,0.005413089433848654,1.0897517217107977,0.009320841249877934,0.05509249043681422
0.702,0.0073,0.563,0.005411783870901963,1.057821596219682,0.009314188269285675,0.05045510802790327
0.7030000000000003,-0.00030000000000288655,0.563000000000222,0.005363575859171593,1.0248971869830967,0.009068526451717653,0.045673320488107724
0.7040000000000002,-0.0068,2.563,0.005448545759751723,1.0122743634298312,0.009501522119156447,0.04384004050576041
0.7050000000000001,0.0019,-0.437,0.005421914700037691,1.010861987782196,0.009365813669496612,0.04363491365823392
0.706,-0.0036,-0.437,0.005304567477095931,1.009447636001331,0.008767827338185805,0.04342949980633971
0.7070000000000003,-0.006099999999996314,0.563,0.00531914808395291,1.0094476360013311,0.0088421282324389,0.04342949980633974
0.7080000000000002,0.0022,0.563,0.0053656704150075426,1.0080312997691978,0.00907920003843463,0.04322379774200474
0.7090000000000001,-0.0054,0.563,0.005366034921628044,1.0066129707092402,0.009081057517216556,0.043017806248657024
0.71,0.0095,-0.437,0.005303654850698021,1.0051926403858038,0.008763176711627609,0.04281152410114153
0.7110000000000003,0.011699999999993872,-0.437,0.0053133866893597705,0.9923191962555141,0.00881276890778155,0.040941845155829715
0.7120000000000002,-0.0021,-0.437,0.0053464093864594945,0.9792765340947343,0.008981048318180999,0.03904758977350752
0.7130000000000001,-0.0003,1.563,0.005388333517764837,0.9704843938688,0.009194688290599575,0.037770660359879936
0.714,-0.005,1.563,0.005378567683707445,0.9630964727230013,0.009144922858288763,0.03669767317198175
0.7150000000000003,-0.0007000000000004885,0.563,0.00534472843106994,0.9630964727230013,0.008972482386058382,0.03669767317198175
0.7160000000000002,-0.0018,0.563,0.005354714662095939,0.9630964727230013,0.009023370932929431,0.03669767317198175
0.7170000000000001,-0.0007,1.563,0.00530547292874897,0.9616118693408424,0.008772441403168399,0.036482056305378804
0.718,0.0048,0.563,0.005032102850148119,0.9601249703777588,0.007379382698457488,0.03626610603931579
0.7190000000000003,0.0021999999999963143,-0.437,0.00503248422022388,0.9586357651520181,0.0073813261112350495,0.036049820822427754
0.7200000000000002,-0.0061,0.563,0.005012631665207958,0.9586357651520181,0.0072801600483022345,0.036049820822427754
0.7210000000000001,-0.005,0.563,0.004997598544105569,0.9601249703777588,0.007203553199747922,0.03626610603931579
0.722,-0.0025,-0.437,0.004985794596324278,0.9466388443933081,0.007143401802452206,0.0343074440408827
0.7230000000000003,0.007699999999997069,0.563,0.004977457492502551,0.9466388443933081,0.007100916995371717,0.0343074440408827
0.7240000000000002,0.0011,1.563,0.00496856329355351,0.9616108296276146,0.007055593303288052,0.036481905302281924
0.7250000000000001,0.0,0.563,0.004958119981962579,0.9601239290543757,0.007002375532739739,0.036265954802367474
0.726,0.0033,0.563,0.004906576672931775,0.9616108296276146,0.00673971746978543,0.036481905302281924
0.7270000000000003,0.0025000000000019095,-2.437,0.004876063324812158,0.9616108296276146,0.006584225378531468,0.036481905302281924
0.7280000000000002,0.0068,-2.437,0.004853092587696505,0.9496514935189708,0.006467169461306126,0.034744987139905474
0.7290000000000001,0.0014,-0.437,0.004835602479114728,0.9128338696608055,0.006378042121068727,0.02939776727804612
0.73,-0.0026,-0.437,0.0048353071719590135,0.9112673839689551,0.006376537273845001,0.029170258206927098
0.7310000000000003,0.002499999999999023,-2.437,0.004879121050132221,0.9128338696608055,0.006599807152862914,0.02939776727804612
0.7320000000000002,0.0003,0.563,0.004768256332517914,0.9143976717567787,0.006034854833617226,0.02962488659622424
0.7330000000000001,0.0006,0.563,0.004800211755715341,0.9221758211347895,0.00619769555369799,0.03075454871137957
0.734,0.0057,-1.437,0.004941475141187448,0.9237238080724781,0.006917555568356659,0.030979371109777554
0.7350000000000003,-0.005199999999999378,-0.437,0.004841751073278818,0.9159588040018584,0.006409374564860155,0.029851618157718748
0.7360000000000002,-0.0038,0.563,0.0048497128908073575,0.9159588040018584,0.006449946961335361,0.029851618157718748
0.7370000000000001,-0.0002,-0.437,0.004849175841833198,0.9206263173358701,0.006447210228946291,0.0305295060111356
0.738,-0.0064,0.563,0.00481698228589427,0.9283533587718052,0.006283156015091371,0.03165174544730387
0.7390000000000003,0.0011999999999971133,-1.437,0.004843990550919379,0.92681310426029,0.006420786654424442,0.03142804607039618
0.7400000000000002,-0.0053,0.563,0.0048204490932272715,0.93448792030716,0.006300822418662351,0.03254270053479174
0.7410000000000001,-0.0028,0.563,0.004819924643765024,0.9344879203071608,0.006298149891762902,0.03254270053479186
0.742,-0.0007,-0.437,0.004819856603961487,0.9344879203071603,0.006297803169689041,0.03254270053479179
0.7430000000000003,0.0043999999999951595,-0.437,0.0048235433627337974,0.9268131042602904,0.006316590417460351,0.03142804607039625
0.7440000000000002,-0.0065,0.563,0.004820173269937219,0.9175183697032425,0.006299416858708108,0.03007812220171795
0.7450000000000001,-0.0051,0.563,0.004867487900200266,0.9175183697032425,0.006540526119405049,0.03007812220171795
0.746,-0.0062,0.563,0.004801952417182446,0.9541552516680863,0.006206565740300397,0.03539909195451101
0.7469999999999999,-0.0052,0.563,0.004809704982000968,0.9541552516680901,0.006246071811921524,0.03539909195451156
0.7480000000000002,0.0024,0.563,0.004716868759686715,0.9556514389672072,0.005772990382273999,0.03561639121515154
0.7490000000000001,-0.0041,-0.437,0.0046696183890236566,0.95714528746392,0.005532208580220605,0.035833350799045496
0.75,0.002,0.563,0.004688176334868216,0.9481479472259011,0.005626777481589158,0.034526619093328124
0.7509999999999999,0.0013,-0.437,0.004663292567143347,0.9496535991312766,0.005499973006817993,0.0347452929492099
0.7520000000000002,0.0096,-0.437,0.00465397901608412,0.9630975108324091,0.005452512350402227,0.03669782394214731
0.7530000000000001,0.0106,-0.437,0.004597283474316012,0.9704854240754923,0.005163599173135001,0.037770809982291965
0.754,0.0041,-0.437,0.004608871012285563,0.9704854240754909,0.005222647773908239,0.03777080998229175
0.7549999999999999,0.0015,-0.437,0.004559331129257721,0.9436165769452107,0.00497019891178145,0.033868504021598064
0.7560000000000002,-0.004,0.563,0.004560694319920134,0.9571452874639206,0.004977145555789366,0.03583335079904558
0.7570000000000001,-0.0076,-0.437,0.004548725439687758,0.9571452874639206,0.004916153683969705,0.03583335079904558
0.758,-0.0011,-0.437,0.004571186001247004,0.9571452874639206,0.00503060981228098,0.03583335079904558
0.7589999999999999,0.001,-0.437,0.0045657826286504,0.9571452874639205,0.005003074921597182,0.03583335079904556
0.7600000000000002,0.0032,-0.437,0.004580042116523641,0.9556514389672073,0.0050757394348760546,0.03561639121515156
0.7610000000000001,-0.0062,-0.437,0.0044800516619464825,0.9571452874639205,0.004566200959232958,0.03583335079904556
0.762,-0.0073,-0.437,0.004345089769529344,0.9923202037937566,0.0038784525414170268,0.040941991485981884
0.7629999999999999,0.005,0.563,0.00434050305528461,0.9923202037937566,0.003855079236491519,0.040941991485981884
0.7640000000000002,0.0035,0.563,0.00436288207476319,0.9807354170942275,0.003969119836864062,0.03925947113176875
0.7650000000000001,-0.0071,0.563,0.004337424504936358,1.002346939366439,0.0038393913404991212,0.04239822776593314
0.766,0.002,-0.437,0.00433861607524795,1.0009205554603071,0.0038454634293075773,0.04219106642431892
0.7669999999999999,-0.0042,-0.437,0.004336854851650993,1.0009205554603058,0.0038364884607402752,0.042191066424318725
0.7680000000000002,-0.0009,-0.437,0.004412765761510169,0.9966291551023743,0.004223320678454394,0.041567803464234124
0.7690000000000001,0.0038,0.563,0.004421664178052074,0.9951945760934263,0.004268665862847977,0.04135945190413333
0.77,-0.0006,0.563,0.004491966248107275,0.9966291551023746,0.0046269161554580536,0.04156780346423417
0.7709999999999999,-0.0046,-0.437,0.004496751568783349,1.008031299769192,0.004651301533172967,0.0432237977420039
0.7720000000000002,0.0066,0.563,0.004544116784020896,1.0080312997691911,0.004892668568383547,0.043223797742003765
0.7730000000000001,-0.0014,-2.437,0.004537409872231078,1.0080312997691911,0.004858491009894508,0.043223797742003765
0.774,0.0001,-0.437,0.004489775409710857,1.0066129707092335,0.004615751925216157,0.04301780624865605
0.7749999999999999,-0.0036,0.563,0.004494903411081839,0.9937579261427165,0.004641883559607815,0.041150799570116095
0.7760000000000002,0.0076,0.563,0.004496446078940787,0.9937579261427172,0.004649744796288817,0.04115079957011619
0.7770000000000001,0.0033,0.563,0.004533609624024276,1.0051926403857958,0.004839125434584865,0.04281152410114037
0.778,0.0022,-0.437,0.0045265957774494915,0.9792775550520194,0.004803383775971317,0.03904773805257882
0.7789999999999999,-0.0014,-0.437,0.004475753877475358,0.9645798276378423,0.004544300003213505,0.036913108717018035
0.7800000000000002,-0.0069,0.563,0.004473500989613083,0.977818541915847,0.004532819576886887,0.03883583779387366
0.7810000000000001,0.0022,0.563,0.004479933245698295,0.9865453220202977,0.004565597525286709,0.04010327460849168
0.782,0.0058,-1.437,0.004495187882999931,0.9586378510306832,0.004643333191856422,0.03605012376571031
0.7829999999999999,0.0134,0.563,0.004495929800312312,0.9586378510306824,0.004647113906905697,0.0360501237657102
0.7840000000000003,0.0044,0.563,0.004602744083225901,0.9571463320278816,0.005191425732698049,0.03583350250664031
0.7850000000000001,0.0033,0.563,0.004593484538588208,0.9481490017021191,0.005144240286049256,0.0345267722405328
0.786,0.0,1.563,0.004613442254586368,0.9481490017021191,0.005245942235800601,0.0345267722405328
0.7869999999999999,0.0025,2.563,0.004599847726443658,0.9481490017021191,0.0051766662716476565,0.0345267722405328
0.7880000000000003,0.0051,-0.437,0.004612199860021292,0.9481490017021191,0.00523961115314363,0.0345267722405328
0.7890000000000001,-0.0003,-1.437,0.004776969237840069,0.9556524851640007,0.006079254676732727,0.03561654315989125
0.79,-0.0025,0.563,0.004778012137520476,0.9748919139503792,0.006084569159156579,0.038410788006698116
0.7909999999999999,-0.0003,-0.437,0.004845273217454256,0.9748919139503792,0.0064273229578516375,0.038410788006698116
0.7920000000000003,0.0026,0.563,0.004865408661767341,0.9865453220202965,0.006529930588200683,0.040103274608491515
0.7930000000000001,0.0012,-0.437,0.004882368153113135,0.9879924599481656,0.006616353971358218,0.04031345016736413
0.794,-0.0068,-0.437,0.0048667393145697775,0.9879924599481656,0.006536711423465716,0.04031345016736413
0.7949999999999999,-0.0057,2.563,0.004881056283654329,0.9879924599481656,0.006609668853592634,0.04031345016736413
0.7960000000000003,-0.0031,1.563,0.004901658959391138,0.9879924599481656,0.006714657435087701,0.04031345016736413
0.7970000000000002,-0.0006,0.563,0.004868880021910244,0.9879924599481658,0.006547620192304424,0.04031345016736415
0.798,-0.0027,0.563,0.004884415955101056,0.9951955807206107,0.006626789306488524,0.041359597811497
0.7989999999999999,0.0042,-0.437,0.005011615285388076,0.9951955807206107,0.007274980707671297,0.041359597811497
0.8000000000000003,0.0017,0.563,0.004995456690712011,0.9966301582834681,0.007192638590770294,0.041567949161574365
0.8010000000000002,0.0025,1.563,0.005039131770105824,1.0290707115785218,0.007415201169088632,0.046279463722570316
0.802,-0.0011,-1.437,0.005148169707383581,1.030458130126121,0.007970844451067143,0.046480965917362
0.8029999999999999,-0.0033,0.563,0.0051915197842976515,1.0564701135926315,0.008191750858615895,0.0502588249984997
0.8040000000000003,0.0007,-1.437,0.005083971238468739,1.0578215962196675,0.007643697323595621,0.05045510802790117
0.8050000000000002,0.0022,1.563,0.005130339549143915,1.0591713543818215,0.007879984261578715,0.05065114060407124
0.806,-0.0014,-0.437,0.005174588475725337,1.060519394663445,0.00810547109124147,0.05084692368329038
0.8069999999999999,-0.0076,0.563,0.005172684260014057,1.0672331185962725,0.008095767453279983,0.05182199361444493
0.8080000000000003,0.0,0.563,0.005118010324369408,1.0672331185962725,0.007817156120392344,0.05182199361444493
0.8090000000000002,-0.0065,-0.437,0.00514244733306752,1.0685709887242036,0.007941683968715153,0.052016299628005754
0.81,-0.0003,0.563,0.00514150669824151,1.0685709887242039,0.007936890614815437,0.05201629962800578
0.8109999999999999,-0.0043,2.563,0.005131574418741765,1.0699071859078804,0.00788627699797208,0.05221036267095066
0.8120000000000003,-0.0006,-0.437,0.005115683501033988,1.0699071859078804,0.007805298928419025,0.05221036267095066
0.8130000000000002,0.0044,0.563000000000222,0.005101196223015418,1.0818577741486697,0.007731473625903739,0.053946010333826094
0.8140000000000001,0.0016,2.562999999999667,0.005077655223602126,1.0818577741486697,0.007611511725471453,0.053946010333826094
0.815,0.0012,-0.436999999999889,0.005078045950575142,1.0818577741486697,0.0076135028197920574,0.053946010333826094
0.8160000000000003,-0.0013,0.5629999999997779,0.00502963192955692,1.0818577741486697,0.0073667912054314905,0.053946010333826094
0.8170000000000002,-0.0082,-1.436999999999889,0.0050256425250638235,1.08185777414867,0.007346461714054217,0.05394601033382613
0.8180000000000001,-0.0056,-0.436999999999889,0.005019252048668429,1.0818577741486697,0.007313896669571596,0.053946010333826094
0.819,0.0082,0.563000000000111,0.005040239568047018,1.11309861603939,0.007420846364689184,0.05848328440949189
0.8200000000000003,0.0064,1.562999999999889,0.005045144157541326,1.1118143282556257,0.00744583952093748,0.058296760445529845
0.8210000000000002,0.0082,0.5629999999998889,0.00506291886729346,1.1118143282556259,0.007536417152076379,0.05829676044552988
0.8220000000000001,0.0002,-0.437,0.005070778497171216,1.1194970620775255,0.007576468813447122,0.059412564850618604
0.823,-0.0041,-0.437,0.005028605020539697,1.1296597277563312,0.00736155820936729,0.06088854298479941
0.8240000000000003,0.0023999999999984012,-0.436999999999889,0.0051951674249607095,1.135965775490615,0.008210338765541692,0.06180440392749621
0.8250000000000002,-0.0012,0.563000000000111,0.005220341955491145,1.135965775490615,0.008338624930113635,0.06180440392749621
0.8260000000000001,-0.0067,1.562999999999889,0.005208566685078054,1.1347073695767103,0.008278619668992016,0.0616216389255223
0.827,-0.0001,0.563000000000111,0.005152634085463844,1.1334475665232158,0.007993594346657992,0.06143867100951479
0.8280000000000003,-0.0008999999999996447,1.563,0.005142420745919372,1.133447566523216,0.007941548484033178,0.06143867100951483
0.8290000000000002,-0.0001,1.5629999999996669,0.005183452229054049,1.144735009985278,0.008150639636365978,0.06307800661961468
0.8300000000000001,0.0035,-1.436999999999889,0.005218843689975347,1.1559122372025432,0.008330989962053365,0.06470133493669782
0.831,-0.0045,-0.436999999999889,0.005278365415353125,1.1546755698464792,0.008634305006923342,0.06452172714141116
0.8320000000000003,-0.0009000000000039968,0.5629999999998889,0.005298501739374174,1.1546755698464792,0.008736917120150841,0.06452172714141116
0.8330000000000002,-0.0099,-0.437,0.0052668542276767495,1.147228442863316,0.008575645477408592,0.06344014117400691
0.8340000000000001,0.0049,-0.437,0.005098984190829768,1.145982404577091,0.007720201394842122,0.06325917238855767
0.835,0.0067,-0.437,0.005094553812707984,1.1521982531542465,0.007697624758659774,0.06416193322663129
0.8360000000000003,0.0012999999999979126,0.563,0.005111035608297961,1.162074973091665,0.00778161386578297,0.06559638193583754
0.8370000000000002,-0.0034,-0.437,0.005128082713824301,1.1521982531542465,0.007868483719518012,0.06416193322663129
0.8380000000000001,-0.014,-1.437,0.005141800710196662,1.1220465805967261,0.00793838886186394,0.05978284502178245
0.839,-0.0016,-2.437,0.00517652200712694,1.1220465805967261,0.008115324118184363,0.05978284502178245
0.8400000000000003,0.009599999999998046,0.563,0.005176461777602591,1.1156627564176371,0.008115017196287117,0.05885568819122365
0.8410000000000002,0.0052,1.563,0.005172767246077399,1.1156627564176371,0.008096190339568418,0.05885568819122365
0.8420000000000001,0.0041,0.563,0.0051729560090448545,1.1271283170455766,0.008097152251333915,0.060520892707225396
0.843,-0.0021,-0.437,0.005166629686151778,1.1271283170455768,0.008064914124834779,0.060520892707225424
0.8440000000000003,-0.007499999999999689,0.563,0.005252220819955998,1.128395175282264,0.00850107551675558,0.06070488528511342
0.8450000000000002,-0.0068,0.563,0.005215705895532247,1.1296606128012912,0.008315000165785513,0.06088867152459891
0.8460000000000001,-0.0025,0.563,0.005186282761334121,1.0988907200316587,0.008165063664232895,0.05641979590136741
0.847,-0.0065,-1.437,0.005184588818223174,1.1118143282556257,0.00815643154835515,0.058296760445529845
0.8480000000000003,-0.011499999999995203,0.563,0.005198750383041923,1.1347064884681044,0.008228597058362892,0.06162151095742051
0.8490000000000002,-0.0007,0.563,0.005199275087356003,1.1347064884681044,0.008231270883954448,0.06162151095742051
0.8500000000000001,0.0069,2.563,0.005182367154151034,1.1359648953580888,0.008145110234440776,0.06180427610115567
0.851,0.0106,0.563,0.005196328199886473,1.135964895358089,0.008216253925031058,0.06180427610115571
0.8520000000000003,0.011699999999995471,-2.437,0.005232988489628184,1.1245894301732164,0.008403070038935326,0.06015215662683091
0.8530000000000002,0.0015,0.563,0.0052488862080447675,1.1169417240714112,0.00848408276402438,0.059041439484334865
0.8540000000000001,0.008,0.563,0.005238671002412088,1.1169417240714112,0.008432027392054453,0.059041439484334865
0.855,0.0069,0.563,0.005238984834285055,1.1092412918233407,0.008433626638850916,0.057923064642427385
0.8560000000000003,0.0036999999999978686,-1.437,0.005321975791097078,1.0975888968358416,0.008856537863777185,0.05623072517599635
0.8570000000000002,-0.0011,-0.437,0.005324032879412688,1.0988898102046523,0.008867020520837118,0.05641966376233915
0.8580000000000001,0.0051,0.563,0.005289193090971141,1.0988898102046523,0.008689481447039479,0.05641966376233915
0.859,-0.0003,-0.437,0.005292683786695969,1.0975888968358416,0.008707269582777876,0.05623072517599635
0.8600000000000003,0.0003999999999977352,0.563,0.0052543123457444215,1.0975888968358416,0.008511733662740694,0.05623072517599635
0.8610000000000002,-0.0047,-0.437,0.00527631954080761,1.0975888968358416,0.008623879493791243,0.05623072517599635
0.8620000000000001,-0.0062,1.563,0.005293954466701473,1.0739048712060721,0.008713744804395504,0.05279096782652246
0.863,0.0011,0.563,0.005295826680532655,1.0752344399778255,0.008723285364898534,0.05298406818985433
0.8640000000000003,-0.0035999999999988897,0.563,0.005281421494606054,1.073904871206071,0.00864987839310872,0.0527909678265223
0.8650000000000002,-0.0011,0.563,0.005309377824916026,1.041489023877474,0.008792340251002626,0.048083041444792154
0.8660000000000001,-0.0003,-0.437,0.005349119076194632,1.0428599212605458,0.008994856548005997,0.04828214418275188
0.867,0.0033,-0.437,0.005351045360394338,1.0428599212605474,0.009004672644141619,0.048282144182752104
0.8680000000000003,-0.004699999999995959,2.563,0.005293987229502008,1.0346082562428425,0.00871391175940649,0.04708371086597802
0.8690000000000002,0.0044,-0.437,0.0053405244130222225,1.034608256242843,0.008951059251653517,0.04708371086597809
0.8700000000000001,-0.0043,0.563,0.00532741062857806,1.034608256242842,0.00888423309545843,0.04708371086597796
0.871,-0.0054,-1.437,0.005289199729593473,1.0235022302719037,0.008689515276603684,0.04547072348561618
0.8720000000000003,0.0011000000000053291,1.563,0.005231478142320472,1.0221053697428975,0.00839537350361985,0.04526784998151054
0.8730000000000002,0.0131,2.563,0.005250087258612276,1.0221053697428975,0.008490203162995728,0.04526784998151054
0.8740000000000001,0.0051,-0.437,0.005267620652706439,1.0221053697428975,0.00857955108062816,0.04526784998151054
0.875,0.0007,-0.437,0.005264250216338468,1.0235022302719046,0.008562375771080358,0.04547072348561631
0.8759999999999999,-0.0004,-0.437,0.005267032688299905,1.023502230271904,0.008576554889754697,0.04547072348561621
0.8770000000000002,0.0007,0.563,0.0052254423426875835,1.0193059059127803,0.008364615846229105,0.044861268919880196
0.8780000000000001,-0.0069,1.563,0.0052301589109548935,1.0193059059127796,0.008388650870525722,0.0448612689198801
0.879,0.0062,1.563,0.005299308037201935,1.0401163196214975,0.008741025910012926,0.04788367628504437
0.8799999999999999,-0.0105,-0.437,0.005455902797083303,1.029069740021872,0.009539012633656408,0.04627932261821674
0.8810000000000002,0.0051,0.563,0.005623585312230523,1.0207065975798253,0.010393501129797646,0.045064698840594726
0.8820000000000001,-0.0007,-0.437,0.005631466484259228,1.0290697400218738,0.010433662567194538,0.046279322618217
0.883,-0.0025,-0.437,0.005650180398764262,1.0401163196215053,0.010529026264764813,0.0478836762850455
0.8839999999999999,-0.0039,-1.437,0.005574658513557493,1.0401163196215053,0.010144176466564767,0.0478836762850455
0.8850000000000002,-0.0053,1.563,0.00566713690130704,1.0524052524439336,0.0106154344173672,0.04966846353590907
0.8860000000000001,-0.0042,0.563,0.005902612726487129,1.0524052524439338,0.011815388888225978,0.0496684635359091
0.887,0.0045,-0.437,0.005901197439506971,1.0510468052647715,0.011808176768093944,0.04947116900746026
0.8879999999999999,-0.0079,-0.437,0.005894655979144597,1.0510468052647715,0.011774842328765522,0.04947116900746026
0.8890000000000002,0.0001,0.563,0.005874948786299274,1.0442290188870815,0.011674417012728358,0.04848098553247175
0.8900000000000001,0.0015,0.563,0.005873113684700557,1.019306886775895,0.011665065571381136,0.044861411375861304
0.891,0.0005,1.563,0.005813789385322161,1.0179042690324427,0.011362756583971375,0.044657701720798346
0.8919999999999999,-0.0006,0.563,0.0058253094441638,1.0318427142046733,0.011421461319801514,0.04668205644709771
0.8930000000000002,0.0095,0.563,0.005909818741279386,1.0318427142046727,0.011852109811320441,0.04668205644709762
0.8940000000000001,-0.0028,0.563,0.005908547537211503,1.0318427142046727,0.011845631919148437,0.04668205644709762
0.895,-0.0013,-0.437,0.005861320471596303,1.0304571598775796,0.011604968876616752,0.046480825002991964
0.8959999999999999,-0.0028,-2.437,0.00584276806646921,1.0304571598775796,0.011510428210030647,0.046480825002991964
0.8970000000000002,-0.0039,-2.437,0.005916280599419017,1.0304571598775796,0.011885038607976215,0.046480825002991964
0.8980000000000001,-0.0028,0.563,0.0058819786374781835,1.0235022302719028,0.011710240228742798,0.04547072348561605
0.899,0.0005,0.563,0.005836815877031987,1.030457159877577,0.011480096619426254,0.04648082500299158
0.8999999999999999,-0.0042,0.563,0.005841264391580873,1.0290697400218631,0.011502765676504762,0.046279322618215456
0.9010000000000002,-0.0067,-0.437,0.005801512955753351,0.9951945760934252,0.011300197480352093,0.04135945190413316
0.9020000000000001,0.0042,-0.437,0.005810875418700938,0.9951945760934244,0.011347907385450058,0.04135945190413305
0.903,-0.0002,0.563,0.005699971892068953,0.9675366149734922,0.010782757300449705,0.0373425387103655
0.9039999999999999,0.0009,-0.437,0.00570054100877554,0.9792775550520175,0.010785657445872222,0.03904773805257855
0.9050000000000002,0.0096,-0.437,0.005644156585848507,0.9792775550520175,0.010498329690140433,0.03904773805257855
0.9060000000000001,0.002,0.563,0.005601753237908871,0.9792775550520183,0.010282247691486718,0.03904773805257866
0.907,0.0045,0.563,0.005602127363786933,0.9836446590977591,0.01028415418876601,0.03968199586297271
0.9079999999999999,0.0019,-0.437,0.005609001059699729,0.9850960582023676,0.01031918165766043,0.0398927902952681
0.9090000000000003,0.0012,-0.437,0.0055873751238068314,0.9836446590977583,0.010208978674227452,0.0396819958629726
0.9100000000000001,0.0048,0.563,0.005659678711169697,0.9836446590977583,0.01057742844119969,0.0396819958629726
0.911,-0.0061,-1.437,0.005662636184373753,0.9821911152404342,0.010592499343662553,0.03947088993680232
0.9119999999999999,0.0015,0.563,0.00565338146615721,1.00944763600132,0.010545338491834194,0.043429499806338125
0.9130000000000003,-0.0021,-0.437,0.005624139253061098,0.9980616720996536,0.01039632394091098,0.04177585554738354
0.9140000000000001,-0.0057,-0.437,0.005632566151054156,1.00944763600132,0.010439266327521183,0.043429499806338125
0.915,0.0066,0.563,0.005625804377270155,1.00944763600132,0.010404809199377172,0.043429499806338125
0.9159999999999999,0.0019,0.563,0.0056928532679689035,1.008031299769187,0.010746481709064963,0.043223797742003155
0.9170000000000003,-0.0025,-0.437,0.005771145475750018,1.008031299769187,0.01114544871422782,0.043223797742003155
0.9180000000000001,-0.009,-0.437,0.005764635835941951,1.008031299769187,0.011112276428344985,0.043223797742003155
0.919,0.0073,0.563,0.005746077646936717,0.9734242732598488,0.011017706287860963,0.038197634722262654
0.9199999999999999,0.0008,0.563,0.005732113861432493,0.9734242732598488,0.010946548635761888,0.038197634722262654
0.9210000000000003,0.0026,-0.437,0.005745701397512817,0.97195544509878,0.011015788969265637,0.0379843089751481
0.9220000000000002,0.0044,-0.437,0.005721006350595836,0.9645787911237537,0.010889946191420245,0.03691295817854919
0.923,0.0059,-0.437,0.00576110968211304,0.9792765340947229,0.011094307602675933,0.03904758977350588
0.9239999999999999,0.0015,0.563,0.005635821875170368,0.9436155174040333,0.01045585707821138,0.03386835013878231
0.9250000000000003,-0.0021,0.563,0.005660058184732704,0.9526556650602485,0.010579362189592562,0.03518129899413693
0.9260000000000002,-0.001,-1.437,0.005689464678212323,0.9526556650602485,0.01072921389218735,0.03518129899413693
0.927,0.0022,0.563,0.005692116545551132,0.9526556650602486,0.010742727466529404,0.035181298994136946
0.9279999999999999,-0.0086,2.563,0.005711213112399778,0.9511547653547698,0.010840041111149024,0.034963315325589724
0.9290000000000003,-0.013,0.563,0.005683584646981369,0.9466377882348642,0.010699250010506601,0.034307290649359376
0.9300000000000002,-0.0141,-0.437,0.005649959881004361,0.9329567219788929,0.0105279025346677,0.03232031643567396
0.931,-0.0054,-1.437,0.00555391903640642,0.9344868504157233,0.010038490762685521,0.03254254514875265
0.9319999999999999,-0.0047,1.563,0.005534536705721704,0.9466377882348642,0.00993972090236971,0.034307290649359376
0.9330000000000003,-0.0036,-0.437,0.0055514110308464435,0.9556493465701205,0.010025710289435961,0.03561608732516385
0.9340000000000002,0.0113,1.563,0.005546347986837108,0.9690100776712761,0.009999909669391375,0.03755653755596323
0.935,0.0178,-0.437,0.0055496299973663765,0.9690100776712762,0.010016634372256264,0.03755653755596325
0.9359999999999999,-0.0003,-0.437,0.005526305145083729,0.9690100776712762,0.009897773929757431,0.03755653755596325
0.9370000000000003,0.0019,-0.437,0.005511543885617677,0.9807333782138701,0.00982255245308037,0.03925917501430107
0.9380000000000002,0.0131,0.563,0.005535854706260313,0.9807333782138701,0.009946437263328159,0.03925917501430107
0.9390000000000001,-0.0006,0.5629999999998889,0.005496532442596124,0.9807333782138701,0.009746056073233401,0.03925917501430107
0.94,0.0048,-0.43700000000022204,0.0055700713449050535,0.9923181887162439,0.010120800846036128,0.040941698825528276
0.9410000000000003,-0.0064,-2.4369999999996668,0.005587142582200949,0.9923181887162439,0.010207793672160143,0.040941698825528276
0.9420000000000002,-0.0108,0.5629999999998889,0.005590053985926858,0.979275513136366,0.010222629810497093,0.039047441494278905
0.9430000000000001,-0.0017,-0.437,0.005597682100415349,0.9865422817091513,0.010261501699268214,0.04010283304788986
0.944,-0.0006,-0.436999999999889,0.005531152301025024,0.9850930134183276,0.009922474412018222,0.03989234808504409
0.9450000000000003,0.0049,0.563,0.005534490140028061,0.9836416098210283,0.009939483609593548,0.03968155300025126
0.9460000000000002,0.0096,0.563,0.005554864175035175,0.9923171811759619,0.010043307067383846,0.04094155249507989
0.9470000000000001,0.0012,0.5629999999997779,0.005553899911363612,0.9645767180922423,0.010038393303931085,0.036912657101127296
0.948,-0.0089,-1.436999999999889,0.005543526535428505,0.9375396154981894,0.00998553191647566,0.03298591450212099
0.9490000000000003,-0.0023999999999995115,-0.437,0.005541857110233329,0.9360144775131396,0.009977024740738262,0.03276441057896854
0.9500000000000002,-0.0013,-0.436999999999889,0.005578699023045769,0.9344868504157233,0.010164766382414073,0.03254254514875265
0.9510000000000001,0.0111,0.5629999999998889,0.0055662013390480585,0.9329567219788929,0.010101079794727361,0.03232031643567396
0.952,0.0031,-0.43699999999977795,0.005527578696051418,0.9329567219788929,0.009904263781428514,0.03232031643567396
0.9530000000000003,0.0016999999999995114,1.562999999999889,0.005521772703718563,0.9329567219788929,0.009874677192434705,0.03232031643567396
0.9540000000000002,0.0006,0.563,0.005522689845144717,0.9314240798751692,0.009879350826995204,0.032097722649346926
0.9550000000000001,-0.0005,0.563000000000111,0.005530738971563872,0.9405814095850548,0.009920368138329758,0.03342769047928974
0.956,-0.0038,1.562999999999889,0.005505975471531915,0.9420991543204493,0.009794176532228652,0.03364812064136644
0.9570000000000003,-0.002999999999998046,0.5629999999998889,0.005502266765468395,0.9420991543204492,0.009775277443888614,0.03364812064136642
0.9580000000000002,0.0014,-0.437,0.005535003423098397,0.954153155989961,0.009942099233998282,0.03539878758800058
0.9590000000000001,0.009,-0.437,0.0055531309487191986,0.9675345482793868,0.01003447476935378,0.03734223855335886
0.96,-0.0019,-0.437,0.0055605576560270025,0.9675345482793868,0.010072320313077613,0.03734223855335886
0.9610000000000003,-0.0033999999999995115,-2.437,0.005542285990409537,0.966056765205803,0.009979210258867392,0.037127612236543074
0.9620000000000002,-0.0023,0.563,0.005558044670041694,0.9586347222109637,0.010059514460222144,0.036049669350536405
0.9630000000000001,-0.0033,1.563,0.0055690910489295704,0.957143198332514,0.01011580538402789,0.03583304738335004
0.964,-0.0023,0.563,0.005589659670073328,0.9660567652057984,0.010220620427703714,0.03712761223654241
0.9650000000000003,-0.008800000000000311,-0.437,0.005573565585836574,0.9660567652057984,0.010138607047691133,0.03712761223654241
0.9660000000000002,-0.0095,-0.437,0.005623318493924463,0.9645767180922385,0.010392141458081797,0.03691265710112675
0.9670000000000001,-0.0019,-0.437,0.00562004598583616,0.9630943965008293,0.010375465178431952,0.03669737163116319
0.968,0.0007,-0.437,0.0056253422803537465,0.976353252465457,0.010402454413018994,0.03862302599258299
0.9690000000000003,-0.0018999999999965804,-0.437,0.005553250389484707,0.976353252465457,0.010035083424108316,0.03862302599258299
0.9700000000000002,0.0058,-0.437,0.005530011924029977,0.9879894240902337,0.009916663197756104,0.040313009253526405
0.9710000000000001,-0.0008,0.563,0.005548319554271767,0.9951925668359654,0.010009956523058878,0.04135916008895687
0.972,-0.0069,-2.437,0.005555671215052216,0.996627148737108,0.01004741963934689,0.04156751206910653
0.9730000000000003,0.005400000000000844,-0.437,0.005557766505763193,1.0094456551139601,0.010058096970892336,0.043429212111502746
0.9740000000000002,0.0073,-1.437,0.005526286494365467,1.0179013223854996,0.009897678888099773,0.044657273763548284
0.9750000000000001,0.0058,-0.437,0.005637022370192379,1.0164967651693986,0.010461974646194439,0.04445328242852933
0.976,-0.0018,-0.437,0.00567556087167146,1.0150902645014157,0.01065836188515901,0.0442490088356291
0.9770000000000003,0.004699999999996137,-0.437,0.005771443839585638,1.006610984243591,0.01114696913789858,0.043017517743656954
0.9780000000000002,-0.004,-1.437,0.0058436238754979814,1.006610984243591,0.01151478930259499,0.043017517743656954
0.9790000000000001,-0.0008,-0.437,0.0057879884436861885,0.9719533878005466,0.011231278309100593,0.037984010182754074
0.98,-0.0015,0.563,0.005642551108292044,0.9836416098210043,0.01049014838333211,0.039681553000247775
0.9810000000000003,-0.002200000000000977,1.563,0.0054641155345192685,0.9923171811759383,0.009580863685656072,0.04094155249507646
0.9820000000000002,-0.0044,-1.437,0.0054385459168744465,0.9836416098210045,0.00945056420804478,0.039681553000247796
0.9830000000000001,0.0007,1.563,0.005422161666610645,0.9704823334521153,0.009367072179337877,0.03777036111457658
0.984,0.0043,-1.437,0.005436456845564302,0.9704823334521153,0.009439918569764782,0.03777036111457658
0.9850000000000003,0.0013999999999988898,1.563,0.005321095817042846,0.9571421537650864,0.00885205362935606,0.03583289567525182
0.9860000000000002,-0.0011,1.563,0.005020908075508768,0.9571421537650864,0.007322335569018736,0.03583289567525182
0.9870000000000001,-0.0069,-0.437,0.005023450608405211,0.958633679268763,0.007335291989127082,0.03604951787847857
0.988,0.0043,-0.437,0.0050511571078975534,0.9601228877298273,0.007476480741357831,0.036265803565249916
0.9890000000000003,0.008999999999998046,1.563,0.0048856396153829675,0.9601228877298272,0.006633024921651859,0.0362658035652499
0.9900000000000002,0.0046,0.563,0.0048881785184712746,0.960122887729828,0.00664596284472554,0.03626580356525001
0.9910000000000001,-0.0019,-0.437,0.004932601217951299,0.9616097899132264,0.006872335198693955,0.03648175429901652
0.992,-0.003,-1.437,0.004895605330904292,0.9344868504157063,0.006683808924153918,0.03254254514875018
0.9930000000000003,-0.00409999999999969,-0.437,0.004793731625123685,0.9344868504157071,0.006164673642980575,0.032542545148750296
0.9940000000000002,-0.0034,-0.437,0.004795298369131989,0.9360144775131234,0.006172657568617175,0.03276441057896619
0.9950000000000001,0.0049,-1.437,0.00496747588448672,0.9360144775131239,0.0070500520067649395,0.03276441057896627
0.996,-0.0026,-0.437,0.004949237561059537,0.9344868504157077,0.006957111860061222,0.03254254514875037
0.9970000000000003,-0.0018999999999980905,0.563,0.004892701399114147,0.9420991543204329,0.00666901086183908,0.033648120641364056
0.9980000000000002,0.0024,-0.437,0.004891175487217809,0.9420991543204345,0.006661235011385015,0.03364812064136428
0.9990000000000001,0.0064,-0.437,0.004916434094081749,0.9344868504157108,0.006789949618121692,0.03254254514875082
1.0,-0.0019,-0.437,0.0049333311357611835,0.9344868504157108,0.006876054765824296,0.03254254514875082
1.0010000000000003,0.0012999999999979126,-0.437,0.0049328535674015555,0.9481458382698678,0.006873621138984522,0.034526312798396304
1.0020000000000002,-0.0034,-0.437,0.004870691199382054,0.946637788234853,0.006556849719382861,0.034307290649357745
1.0030000000000001,0.001,-0.43700000000022204,0.00487134240953308,0.9481458382698693,0.006560168202422869,0.03452631279839653
1.004,0.0031,-1.437,0.00492606692191914,0.9344868504157148,0.0068390372678693865,0.032542545148751406
1.005,-0.0081,0.563,0.005031761838645544,0.9466377882348558,0.007377644947769849,0.03430729064935815
1.0060000000000002,-0.0001,0.563,0.005042861090362734,0.9451273319505056,0.00743420530470264,0.03408791902789604
1.0070000000000001,0.0075,1.563,0.0050303131866851515,0.9329567219788855,0.007370262803996655,0.032320316435672874
1.008,-0.0049,1.563,0.005041811092699822,0.9314240798751617,0.007428854651874314,0.03209772264934584
1.009,0.0031,-0.437,0.005059659725216991,0.9329567219788863,0.007519808983901018,0.032320316435673006
1.0100000000000002,0.0017,-0.437,0.004990319259228619,0.9344868504157168,0.007166458901740593,0.0325425451487517
1.0110000000000001,-0.0074,0.5629999999997779,0.004987557259902457,0.9344868504157167,0.007152384108978315,0.032542545148751684
1.012,0.0038,-0.437,0.0050077637151531565,0.9065527889443492,0.007255353601917731,0.028485532428497887
1.013,0.0052,-1.436999999999778,0.005022086506195882,0.9049754309529516,0.007328340699993514,0.028256444315333487
1.0140000000000002,-0.0038,-0.437,0.005022376351235261,0.8922573071228855,0.007329817712976024,0.026409323365548625
1.0150000000000001,-0.01,-0.437,0.00501772732905846,0.8906546320543592,0.007306126894855279,0.02617655831825647
1.016,0.0001,-0.437,0.004942396876912261,0.9002267742550145,0.006922252614871278,0.027566771578434977
1.017,-0.0035,1.5629999999995559,0.004855306765337566,0.9096982008178822,0.006478452625332136,0.028942357369419594
1.0180000000000002,0.0001,-0.437,0.004859874176446101,0.9112673839689365,0.0065017275639622256,0.02917025820692439
1.0190000000000001,-0.0053,1.5629999999993338,0.00487281809993384,0.9112673839689365,0.006567688130605055,0.02917025820692439
1.02,-0.0046,-1.437,0.004879846914105908,0.9405814095850474,0.006603506062166219,0.033427690479288674
1.021,-0.0039,0.563000000000222,0.004857776378963978,0.9405814095850473,0.006491037458233942,0.03342769047928866
1.0220000000000002,-0.0047,1.563,0.004909091171598238,0.9526546155723447,0.006752531031069199,0.03518114657141173
1.0230000000000001,0.0004,-1.436999999999778,0.0048688556063316265,0.9237238080724596,0.006547495773661029,0.03097937110977486
1.024,0.0112,-0.437,0.004870616253181186,0.9252692052122903,0.006556467803197887,0.031203817378018507
1.025,0.0069,-0.437,0.004819325714892134,0.9175172800240755,0.006295097827381344,0.03007796394180125
1.0260000000000002,0.0105,-0.437,0.0047858557587145455,0.9541542038295852,0.00612453924233751,0.035398939771337345
1.0270000000000001,0.0094,0.563,0.0047978000759906604,0.9630954346124647,0.0061854059444962925,0.03669752240165227
1.028,-0.003,-0.437,0.004774745206598212,0.9719544164502135,0.006067921300026416,0.037984159579031
1.029,-0.0015,1.563,0.004779170559003289,0.9630954346124648,0.006090472325803846,0.036697522401652284
1.0300000000000002,-0.0001,-1.437,0.004806509163646958,0.9645777546085487,0.006229786333278378,0.03691280763991822
1.0310000000000001,0.001,-0.437,0.0048250603110105515,0.9630954346124647,0.0063243205904637174,0.03669752240165227
1.032,0.002,-0.437,0.005007731854904379,0.9630954346124646,0.007255191246194232,0.03669752240165225
1.033,0.0053,-0.437,0.005087367502418954,0.9675355816269827,0.0076610042471754,0.03734238863194107
1.0340000000000003,0.002,-0.437,0.00508846006971787,0.955650392769221,0.007666571829384934,0.035616239270238624
1.0350000000000001,-0.0027,-0.437,0.00523964233282523,0.9481468927484605,0.008436977166711955,0.03452646594594588
1.036,0.0016,0.563,0.005237930284335286,0.9481468927484605,0.0084282527881552,0.03452646594594588
1.037,0.0056,0.563,0.005259901171526171,0.9360155456584381,0.008540213598965707,0.032764565711406686
1.0380000000000003,-0.0028,0.563,0.005214785923491362,0.9375406819058898,0.00831031210677699,0.03298606938219848
1.0390000000000001,-0.0017,0.563,0.00519969665819284,0.951155816497568,0.00823341915463174,0.03496346798866406
1.04,-0.0082,0.563,0.0051737038090780545,0.9375406819058898,0.008100962943970665,0.03298606938219848
1.041,-0.0021,0.563,0.005326361514288359,0.9375406819058898,0.008878886944186192,0.03298606938219848
1.0420000000000003,-0.0042,0.563,0.00533313317144842,0.9466388443932902,0.008913394436741419,0.034307444040880083
1.0430000000000001,-0.0021,0.563,0.0053292647066762976,0.9511558164975681,0.008893681238602636,0.03496346798866407
1.044,-0.013,-0.437,0.0053896883841380635,0.9526567145469833,0.00920159251510214,0.035181451416692364
1.045,-0.0025,-0.437,0.005399779058768245,0.9616118693408248,0.009253013293125561,0.036482056305376244
1.0460000000000003,-0.0061,-1.437,0.005552102284570513,0.9541552516680657,0.010029232829365742,0.03539909195450801
