time_sec,bts_raw,diy_raw,bts_rms,diy_rms,bts_norm_rms,diy_norm_rms
0.0,0.0151,-1.119,0.024259586580023102,1.1751534409244853,0.02994109387287522,0.014723469645925963
0.001,0.0256,-0.11899999999977795,0.02441796781689703,1.1751534409244853,0.030322419414996353,0.014723469645925963
0.002,-0.0237,0.881,0.02453529974111668,1.1751534409244853,0.030604912849788675,0.014723469645925963
0.003,-0.0869,0.881,0.02462134467826648,1.1751534409244853,0.030812078376166938,0.014723469645925963
0.004,-0.0781,0.881,0.024959825687386566,1.1792504740310688,0.031627019949095586,0.014952950315166571
0.005,-0.0546,-0.1189999999995559,0.025109400234254963,1.1939240829698603,0.03198714212201128,0.015774840085605077
0.006,-0.0475,1.881,0.02512637286185625,1.189877575681456,0.032028006157101704,0.01554818943952221
0.007,-0.0156,0.8809999999993339,0.026637192164903865,1.1836323794644423,0.03566552030431279,0.015198387089837442
0.008,0.0717,-2.119,0.02682202178390778,1.189877575681456,0.03611052411952363,0.01554818943952221
0.009000000000000001,0.05869999999999994,-1.118999999999778,0.026897724875198707,1.189877575681456,0.03629279016881416,0.01554818943952221
0.01,0.0244,-0.119,0.027322063505295032,1.1939240829698603,0.037314446277569156,0.015774840085605077
0.011,0.0342,0.881,0.027348551712982706,1.1874021315772454,0.03737822043640061,0.01540953628370828
0.012,0.0806,-1.119,0.027352309508017807,1.2059821425928954,0.037387267866874206,0.016450229207452986
0.013000000000000001,0.07159999999999996,-0.119,0.027376196892078854,1.2099747927286721,0.037444780169825755,0.016673863237583075
0.014,0.0479,-1.119,0.027386105297177433,1.1995257539676731,0.03746863607612089,0.016088597669691514
0.015,0.0126,-1.119,0.027418218039477044,1.197365888032825,0.03754595210867683,0.01596762049735613
0.016,0.0063,-1.119,0.02751903130771885,1.2038338604831946,0.03778867451016881,0.01632990086168991
0.017,0.0118,-0.119,0.02767527440451128,1.2016817378319409,0.038164852173400994,0.016209357401715425
0.018000000000000002,-0.0037999999999999176,-1.119,0.027688220898930964,1.1952021189813702,0.038196022715446226,0.015846424705891305
0.019,0.0199,-1.119,0.027707126987144795,1.1952021189813704,0.038241541834249854,0.015846424705891315
0.02,0.0067,0.881,0.02771665312736125,1.191159953336123,0.038264477383018504,0.015620017241435582
0.021,0.0106,-1.119,0.027717499602838834,1.191159953336123,0.03826651539412861,0.015620017241435582
0.022,-0.0076,-1.119,0.02783979606887994,1.1976614414152902,0.038560961675349066,0.01598417486395264
0.023,0.0022,0.881,0.02786997425812341,1.1936276041827734,0.03863361999397718,0.01575823388577549
0.024,-0.0127,0.881,0.027870178196247507,1.1998207753077244,0.038634111004258856,0.016105122235833394
0.025,-0.0101,-0.119,0.027891353011967657,1.228789575995087,0.03868509240990496,0.01772770609002572
0.026000000000000002,-0.007899999999999931,-0.119,0.02790047465100283,1.230894303618822,0.03870705406406788,0.017845594886893815
0.027,0.0123,1.881,0.027918872245464122,1.232995438470209,0.03875134891123631,0.01796328244745716
0.028,-0.0011,-0.119,0.02791924042058707,1.2148286484560606,0.038752235345646875,0.016945734621519076
0.029,-0.008,2.881,0.028061962846592743,1.2455278153982812,0.03909586005488423,0.018665238758234393
0.03,-0.0057,0.881,0.02811023144459283,1.24164949488371,0.03921207362704153,0.018448008493293835
0.031,-0.0154,2.881,0.028155354302714854,1.2236111972216535,0.039320713379294076,0.017437657707307166
0.032,-0.0355,0.881,0.028300581769930448,1.1823418373696002,0.03967036933450642,0.015126101985982248
0.033,-0.0273,1.881,0.028851914640144413,1.1845290984191148,0.04099778228930541,0.015248613597772735
0.034,-0.0107,0.881,0.029096323090555938,1.1951092626235809,0.041586230685666574,0.015841223688820072
0.035,-0.0262,-0.119,0.029106335537738972,1.2055965802107096,0.0416103370882013,0.01642863330837279
0.036000000000000004,0.003900000000000452,-1.119,0.02910976187943548,1.2055965802107098,0.04161858649722664,0.016428633308372805
0.037,0.0691,-2.119,0.029109957131874368,1.2159934534457153,0.04161905659547552,0.017010977010732682
0.038,0.0031,-1.119,0.02920844715658442,1.2181202910344764,0.04185618545497533,0.01713010421828458
0.039,-0.0221,-0.119,0.029546486006369967,1.2181202910344764,0.04267006246589352,0.01713010421828458
0.04,-0.0143,-0.119,0.029843030067983885,1.2284111722208502,0.04338403482328672,0.017706511154789408
0.041,0.0349,-1.119,0.030240461069993785,1.2528774347338678,0.04434090695844882,0.01907690142239104
0.042,0.0161,-0.119,0.030278970430127408,1.2826662700354103,0.04443362376581522,0.02074541658520766
0.043000000000000003,0.033399999999999964,0.881,0.030643629253263496,1.2789005784269194,0.045311592180295464,0.02053449482597617
0.044,0.0282,0.881,0.031919231126183605,1.2751237660379742,0.04838278663061526,0.020322950175966224
0.045,-0.0052,0.881,0.03210657761083119,1.275123766037974,0.04883385016082114,0.02032295017596621
0.046,-0.0009,0.881,0.032140515375385946,1.271335733757621,0.04891556019619309,0.020110777083831907
0.047,-0.0048,1.881,0.03247753159439743,1.2832180162167246,0.049726975076861475,0.02077632067595945
0.048,0.0134,-1.119,0.03261002587724932,1.2832180162167246,0.05004597406458036,0.02077632067595945
0.049,-0.0162,-1.119,0.03261156290491196,1.3103443846399097,0.05004967467911198,0.0222957072705703
0.05,-0.0279,0.881,0.03285637072356383,1.3218760666459997,0.05063908461178742,0.022941613231148236
0.051000000000000004,-0.024099999999999976,-0.119,0.0328211782487369,1.3182223882128754,0.050554353681490125,0.022736965489670132
0.052000000000000005,-0.020700000000000142,0.881,0.032761544579934486,1.3201845436880164,0.050410777071447276,0.022846868617098108
0.053,-0.0411,-1.119,0.03269749456477552,1.3182223882128759,0.050256567474177866,0.022736965489670156
0.054,-0.0275,-2.119,0.03153387141209338,1.3277376357521604,0.047454977852331305,0.02326992807906108
0.055,0.0091,0.881,0.030684082158736675,1.3257866588503815,0.04540898835180165,0.02316065107947478
0.056,0.0883,-0.119,0.03037049168733725,1.3257866588503824,0.044653974318127995,0.023160651079474827
0.057,0.0313,-1.119,0.03018273679876552,1.3257866588503824,0.044201927496903215,0.023160651079474827
0.058,-0.0203,0.881,0.031188323359246085,1.3294195483636884,0.04662302135810477,0.02336413440389586
0.059000000000000004,-0.04809999999999958,-1.119,0.03118217018740305,1.3162573077398627,0.046608206714431555,0.02262689852893848
0.06,0.0119,-1.119,0.030622413792162028,1.3125879892002494,0.04526051291506465,0.022421374762783317
0.061,0.0044,-2.119,0.030861730800751976,1.3125879892002494,0.04583670293504796,0.022421374762783317
0.062,0.0113,-1.119,0.03113385636732505,1.3106144607723798,0.04649188426363613,0.02231083462004804
0.063,-0.0075,0.881,0.03192715146929801,1.3049472132591247,0.0484018559925643,0.02199340400177841
0.064,-0.0134,-0.119,0.031642021636378415,1.31061446077238,0.04771536502773164,0.022310834620048053
0.065,0.0234,1.881,0.03127532205509253,1.3049472132591247,0.046832483195329115,0.02199340400177841
0.066,-0.0295,-0.119,0.03133197300358258,1.299255245900448,0.04696887847845119,0.0216745887897007
0.067,-0.0086,-1.119,0.0313258464187788,1.3052184061761642,0.04695412784688799,0.022008593903953117
0.068,0.0101,1.881,0.03130643696565596,1.310884481262162,0.04690739680487552,0.022325958852899452
0.069,-0.0074,0.881,0.031485872068527876,1.3167949791198308,0.04733941254884057,0.02265701426998737
0.07,-0.0023,-1.119,0.031802853803105206,1.3131271630155825,0.04810259153497523,0.022451574657380416
0.07100000000000001,-0.02619999999999982,1.881,0.032412989784071734,1.3226790657058238,0.04957158141219704,0.02298659035406968
0.07200000000000001,-0.013099999999999836,0.881,0.03255649642900386,1.3285370919465016,0.04991709424096909,0.02331470676103247
0.073,-0.0012,-1.119,0.03260709871341494,1.3229466237474379,0.050038926497847996,0.023001576661686195
0.074,-0.011,2.881,0.03260650934941207,1.3229466237474379,0.05003750751948706,0.023001576661686195
0.075,0.007,0.881,0.03258633029107941,1.332428134606822,0.04998892354255853,0.023532649611506213
0.076,0.01,0.881,0.032660614184058315,1.3343694010651226,0.05016777266837763,0.023641382715300103
0.077,0.0013,0.881,0.03273608079728687,1.3363078474311083,0.050349469362818346,0.02374995786170022
0.078,-0.0284,2.881,0.03317715023512632,1.343506905333072,0.05141140729067448,0.02415318736516453
0.079,-0.0166,0.881,0.03317783039015371,1.3490121719504928,0.05141304486144781,0.02446154520237206
0.08,0.0158,0.881,0.03338019670129767,1.3869373049352431,0.05190027077802179,0.026585786005892696
0.081,0.0285,0.881,0.03352231772993165,1.4028771129360478,0.052242447536837024,0.027478597392189195
0.082,0.056,0.881,0.033488155896773626,1.3756937523222763,0.052160198024167756,0.02595601858367696
0.083,0.0375,1.881,0.033422906795848126,1.3738108805696168,0.052003101455947755,0.025850556250653522
0.084,0.0075,1.881,0.033343575562579185,1.3627187554140834,0.05181210013451284,0.02522927049635924
0.085,-0.0046,0.881,0.033342233428156724,1.3627187554140836,0.05180886875340769,0.02522927049635925
0.08600000000000001,-0.0012000000000003178,1.881,0.03331446372921189,1.3646169319499106,0.05174200922058873,0.025335590072122126
0.08700000000000001,-0.024100000000000284,0.881,0.03335777951052667,1.3591748730650752,0.05184629817626475,0.02503077259019061
0.088,-0.0447,1.881,0.03265444591929295,1.3520592420451767,0.05015292168632935,0.024632215945409867
0.089,-0.0421,1.881,0.03265341726606661,1.34848734633067,0.05015044505616197,0.024432148970675017
0.09,-0.049,2.881,0.03258560567864588,1.34848734633067,0.04998717893420405,0.024432148970675017
0.091,-0.0154,2.881,0.03262615351347858,1.34848734633067,0.05008480366175763,0.024432148970675017
0.092,0.047,0.881,0.03248722904547996,1.3449059641581225,0.049750323081108855,0.024231550645891668
0.093,0.0892,0.881,0.03251560792530161,1.3449059641581225,0.049818649304254815,0.024231550645891668
0.094,0.0345,-1.119,0.03234730836703371,1.3449059641581225,0.04941344398093524,0.024231550645891668
0.095,-0.0149,0.881,0.032373999131397636,1.3449059641581225,0.04947770582401457,0.024231550645891668
0.096,-0.0468,1.881,0.03244091923444112,1.3449059641581225,0.04963882556948145,0.024231550645891668
0.097,-0.0295,0.881,0.03244093591126999,1.3449059641581225,0.049638865721338674,0.024231550645891668
0.098,-0.0033,2.881,0.03268042358823559,1.3449059641581225,0.050215466649912895,0.024231550645891668
0.099,0.0399,1.881,0.033941842415967476,1.3506675928033978,0.05325251338487146,0.024554267686012488
0.1,-0.0011,0.881,0.035758460022085076,1.3564047478796883,0.05762628080298424,0.024875613926619803
0.101,-0.0166,0.881,0.03657391847315776,1.3820954269820585,0.05958961397344099,0.026314585514177674
0.10200000000000001,-0.01179999999999994,-0.119,0.0365009817803508,1.4320948389380614,0.059414008425245426,0.02911512390837886
0.10300000000000001,-0.007499999999999507,1.881,0.037092948546554115,1.4408582832187595,0.06083925331217516,0.02960597692471301
0.10400000000000001,0.02800000000000006,-0.119,0.03896087483732968,1.435705247231196,0.06533655374707005,0.02931734802758576
0.105,0.0323,-0.119,0.04055696212524209,1.4183100810969886,0.06917936279660614,0.02834301995598317
0.106,-0.0334,1.881,0.04062823534885775,1.421706564987019,0.06935096330415612,0.028533261864181734
0.107,-0.0802,-1.119,0.039657736621356764,1.421706564987019,0.06701434843299708,0.028533261864181734
0.108,-0.0717,-1.119,0.039604938789100395,1.4164838585505546,0.06688723007980475,0.02824073062581775
0.109,-0.0015,0.881,0.039760024500923336,1.4198847109255421,0.06726062117273578,0.028431217219090962
0.11,0.0454,-0.119,0.03947310382524495,1.4146552784785378,0.06656981849712647,0.02813830924728113
0.111,0.0534,-0.119,0.03950064125367836,1.4112418241185125,0.06663611880537794,0.027947116798847614
0.112,0.1072,-0.11900000000022204,0.03953979271875409,1.395397570573556,0.06673038157248035,0.0270596575539438
0.113,0.0576,-1.119,0.039631464573831154,1.3919368912334853,0.06695109471075655,0.02686581996700548
0.114,-0.0004,-0.119,0.03967046221017967,1.3919368912334853,0.06704498711313675,0.02686581996700548
0.115,0.0226,-0.119,0.039659259392386244,1.3919368912334853,0.06701801472263975,0.02686581996700548
0.116,0.0016,1.8809999999993339,0.03958950794839168,1.3919368912334853,0.06685007811777455,0.02686581996700548
0.117,-0.0047,-1.119,0.039659712891022894,1.4027980034170626,0.06701910658564629,0.027474166355171005
0.11800000000000001,-0.033900000000000215,1.880999999999778,0.0396852674030794,1.39750463433864,0.06708063273833914,0.02717767720142166
0.11900000000000001,-0.049200000000000195,0.881,0.039685610966698336,1.3884675863666738,0.06708145991702412,0.026671499252008988
0.12,-0.0631,1.881,0.039775292858749485,1.39750463433864,0.06729738193392361,0.02717767720142166
0.121,-0.0325,1.881,0.04048616410783879,1.4030502830687186,0.0690089064161644,0.02748829689836939
0.122,0.0195,-0.11899999999977795,0.040637450484833644,1.4710815717153305,0.06937315006561276,0.03129882643078613
0.123,-0.0014,0.881,0.041073251071384285,1.5164471255080683,0.07042240247835539,0.03383981581847248
0.124,0.005,1.880999999999778,0.04111535936834906,1.5164471255080683,0.07052378424228661,0.03383981581847248
0.125,-0.0243,0.881,0.04528996658012803,1.5259587467619207,0.08057474980862797,0.034372575294442986
0.126,0.0234,0.8809999999993339,0.04701624454604421,1.558153470743783,0.0847310115868381,0.03617584771455172
0.127,0.0552,-2.119,0.04729797379210559,1.56124575553522,0.08540931515111228,0.03634905099725921
0.128,0.0022,-1.1190000000006661,0.04739556874346347,1.5595869147212222,0.0856442889931492,0.03625613695671896
0.129,0.0374,-4.119,0.04732184418908655,1.5400011318636577,0.0854667865552323,0.03515910931724666
0.13,0.0312,-2.118999999999556,0.04730076476732866,1.5431297926380625,0.08541603482423132,0.03533435007065516
0.131,0.0019,-0.119,0.04728108966950326,1.5431297926380625,0.08536866420449982,0.03533435007065516
0.132,0.0284,-0.119,0.047199446663182536,1.5414514563618638,0.08517209695789833,0.03524034406146427
0.133,0.0143,-0.119,0.046910005629695245,1.5397712907159402,0.08447522615940532,0.03514623558666526
0.134,0.01,0.881,0.04711796270682495,1.5298829035252584,0.08497591264689335,0.034592372913068214
0.135,0.0221,0.881,0.048002932056765715,1.5216322597433967,0.08710660327532532,0.034130242584249286
0.136,-0.0176,-0.1189999999995559,0.048693970295664364,1.5298829035252584,0.0887703769411682,0.034592372913068214
0.137,-0.0124,1.881,0.0486949273651112,1.5445771793943976,0.08877268122312018,0.03541542026775951
0.138,0.0018,0.880999999999778,0.04877823016977938,1.5878443112998168,0.08897324467228422,0.037838874051870384
0.139,0.0062,-0.119,0.04857834353260309,1.5798963865773321,0.08849198892641144,0.03739369944943455
0.14,-0.0217,-0.119,0.04893429939656017,1.5702606990897892,0.08934900371852772,0.036853990846718705
0.14100000000000001,-0.01810000000000009,0.881,0.048779793400698525,1.5508097254910544,0.08897700837491385,0.035764514066156085
0.14200000000000002,-0.021299999999999254,-0.119,0.04880566123811762,1.5262633818762747,0.08903928890335289,0.034389638341798846
0.14300000000000002,0.005600000000000708,0.881,0.048601412490219514,1.5407624791106407,0.08854753075032239,0.03520175346270924
0.14400000000000002,0.03109999999999973,0.881,0.04789512674824473,1.5407624791106407,0.08684704653409328,0.03520175346270924
0.145,0.0213,0.881,0.047772186610421825,1.5407624791106407,0.08655105052074555,0.03520175346270924
0.146,0.0007,0.881,0.047797587622882824,1.5438895970311515,0.08661220710114798,0.03537690779867006
0.147,-0.0399,1.881,0.04758445312607693,1.5388515828369465,0.08609905523326658,0.035094721436282096
0.148,-0.0928,1.881,0.047493830682027574,1.5388515828369462,0.08588086870254152,0.03509472143628208
0.149,-0.1138,1.881,0.047509930127411594,1.515819997488362,0.08591963042621589,0.03380468948341053
0.15,-0.0818,2.881,0.047418083778974246,1.5057743308914056,0.08569849717014971,0.033242017365888894
0.151,0.0063,3.881,0.04741799709407802,1.5040543111750921,0.0856982884638301,0.03314567660775043
0.152,0.069,1.881,0.04739207199633767,1.5023323222101368,0.0856358700729556,0.03304922554918614
0.153,0.1259,-0.119,0.047377753283186004,1.5023323222101368,0.0856013957175155,0.03304922554918614
0.154,0.1158,-0.119,0.04738566028983297,1.4971544718351766,0.08562043297000652,0.03275920676281992
0.155,-0.0259,-1.119,0.04735350940123817,1.498882409378116,0.08554302509477411,0.03285599100972349
0.156,-0.0055,-0.119,0.047309820673272975,1.5006083572172402,0.08543783821655085,0.03295266381047782
0.157,-0.024,-0.119,0.04724568978672011,1.4921958575010004,0.08528343390980239,0.03248146769986621
0.158,-0.0406,-1.119,0.04660467696015885,1.4889601762160407,0.08374010359858856,0.03230023257498311
0.159,0.0051,-0.119,0.04605300175959717,1.4941664231867007,0.08241186643438192,0.032591841895185845
0.16,0.0189,0.881,0.04607551423480018,1.4941664231867007,0.08246606844707428,0.032591841895185845
0.161,-0.0183,0.881,0.04585003381616513,1.4941664231867007,0.08192319200179088,0.032591841895185845
0.162,-0.0294,0.881,0.045551808972899566,1.4991185195212087,0.08120517292152095,0.03286921587567938
0.163,-0.0192,0.881,0.04428789014709256,1.5040543111750921,0.07816210708265767,0.03314567660775043
0.164,0.0092,-0.119,0.043974779481852765,1.4991185195212082,0.07740824825112505,0.032869215875679356
0.165,0.0009,1.881,0.044102691650980914,1.5092084895022346,0.07771621514290725,0.03343436948894719
0.166,-0.0378,1.881,0.04415068853737175,1.5192314484632596,0.07783177453039755,0.03399576971938496
0.167,-0.0167,-0.119,0.044426594215277865,1.5551264010407495,0.07849605701914712,0.03600629722198336
0.168,-0.0105,0.881,0.04444316587446359,1.5601118604238577,0.07853595566527194,0.03628553991442565
0.169,-0.0278,1.881,0.04433506639942187,1.5503532138906413,0.07827569067595314,0.03573894420014486
0.17,-0.0757,1.881,0.04414803899262452,1.548682705790299,0.07782539537143245,0.03564537665825158
0.171,-0.0438,4.881,0.044077765819920345,1.554898795673097,0.07765620262987478,0.03599354872063303
0.17200000000000001,-0.061199999999997784,3.881,0.044121284132048806,1.5610901339632293,0.07776097920753085,0.03634033441099797
0.17300000000000001,0.018500000000004763,-1.119,0.04410869792543346,1.565830591651043,0.07773067611004547,0.036605854208960606
0.17400000000000002,0.19009999999999821,-3.119,0.04411335520612964,1.5689077450685553,0.07774188918124843,0.036778209961827735
0.17500000000000002,0.12629999999999794,-3.119,0.044196217664778735,1.5639503248872297,0.07794139243421903,0.03650053778507879
0.176,0.0524,-1.119,0.0442596077617937,1.5622943557818394,0.07809401318391417,0.03640778459303451
0.177,0.0303,-0.119,0.04464705619565848,1.5937552496162914,0.07902685085461043,0.03816995413968439
0.178,0.0099,-1.119,0.044305473426751237,1.5827927091968066,0.07820444135015334,0.03755592661132535
0.179,-0.0086,-1.119,0.0443433254195242,1.579742602293395,0.0782955754513222,0.03738508577229831
0.18,0.0081,0.881,0.04419985372611307,1.521937760859169,0.07795014677334951,0.03414735413758005
0.181,-0.0071,-0.119,0.044125648572358546,1.515586489236875,0.07777148722350556,0.033791610353115405
0.182,-0.0208,-0.119,0.04412526488037801,1.5172934360117802,0.077770563430035,0.03388721887715538
0.183,-0.0582,-0.119,0.04411848966065913,1.5189984646376418,0.07775425111688927,0.03398271996293093
0.184,-0.0922,0.881,0.04429223322275477,1.5189984646376418,0.07817256366017945,0.03398271996293093
0.185,-0.082,1.881,0.04434473462189099,1.5189984646376415,0.07829896830812189,0.03398271996293092
0.186,0.0031,2.881,0.04441272970637674,1.5189984646376418,0.0784626762255802,0.03398271996293093
0.187,0.0371,3.881,0.044385110136658495,1.5207015815664142,0.07839617815040512,0.034078113971825245
0.188,0.0062,0.881,0.044613945921757804,1.5207015815664142,0.07894713312166331,0.034078113971825245
0.189,0.0722,-0.119,0.04461424633980023,1.5289572475336501,0.0789478564211851,0.03454052560041178
0.19,0.0295,-1.119,0.04470696104848142,1.57429924830508,0.07917108037907473,0.03708019574977327
0.191,0.0219,-0.119,0.045204366294609784,1.5759426029589463,0.08036865484482271,0.03717224238839157
0.192,0.0151,-2.119,0.045184497227320514,1.5742992483050788,0.08032081721578868,0.037080195749773205
0.193,0.034,0.881,0.04517728490856141,1.598107949118323,0.08030345252401681,0.0384137550484748
0.194,0.0047,-1.119,0.04569706396184251,1.6059657473440268,0.08155489513923894,0.03885388153724898
0.195,-0.0216,-1.119,0.0460216005612585,1.6277223076607432,0.08233626354595848,0.0400724975190996
0.196,0.0119,-1.119,0.0459719515376282,1.6277223076607432,0.0822167264011218,0.0400724975190996
0.197,-0.001,0.881,0.04603378459825767,1.6277223076607434,0.0823655983624155,0.040072497519099616
0.198,-0.0129,0.881,0.04679581960386198,1.6229445514358094,0.08420030692614926,0.03980488857686174
0.199,0.0269,-0.119,0.04804158087266825,1.618152688473478,0.08719965584245554,0.03953648949613719
0.2,0.0002,-0.119,0.04681797053301977,1.608746155861697,0.08425363846488641,0.039009616184931456
0.201,0.0049,-0.119,0.046369845387616064,1.5850972525932128,0.0831747129091705,0.03768500737468348
0.202,0.0005,-0.119,0.047178872426786346,1.5561078087767795,0.08512256153310714,0.03606126726938185
0.203,-0.0115,-1.119,0.04667551582926629,1.5511094799255256,0.08391065833536679,0.03578130373966879
0.20400000000000001,-0.02220000000000009,0.881,0.04500294630741862,1.551109479925525,0.0798837073388827,0.03578130373966876
0.20500000000000002,-0.02539999999999992,0.881,0.04360878788188875,1.560863398228362,0.07652707098529052,0.03632763461902057
0.20600000000000002,-0.02249999999999993,0.881,0.04372869802312337,1.5608633982283602,0.07681577184730305,0.03632763461902047
0.20700000000000002,-0.019999999999999536,0.881,0.04372621818442947,1.56086339822836,0.07680980127999981,0.03632763461902046
0.20800000000000002,-0.0033000000000003135,1.881,0.04369993435591329,1.565604542444199,0.07674651919333492,0.036593192870397216
0.209,-0.0146,0.881,0.04358184699558021,1.576686594956281,0.07646220693775813,0.03721391444156187
0.21,-0.0009,-0.119,0.04361938313120353,1.5813803002781295,0.07655258056754036,0.037476815572808575
0.211,0.0117,-1.119,0.04364351038177365,1.5797426022933827,0.0766106703835131,0.03738508577229762
0.212,-0.013,-1.119,0.04364956187263898,1.5876912968545678,0.07662524021564984,0.03783030349449734
0.213,-0.024,-0.119,0.04382463002564079,1.5876912968545678,0.07704674190151371,0.03783030349449734
0.214,-0.0337,1.881,0.043909331513072344,1.58606011534893,0.07725067288002356,0.03773893869127787
0.215,-0.0308,1.881,0.04406414119185665,1.58606011534893,0.07762339938382663,0.03773893869127787
0.216,-0.0496,3.881,0.044075902266562286,1.5764621023946317,0.07765171585790255,0.03720134029291659
0.217,-0.0131,1.881,0.044255680032066536,1.5684565010479008,0.07808455661129812,0.036752935140473654
0.218,0.0133,-0.119,0.04449566246352625,1.570105971037147,0.07866234873227244,0.03684532430775089
0.219,0.0273,-0.119,0.04448373022929451,1.573174761770715,0.07863362016709047,0.037017211654759866
0.22,0.0577,-2.119,0.044432747132718685,1.5682308303470858,0.07851087105031053,0.036740295002572934
0.221,0.0377,-2.119,0.043801536455066375,1.5601829933197042,0.07699114081837648,0.03628952416940217
0.222,-0.0167,-1.119,0.04358502286795308,1.4877711901417225,0.0764698533059656,0.03223363576872009
0.223,0.0064,-1.119,0.04315517694511566,1.441503458335942,0.0754349376001045,0.029642114103451092
0.224,0.0274,-1.119,0.04311790544182006,1.4381537294770117,0.07534520111060368,0.029454491011246465
0.225,0.0337,-0.119,0.038701080677605866,1.4032084692008358,0.06471106204898815,0.02749715712930199
0.226,0.0631,-3.119,0.0365794062769063,1.383535678124721,0.0596028266480025,0.02639525603538036
0.227,0.0047,-1.119,0.03621867908967258,1.380045253554458,0.0587343242108153,0.0261997523756636
0.228,-0.0186,0.881,0.036093824992970217,1.3819196309718114,0.05843372006697363,0.02630473892884828
0.229,-0.0119,-0.119,0.03613380221331832,1.3784251142805781,0.05852997095832051,0.02610900606359804
0.23,-0.0182,1.881,0.0362301882851173,1.378425114280578,0.058762034249447155,0.026109006063598027
0.231,-0.001,0.881,0.03622095120841524,1.3944622267591864,0.05873979466254563,0.02700726761251358
0.232,-0.0276,0.881,0.036506067502413725,1.3944622267591866,0.05942625303048402,0.027007267612513593
0.233,-0.0419,-0.119,0.03682036928827278,1.405303821624472,0.06018297965573286,0.027614520807837637
0.234,0.0237,0.881,0.03682194762500082,1.4160624139798723,0.0601867797277638,0.028217124914169344
0.23500000000000001,0.032999999999999294,0.881,0.03571577391632994,1.4631348721521673,0.05752350788152339,0.03085372045127174
0.23600000000000002,0.007599999999998487,0.881,0.0348358896197953,1.4545056512439754,0.055405060248442835,0.030370385477518438
0.23700000000000002,-0.04689999999999863,1.881,0.03487313195423123,1.4283052179696833,0.05549472650973073,0.028902861831561807
0.23800000000000002,0.0023999999999991116,1.881,0.03474059318636763,1.383535678124721,0.05517562041796631,0.02639525603538036
0.23900000000000002,-0.029600000000001132,3.8809999999993336,0.03509951571037779,1.3870173190807222,0.05603977786962584,0.026590267712331375
0.24,-0.0704,0.881,0.034346436839342825,1.3923505588833567,0.054226632484317576,0.0268889900822245
0.241,-0.0121,-0.11899999999933386,0.034321330357085254,1.3923505588833565,0.05416618502762014,0.026888990082224486
0.242,-0.0197,2.881,0.034250696281455724,1.3976634481217989,0.05399612336051057,0.027186572587984535
0.243,-0.0691,1.881000000000222,0.0342883152399076,1.3816634930535556,0.054086696398130636,0.02629039227863333
0.244,-0.063,2.881,0.03414338698296852,1.3851498398450601,0.05373776083457043,0.02648566753614436
0.245,0.0015,0.881,0.03428345513049321,1.3851498398450601,0.05407499498769977,0.02648566753614436
0.246,-0.024,0.881,0.036240746148325925,1.3851498398450601,0.05878745381928467,0.02648566753614436
0.247,0.0929,-1.119,0.03635950912488943,1.3816634930535556,0.05907339271783013,0.02629039227863333
0.248,0.1427,-1.119,0.036360112170237754,1.3797887676850664,0.05907484463599236,0.02618538623620913
0.249,0.0361,-0.119,0.036358390987014884,1.3832798394452646,0.059070700640538695,0.02638092614595746
0.25,0.0498,-0.119,0.03632064790103403,1.3832798394452648,0.05897982874809079,0.026380926145957474
0.251,0.0871,-2.118999999999778,0.03634376933711956,1.3942083931141265,0.05903549692144236,0.026993050027927668
0.252,0.0073,-1.119,0.03634424488796518,1.3942083931141265,0.05903664187830462,0.026993050027927668
0.253,-0.0236,-0.1189999999995559,0.03634451327387196,1.3960637550043884,0.05903728805586594,0.02709697149431188
0.254,-0.0331,1.881,0.036368222221139335,1.390744754670688,0.059094370746646085,0.02679904669738817
0.255,-0.0415,-1.118999999999778,0.03631932207424158,1.3997671010747146,0.05897663662994366,0.02730440119100689
0.256,-0.0028,-0.119,0.03633154423200893,1.4087316642491534,0.0590060632276172,0.027806519163501242
0.257,0.0183,-1.119000000000222,0.03649442368542969,1.4087316642491534,0.05939821887118945,0.027806519163501242
0.258,0.0245,-2.119,0.03645591833663397,1.4068930084591047,0.059305511721694334,0.027703533429623357
0.259,0.0187,-1.118999999999778,0.036466235992355836,1.3979166543982626,0.05933035295755797,0.027200755032760354
0.26,0.0238,-0.119,0.03644831620984393,1.3979166543982624,0.0592872085111834,0.027200755032760343
0.261,-0.0197,1.880999999999778,0.036455613179279034,1.3997671010747144,0.05930477701159799,0.02730440119100688
0.262,-0.049,0.881,0.03665458273281276,1.405303821624472,0.05978382474707718,0.027614520807837637
0.263,-0.0334,-0.119,0.036643884188142496,1.4267398815133263,0.05975806646644484,0.02881518510348892
0.264,-0.0382,-0.119,0.036567127554405505,1.4285529931044696,0.05957326386262094,0.02891674007034405
0.265,0.0101,-0.11899999999977795,0.03642160554112957,1.4231067283540273,0.05922289874552581,0.028611687011879692
0.266,0.0547,0.881,0.03637376176249478,1.4124017951958097,0.05910770798691622,0.028012088433733883
0.267,0.0489,0.881,0.03613859867594241,1.3671115565442904,0.05854151912997577,0.02547531755455385
0.268,0.001,-1.119,0.03640752963166963,1.3578722485675425,0.05918900897479538,0.02495781073372363
0.269,-0.0178,-1.119,0.03640979290849853,1.3578722485675427,0.05919445813835027,0.02495781073372364
0.27,-0.012,0.881,0.0363961972959835,1.3690036423048815,0.0591617247513968,0.025581295977306493
0.271,0.0037,0.881,0.03599257365696412,1.3526647280332504,0.05818994295451335,0.024666130079404953
0.272,-0.0009,0.881,0.03619921145165643,1.3361260270971833,0.05868745308032757,0.02373977384540716
0.273,-0.0052,0.881,0.037134672360819465,1.341925353403735,0.060939709378866704,0.024064602385316596
0.274,0.007,0.881,0.03721143136535904,1.341925353403735,0.061124517690737824,0.024064602385316596
0.275,-0.0038,-2.119,0.037152735190255574,1.336390892933208,0.06098319823122646,0.023754609358747836
0.276,-0.0117,0.881,0.03701250832177177,1.3383264113518405,0.060645581934624986,0.02386302050663961
0.277,0.0047,0.881,0.03650811045285569,1.3007019034929603,0.0594311717266641,0.02175561814529909
0.278,0.0196,0.881,0.03653557634410492,1.3007019034929603,0.05949729979888512,0.02175561814529909
0.279,0.0276,-1.119,0.03663302978309957,1.3007019034929603,0.0597319329296125,0.02175561814529909
0.28,0.0008,-2.119,0.03661915381051996,1.3063875677390426,0.059698524535595536,0.022074080311048194
0.281,-0.0462,-0.119,0.03716588758073384,1.3004297687002924,0.06101486449756143,0.021740375487326727
0.28200000000000003,-0.05240000000000033,1.881,0.03793757071887008,1.3041332961425909,0.06287280232405898,0.021947815342924656
0.28300000000000003,-0.05829999999999795,1.881,0.03813791456226004,1.3021469538806518,0.06335515885946172,0.02183655747906258
0.28400000000000003,-0.021399999999997584,3.881,0.03811204366377159,1.3078263359076316,0.06329287096105919,0.02215466776875737
0.28500000000000003,0.02209999999999968,0.881,0.03803747162515079,1.3115089765912487,0.06311332808328264,0.02236093772720392
0.28600000000000003,0.016300000000000283,-0.119,0.03805203843761628,1.3210725794923242,0.0631483997734021,0.02289660876939385
0.28700000000000003,0.021399999999996002,-1.119,0.03984597701960324,1.3247183968951084,0.0674675641883935,0.02310081620334785
0.28800000000000003,-0.05059999999999711,-1.119,0.04004512509101412,1.3151813055488841,0.06794704173126419,0.022566630111167253
0.289,0.0014,-1.119,0.040371153816946795,1.3322457847831028,0.06873200264656694,0.023522435937734395
0.29,-0.0267,-1.119,0.040328922081211555,1.2901646801312763,0.06863032368609275,0.021165413232116567
0.291,-0.0012,-1.119,0.040080689255468656,1.2998853281983445,0.06803266755764605,0.021709880598098728
0.292,0.022,0.881,0.042022588172795014,1.2998853281983458,0.07270806769979389,0.021709880598098804
0.293,-0.0133,-1.119,0.04241552885944008,1.2705002843935476,0.07365412875673369,0.02006398237307496
0.294,0.0312,-1.119,0.042002516897425755,1.2605530564149208,0.07265974322580751,0.019506823943001225
0.295,0.1193,-1.119,0.041571313626350026,1.2362387106091948,0.07162155950939769,0.01814494274690358
0.296,0.0316,0.881,0.04158764064806689,1.2341430974573433,0.07166086915573137,0.018027564464608632
0.297,-0.0024,-0.119,0.04163073133305991,1.238044932862878,0.07176461615973044,0.018246111832139054
0.298,-0.0124,-1.119,0.04120241553324905,1.232043919831808,0.07073338444449934,0.017909986531057482
0.299,-0.0215,-0.119,0.03871982628698296,1.2383307773837178,0.06475619479197714,0.018262122391544997
0.3,-0.0131,1.881,0.038834570729273286,1.2383307773837178,0.06503245849293923,0.018262122391544997
0.301,-0.0055,-0.119,0.03869370659962144,1.2582166685438585,0.06469330789868248,0.019375959525187402
0.302,0.0014,0.881,0.038124049898555355,1.240419315724667,0.063321777693183,0.018379104403588187
0.303,-0.0175,-0.119,0.03874104556102532,1.2365249726701877,0.06480728323740999,0.018160976693329174
0.304,-0.0116,1.881,0.039498228619405926,1.248738538386306,0.06663031004235756,0.018845075933299982
0.305,-0.0271,1.881,0.039368476865247574,1.248738538386306,0.0663179140857899,0.018845075933299982
0.306,-0.0412,0.881,0.03934664252039996,1.2448702207319968,0.06626534476918262,0.01862840594283305
0.307,-0.0108,-0.119,0.039633029076073946,1.2469478060738586,0.06695486147428018,0.0187447744617715
0.308,0.0091,0.881,0.039666701231465595,1.2430739158580075,0.06703593201749944,0.018527792344182642
0.309,-0.009,0.881,0.03971631806247381,1.2289872761317095,0.06715539165398152,0.01773877955672243
0.31,0.0072,0.881,0.03975372374273119,1.2250565922061731,0.06724545119376088,0.01751861634243062
0.311,0.0398,1.881,0.03991319832390763,1.2669778057592667,0.06762940911909299,0.01986668331950334
0.312,0.0092,2.881,0.03995949430218924,1.2745685159528535,0.06774087332637352,0.020291849826563468
0.313,-0.0029,0.881,0.039681651691020704,1.2725360259148588,0.06707192739300816,0.020178007159928825
0.314,0.0079,-1.119,0.03955102846062556,1.278346968801547,0.06675743323241708,0.02050348636106424
0.315,0.0242,-0.119,0.03942058034266823,1.2783469688015474,0.06644336068013391,0.020503486361064267
0.316,0.0271,-1.119,0.039497195410492285,1.2841316163217176,0.06662782244371965,0.020827492721207312
0.317,0.0459,0.881,0.039168576045266044,1.2821142864151955,0.06583662419277944,0.020714499195164313
0.318,0.0139,-0.119,0.038887988967115414,1.2918955097209004,0.06516107056155516,0.021262359466680827
0.319,-0.0257,1.881,0.038899754936976665,1.2881567983949709,0.06518939882142027,0.02105294891156642
0.32,-0.0207,0.881,0.03888616548119017,1.2844072043029575,0.06515668025767374,0.020842928797198006
0.321,-0.0542,0.881,0.03896427702045717,1.294171098067183,0.06534474499087577,0.021389818416373458
0.322,-0.0846,1.881,0.03899788122341634,1.303861877531319,0.0654256519288684,0.021932612799294017
0.323,-0.0249,-1.119,0.03901804659374523,1.3018751211511876,0.06547420294996477,0.021821331740081194
0.324,0.0178,-0.119,0.03902171068242338,1.305574548564065,0.06548302476894508,0.022028541947182036
0.325,0.0101,0.881,0.03901603317630726,1.3035904024083582,0.0654693553587273,0.02191740709036305
0.326,0.0169,0.881,0.039114184316954834,1.3035904024083582,0.06570566830624543,0.02191740709036305
0.327,-0.0151,-1.119,0.03910553972516212,1.3035904024083556,0.06568485521173477,0.0219174070903629
0.328,-0.0326,0.881,0.03910443147434169,1.3072849758323628,0.06568218693894408,0.02212434541862229
0.329,-0.0062,-1.119,0.03906081930352638,1.316879255149876,0.06557718438303864,0.022661734690660722
0.33,0.0659,-1.119,0.03907577535302126,1.3132116744296212,0.06561319321712904,0.022456308262247045
0.331,0.076,-1.119,0.03913240781775827,1.3474370818337509,0.06574954399796482,0.02437332215786617
0.332,0.0476,-0.119,0.03886092291284066,1.3474370818337509,0.06509590515419308,0.02437332215786617
0.333,0.0392,-1.119,0.03850784073775125,1.3416615801607377,0.06424580918015765,0.024049828069670105
0.334,0.0003,-1.119,0.03806656586476283,1.3322457847830964,0.06318337663771774,0.023522435937734034
0.335,-0.0349,1.881,0.038110602699721864,1.2783469688015119,0.06328940163345269,0.020503486361062275
0.336,-0.1186,-1.119,0.03841814821827271,1.2783469688015117,0.06402986157620259,0.02050348636106226
0.337,-0.0616,0.881,0.038455260523513404,1.2803702344443546,0.06411921477355473,0.020616812356164683
0.338,-0.0514,2.881,0.03841440709771716,1.276597770037708,0.06402085429192989,0.020405511242846234
0.339,-0.0231,1.881,0.038088920909163,1.2728141245599884,0.06323719961317426,0.020193583861785762
0.34,0.0541,1.881,0.03852868010515738,1.2789005784268945,0.06429598294587921,0.020534494825974775
0.341,0.1267,-0.119,0.038452908508318714,1.2849582029474331,0.06411355195965773,0.020873791017345007
0.342,0.0607,-0.119,0.0385014973358733,1.3330425373397843,0.06423053653039341,0.023567063185103376
0.343,0.0355,0.881,0.0384555228719596,1.342452744406435,0.06411984641506381,0.024094142307768428
0.34400000000000003,-0.01879999999999962,-1.119,0.03843593266696781,1.3482248569083737,0.06407268018700421,0.02441744656365753
0.34500000000000003,-0.011900000000001038,-0.119,0.03840397478995821,1.34464277560985,0.06399573701484407,0.02421680907983086
0.34600000000000003,-0.030600000000002275,-1.119,0.03676907069551414,1.3410511262490774,0.0600594709366457,0.024015635675187563
0.34700000000000003,-0.07159999999999735,-0.119,0.036965256624622723,1.34464277560985,0.06053181669710606,0.02421680907983086
0.34800000000000003,-0.02379999999999608,1.881,0.03713305299700933,1.3501434106763186,0.06093581052825169,0.02452490749726205
0.34900000000000003,0.046799999999999474,-0.119,0.037137456462568594,1.3629784535294769,0.060946412503111475,0.02524381655829495
0.35000000000000003,0.03729999999999477,-2.119,0.03730674392030605,1.3810707206987798,0.061353996336084245,0.02625719025337688
0.35100000000000003,-0.05700000000000069,0.881,0.03735714911962114,1.3754364550026335,0.06147535408232946,0.025941606993736283
0.352,-0.0694,0.881,0.03744343813396175,1.3754364550026335,0.06168310725954908,0.025941606993736283
0.353,-0.0806,1.881,0.03749214531887388,1.3845585601040102,0.06180037679259735,0.026452549114312104
0.354,-0.0081,1.881,0.037799800301894546,1.386426835777629,0.06254110028675725,0.026557193900125297
0.355,0.0391,0.881,0.038209444288253076,1.386426835777629,0.06352737693327169,0.026557193900125297
0.356,0.0475,0.881,0.03861460816259786,1.3773171045032768,0.06450286706759491,0.026046944855253967
0.357,0.0245,0.881,0.03858287132876045,1.3773171045032766,0.06442645608857285,0.026046944855253953
0.358,0.0315,-1.119,0.03866771170547816,1.3773171045032766,0.06463072146295805,0.026046944855253953
0.359,0.0254,0.881,0.039060685832792715,1.3808144253096188,0.06557686303310555,0.02624283478299188
0.36,0.0428,-3.119,0.03917059343673061,1.4163123309195675,0.06584148135205586,0.0282311231185001
0.361,0.0273,-2.119,0.03953199130446606,1.4509420251293654,0.06671159854873707,0.030170781694871453
0.362,0.0131,-0.11900000000022204,0.03960764197377994,1.4762614731988066,0.06689373838459972,0.031588960102666507
0.363,-0.0086,-1.119,0.039804587296060685,1.4674682668513546,0.06736791249303092,0.031096440070514077
0.364,-0.0206,-0.11900000000022204,0.039819475605740645,1.4707512315145486,0.06740375823380196,0.031280323604867856
0.365,0.0265,-1.119,0.039816095396374,1.4760217067586767,0.06739561989497685,0.031575530442297384
0.366,0.0204,-0.1189999999995559,0.039854239921189534,1.4760217067586767,0.06748745830899186,0.031575530442297384
0.367,0.0145,1.881,0.03976960636799846,1.4727504907610636,0.06728369089190878,0.03139230496746376
0.368,0.0095,0.881,0.03950407969667362,1.4727504907610636,0.06664439735001555,0.03139230496746376
0.369,-0.0145,0.881,0.03972099727573265,1.4981738556850432,0.06716665753097456,0.032816303906532174
0.37,-0.0275,1.881,0.0404530974681139,1.4897476085737176,0.06892929373875328,0.03234433778470939
0.371,0.0165,1.881,0.041985605018362245,1.4981738556850435,0.07261902545153406,0.03281630390653219
0.372,-0.0127,-0.11900000000022204,0.042158500281135304,1.501389680477401,0.07303529559254573,0.032996426840936816
0.373,-0.0075,-1.119,0.041311749478262064,1.491246808355302,0.07099662159731636,0.032428310103275855
0.374,-0.0027,-0.11900000000044408,0.04135033424768411,1.486268484506401,0.07108951996335951,0.032149467082284264
0.375,0.0278,-2.119,0.04147977895229542,1.486268484506401,0.07140117665410696,0.032149467082284264
0.376,0.008,0.8809999999995559,0.04147071274840239,1.4947143448311562,0.07137934846799901,0.03262253176817199
0.377,0.0037,-1.119,0.041450670994550826,1.494714344831156,0.07133109507130034,0.032622531768171974
0.378,-0.0071,1.880999999999778,0.04150917800332806,1.5063180301772112,0.0714719590857519,0.03327247073854332
0.379,-0.0299,0.881,0.041689422980967006,1.5930888928099656,0.07190592471936727,0.03813263054431901
0.38,-0.0212,3.8809999999991116,0.04185275266935828,1.5930888928099656,0.07229916436820177,0.03813263054431901
0.381,-0.0023,-0.119,0.041463555802315394,1.6209806572505192,0.07136211709387653,0.03969488806179782
0.382,-0.0001,-1.118999999999556,0.04078183374458488,1.6164019474708027,0.0697207734702821,0.039438427994921754
0.383,-0.0022,0.881,0.04063303572076912,1.6180025402929632,0.06936252088798119,0.039528079482341
0.384,-0.0282,-0.11899999999977795,0.04075216026409445,1.6227948466197808,0.06964933031036007,0.03979650339654295
0.385,-0.0535,0.881,0.041001664948120985,1.627573042304693,0.070250048620029,0.04006413695356114
0.386,-0.0237,0.881,0.04090931627504985,1.619820065139914,0.07002770594536578,0.03962988164194998
0.387,0.0121,0.881,0.03916689778176601,1.6246070100953989,0.06583258353271387,0.03989800525809491
0.388,0.0074,0.881000000000222,0.03915702349548381,1.623012930522746,0.06580880977236234,0.03980871858707257
0.389,-0.0582,1.881,0.039990188832051195,1.6150189316564185,0.06781477480909197,0.03936096330610944
0.39,-0.0112,1.881000000000444,0.04000448432876488,1.6055940397231432,0.06784919326762805,0.038833061663114905
0.391,-0.0195,3.881,0.039666771961480655,1.6007502386609993,0.06703610231015449,0.03856175345532352
0.392,-0.0118,1.881,0.03768098178559061,1.6023664659435197,0.06225502766832144,0.03865228065117208
0.393,-0.0049,1.881,0.037205500283606,1.6023664659435197,0.06111023776080748,0.03865228065117208
0.394,0.027,0.881,0.03710747524906275,1.6023664659435197,0.0608742284318211,0.03865228065117208
0.395,0.0443,0.881,0.03717745305558917,1.6131959975691876,0.061042710036945676,0.0392588581672354
0.396,0.0494,-1.119,0.037234116991679105,1.614799768138553,0.061179136589577104,0.03934868764480906
0.397,0.0352,-1.119,0.03711042515779894,1.6118102308877686,0.060881330760166545,0.039181239398436006
0.398,0.0134,-2.119,0.03642399779761369,1.6211989851984978,0.05922865844609834,0.039707116921636795
0.399,0.0413,-2.119,0.03635084674160857,1.621198985198498,0.05905253678776018,0.03970711692163681
0.4,0.0232,-1.119,0.03604677281668335,1.6227948466197808,0.058320435204544815,0.03979650339654295
0.401,-0.0261,-0.119,0.03585284223718377,1.6090351170925243,0.05785351952172054,0.03902580131571019
0.402,-0.0193,1.881,0.03540604432111544,1.6168398104463015,0.056777789460974976,0.03946295332484689
0.403,-0.0513,0.881,0.03479067733485224,1.6198200651399142,0.05529620518829344,0.03962988164194999
0.404,-0.0571,1.881,0.033978861788088226,1.6198200651399142,0.05334164283240928,0.03962988164194999
0.405,-0.0621,0.881,0.033996203155027375,1.6120298008482339,0.0533833946603386,0.03919353782516625
0.406,-0.0381,0.881,0.03382981068828857,1.6120298008482339,0.05298278093338207,0.03919353782516625
0.40700000000000003,0.02760000000000157,-0.119,0.03350663207702403,1.6198200651399142,0.052204682077893895,0.03962988164194999
0.40800000000000003,0.05589999999999859,-1.119,0.03349252215966366,1.622794846619781,0.052170710428265925,0.03979650339654296
0.40900000000000003,0.030500000000001286,-3.119,0.03336006904492777,1.627573042304693,0.05185181055869045,0.04006413695356114
0.41000000000000003,0.05369999999999961,-3.119,0.03333248669466223,1.6259818705723246,0.051785402094685636,0.039975013154821534
0.41100000000000003,0.04669999999999965,-3.119,0.0330550320824907,1.5981773908562318,0.05111739032455067,0.038417644579282574
0.41200000000000003,0.04049999999999837,-2.119,0.03295007016015251,1.584203858872105,0.05086467944333974,0.03763496711782401
0.41300000000000003,0.011099999999999718,-1.119,0.032923487992789616,1.5937552496162717,0.05080067906311492,0.03816995413968328
0.41400000000000003,0.006000000000001321,1.881,0.0329347115830437,1.5986202455557295,0.05082770146629006,0.038442449502790216
0.41500000000000004,0.029799999999998796,-0.119,0.032922888384644605,1.6002386241144593,0.050799235420512616,0.03853309719468834
0.41600000000000004,0.008099999999999333,0.881,0.03281815778083314,1.6002386241144595,0.05054708147182948,0.038533097194688344
0.417,-0.0039,0.881,0.03283474791725263,1.6553113893402127,0.05058702460454451,0.04161780134331449
0.418,-0.0439,2.881,0.03280558414741968,1.6611285131654057,0.05051680864613083,0.04194362674763346
0.419,-0.0809,0.881,0.032796986396624074,1.6640294492697398,0.05049610832803844,0.04210611231739298
0.42,-0.1144,1.881,0.032891256645360044,1.6669253369070844,0.05072307747169876,0.042268315115314134
0.421,-0.0663,-1.119,0.03279328632263189,1.6577955693054074,0.05048719986925376,0.041756943807164965
0.422,-0.0083,-0.119,0.032755469009215554,1.6636040067216493,0.05039614926360956,0.04208228267332631
0.423,0.0304,-0.119,0.03274713992166451,1.6636040067216489,0.05037609579080896,0.04208228267332629
0.424,0.0372,-0.119,0.03277079906821573,1.6636040067216489,0.05043305857922277,0.04208228267332629
0.425,0.0053,1.881,0.032902612049315307,1.668053154600669,0.050750417235263634,0.042331485793307755
0.426,0.011,0.881,0.03297368168747426,1.653104732250017,0.050921527581629274,0.04149420333161452
0.427,0.0265,-2.119,0.032987591384437444,1.660702327448988,0.05095501717193629,0.04191975547764856
0.428,0.0504,-5.119,0.03303813659076134,1.665371764566615,0.0510767120051344,0.04218129731215513
0.429,0.0373,-1.119,0.03310375092672425,1.6577955693054107,0.05123468792908738,0.04175694380716515
0.43,0.0333,-3.119,0.032978033332313604,1.6653717645666177,0.05093200479067394,0.04218129731215528
0.431,-0.0139,-0.119,0.03293453817746179,1.6271380676452762,0.050827283967482526,0.040039773402340315
0.432,-0.0328,0.881,0.03304134502993791,1.627138067645276,0.05108443678259238,0.0400397734023403
0.433,-0.0503,1.881,0.0330663856139761,1.6241712410933065,0.051144725579875816,0.039873597214607585
0.434,-0.0453,1.881,0.03309383590532676,1.6319035464762155,0.051210816093103746,0.04030669467022527
0.435,-0.0214,0.881,0.033025537900433326,1.641177356112315,0.05104637885132042,0.0408261339782168
0.436,0.0089,1.881,0.03267000994388789,1.6395993869261876,0.05019039430766629,0.040737749672927266
0.437,0.0607,-0.119,0.032611896836287034,1.6531047322500454,0.050050478666788446,0.04149420333161612
0.438,0.0959,-2.119,0.03260019860298231,1.651538159165696,0.05002231349239765,0.04140645733824516
0.439,0.0252,-0.119,0.03266276732993931,1.6499700986906802,0.050172956675880925,0.04131862803400105
0.44,0.0157,-1.119,0.03214282262394567,1.6423228555817697,0.048921115227996165,0.040890295037702216
0.441,-0.0271,0.881,0.03213732474919581,1.6423228555817648,0.048907878306054635,0.04089029503770194
0.442,0.0117,-0.119,0.032143505810202574,1.6423228555817497,0.04892276009688926,0.0408902950377011
0.443,-0.0234,0.881,0.03213116166673203,1.634639837199349,0.04889303980114063,0.040459958217296074
0.444,-0.0296,-2.119,0.03213003475810397,1.6269205367048638,0.04889032660700225,0.04002758918403215
0.445,-0.0238,0.881,0.032249106463747776,1.64840054658029,0.04917700881508511,0.04123071518113159
0.446,0.0028,0.881,0.03211222441987229,1.6468294985696363,0.04884744566342835,0.04114271854075429
0.447,0.0076,1.881,0.031775928742590505,1.6423228555817513,0.04803776559031118,0.04089029503770118
0.448,-0.0054,1.881,0.03258053159289923,1.6470444000655946,0.049974962345065724,0.041154755480127335
0.449,-0.0013,0.881,0.03373310035961275,1.6411773561122969,0.052749936947320934,0.04082613397821578
0.45,0.0025,0.881,0.03347873260140474,1.6275730423047026,0.05213751008911919,0.040064136953561674
0.451,-0.0072,1.881,0.03359908321792521,1.6246070100954084,0.052427271458553436,0.03989800525809544
0.452,-0.022,-1.119,0.03397395844692181,1.629162659971089,0.0533298373353353,0.04015317370684856
0.453,-0.03,1.881,0.03794300201411733,1.6517524480407715,0.06288587894629943,0.04141845996384859
0.454,-0.0136,0.881,0.04191189891700822,1.6815404518418084,0.07244156744191624,0.04308692855313565
0.455,-0.0204,0.881,0.04195612662569549,1.6872671491948272,0.07254805199352618,0.04340768904174323
0.456,0.0095,1.881,0.041508377710043745,1.6901232214066142,0.07147003226489533,0.043567661720877116
0.457,0.0225,-1.119,0.04148711418205717,1.690123221406614,0.07141883727174508,0.04356766172087711
0.458,0.0106,1.881,0.04145202408114222,1.6990792897190041,0.0713343528213229,0.044069303884029104
0.459,0.0215,-0.119,0.04149695443159969,1.7168512722948222,0.07144252908376442,0.04506473798210308
0.46,-0.0013,-1.119,0.041979372991176676,1.6876866266012382,0.07260402095231462,0.0434311845697144
0.461,0.0076,0.881,0.04182129871224093,1.6655842736541615,0.07222343445545223,0.042193200249319954
0.462,-0.0003,1.881,0.042110343038088915,1.6431846505123635,0.07291935012340951,0.040938565401225285
0.463,-0.0122,1.881,0.042334988237365444,1.6280079007466748,0.07346021565830378,0.040088493995277634
0.464,-0.0186,0.881,0.04263794189599045,1.6250426622423628,0.07418962003973766,0.03992240675635977
0.465,-0.0047,-1.119,0.042666878665267687,1.6202570043935962,0.07425928946175803,0.03965435523289836
0.466,0.0229,-4.119,0.04271175955685733,1.6218537926994485,0.07436734664488208,0.03974379362393156
0.467,-0.0049,-2.119,0.04280038280050902,1.620257004393595,0.07458071981393312,0.0396543552328983
0.468,0.0059,-1.119,0.044529295420133924,1.650613492571234,0.07874332489879755,0.04135466544313438
0.46900000000000003,0.028599999999997835,-1.119,0.04567386304978489,1.6817509178260188,0.08149903561608646,0.043098717053167875
0.47000000000000003,-0.010399999999999727,-0.119,0.04527408997979952,1.6802110537077117,0.08053652461638422,0.04301246706708871
0.47100000000000003,-0.005500000000000266,-2.119,0.043868385051449965,1.6755829705449812,0.0771520884013045,0.042753241526592586
0.47200000000000003,-0.01030000000000024,-0.119,0.04343436476472495,1.6755829705449812,0.07610712231571493,0.042753241526592586
0.47300000000000003,-0.014599999999997558,-1.119,0.04345602797829264,1.6800003948134252,0.07615927960922288,0.043000667761887906
0.47400000000000003,0.02940000000000032,-1.119,0.04340924818558916,1.6844062342458206,0.07604665054933513,0.0432474451139889
0.47500000000000003,0.035199999999997345,-0.119,0.043248885024847805,1.6990792897190024,0.07566055324126426,0.04406930388402901
0.47600000000000003,-0.012700000000000338,1.881,0.04327757398978823,1.6945027409038893,0.07572962603880475,0.04381296485586327
0.47700000000000004,-0.018800000000000185,1.881,0.04328228113318041,1.692974475390493,0.07574095916159942,0.04372736452419204
0.47800000000000004,-0.02209999999999837,0.881,0.043201143247697756,1.6826584736454373,0.0755456080658578,0.04314955054935776
0.47900000000000004,0.007300000000000283,1.881,0.04291141828581087,1.600750238661005,0.074848053669023,0.038561753455323845
0.48,0.0124,-1.119,0.04275115684050483,1.5961134957077276,0.07446220125545026,0.0383020428676049
0.481,0.0265,-0.119,0.04264579246819825,1.5870223939260637,0.07420852141822282,0.03779283728719639
0.482,-0.013,0.881,0.04297396756626046,1.6106430307936173,0.07499865003225074,0.03911586285600262
0.483,0.0135,1.881,0.042886448497523516,1.61843997023403,0.07478793532266292,0.03955258055738982
0.484,0.0182,1.881,0.0425963034876211,1.6184399702340302,0.07408936959998928,0.039552580557389826
0.485,0.0225,-0.119,0.04236189920344529,1.6184399702340304,0.07352500766859454,0.03955258055738984
0.486,-0.0134,-2.119,0.042309525875005145,1.626199527074771,0.07339891136922025,0.03998720440603835
0.487,-0.0087,-0.119,0.04232227499711585,1.6168398104463073,0.07342960670912534,0.039462953324847214
0.488,-0.0217,-0.119,0.041883548496954554,1.6184399702340304,0.07237330973974326,0.03955258055738984
0.489,-0.0016,0.881000000000222,0.04076772510702066,1.607645763798172,0.0696868049019469,0.03894798165560365
0.49,0.0092,1.881,0.04068994396329068,1.6076457637981718,0.06949953564338412,0.03894798165560363
0.491,-0.0205,3.8809999999993336,0.040850217163379,1.6030289661965829,0.06988541635828102,0.03868938823548735
0.492,0.0074,0.881,0.04100185453474788,1.6030289661965829,0.07025050507702293,0.03868938823548735
0.493,0.0038,0.8810000000004441,0.040999710838320776,1.6124688510726162,0.07024534382043507,0.039218129654595105
0.494,-0.0389,2.881,0.040947194611772465,1.61086275985025,0.07011890347337155,0.039128170193936176
0.495,-0.0332,-0.119,0.04084626166621937,1.600017436054821,0.06987589293158904,0.03852070813591498
0.496,-0.0176,-0.119,0.04078998629844386,1.6078659024578268,0.06974040191290136,0.03896031193598681
0.497,-0.0803,1.881,0.04092086879018057,1.6062552087633655,0.07005552028235439,0.03887009468429982
0.498,-0.0886,1.881,0.041122828120949445,1.601413407542914,0.07054176633530802,0.03859889849049465
0.499,-0.0028,0.881,0.04125515560643132,1.5965569228928143,0.07086036373443723,0.038326879856847094
0.5,-0.0369,0.881,0.04155849199011418,1.6104232717567566,0.07159068958133667,0.039103553838833724
0.501,0.0565,-1.119000000000444,0.04163664024127747,1.6134153789404573,0.0717788427036941,0.03927114603081575
0.502,0.1699,-3.119,0.041644050519311304,1.6039810646598736,0.07179668401081034,0.03874271662870629
0.503,0.1851,-3.118999999999778,0.04165851155966341,1.6039810646598736,0.07183150103939745,0.03874271662870629
0.504,0.06,-2.119,0.0415520458584253,1.5991323778743853,0.07157516959481956,0.03847113476458028
0.505,0.01,-1.118999999999556,0.04158986612013683,1.5991323778743853,0.07166622729890727,0.03847113476458028
0.506,-0.0357,0.881,0.041664560482064975,1.6021455716482285,0.07184606468758933,0.038639908046558896
0.507,-0.022,1.881000000000222,0.04172561055884481,1.597291313108161,0.07199305150297289,0.03836801410051008
0.508,-0.0594,2.881,0.04166567603977779,1.5926445000494842,0.07184875055277136,0.03810773947182143
0.509,-0.0706,0.881000000000222,0.041679814982414326,1.5830864077250217,0.0718827920849144,0.037572377084889134
0.51,-0.0398,1.881,0.04167741394133177,1.5847206501244286,0.07187701123416129,0.03766391333313537
0.511,-0.0681,1.880999999999556,0.041759937243630585,1.5800368677780499,0.07207569791957825,0.037401568001901114
0.512,-0.0597,-0.119,0.04177078923478731,1.578397775888826,0.07210182564463338,0.03730976012681181
0.513,-0.0521,0.8809999999995559,0.041804021037798476,1.568752883572373,0.07218183597634321,0.036769535948496856
0.514,-0.017,-1.119,0.04183084558092605,1.559048325262074,0.07224641991098198,0.03622596979274543
0.515,-0.0359,0.880999999999778,0.041858546506544574,1.5621388386722612,0.07231311386215468,0.03639907385786202
0.516,0.0286,-0.119,0.041870334340008954,1.557387143871234,0.07234149476177991,0.03613292465315711
0.517,0.1228,-3.1190000000002223,0.041935917714350436,1.5088129451783845,0.07249939614118892,0.033412214487073856
0.518,0.1105,-4.119,0.04193464169024151,1.497228595821276,0.07249632393014487,0.032763358553028685
0.519,0.0536,-0.11900000000022204,0.04193864608540176,1.497228595821276,0.07250596508578606,0.032763358553028685
0.52,0.0228,-1.119,0.04184161674846295,1.4922702277912097,0.072272353041581,0.032485633285919545
0.521,-0.0244,-1.119,0.04183641613667033,1.494003814372342,0.07225983182284118,0.03258273394351138
0.522,-0.0161,-1.119,0.04237670213533501,1.4875332788840125,0.07356064785009106,0.03222031001976497
0.523,0.0228,-1.119,0.042778438630241625,1.5127082169435906,0.07452788607687705,0.0336303942157456
0.524,0.0019,-2.119,0.042907510637065216,1.5095165049852268,0.07483864544424988,0.033451621875573
0.525,-0.0168,-1.119,0.04302184296667475,1.5095165049852268,0.07511391692482956,0.033451621875573
0.526,0.0127,-0.119,0.042965456648459764,1.5144184079096952,0.07497815877704682,0.033726184451562904
0.527,-0.0029,-1.119,0.04395380662354895,1.5386936963477633,0.07735775308692261,0.035085877988777714
0.528,-0.0078,0.881,0.04473366607609479,1.562591907103371,0.07923537656297266,0.036424450867048444
0.529,0.0052,-0.119,0.04597667523354174,1.5767569801093997,0.08222809937648556,0.03721785681440146
0.53,-0.0149,2.881,0.04607195662489523,1.5718243160425018,0.0824575029910112,0.03694157126293938
0.531,-0.0549,2.881,0.04605716798847985,1.5671019893770657,0.08242189722791936,0.03667706700940633
0.532,-0.0179,1.881,0.04599269758143692,1.5671019893770657,0.08226667547689855,0.03667706700940633
0.533,0.0059,1.881,0.04597748911894319,1.5671019893770655,0.08223005892231346,0.03667706700940632
0.534,-0.0071,1.881,0.046064866288120794,1.559048325262074,0.08244043198836155,0.03622596979274543
0.535,-0.0031,1.881,0.046483188798914096,1.5492829797323406,0.08344760342708887,0.03567899885811276
0.536,-0.0139,-0.119,0.04655580657875489,1.5652232499149006,0.0836224411465813,0.03657183613186873
0.537,0.0024,0.881,0.046695606691923505,1.5540594540368275,0.08395902996855804,0.03594653599815756
0.538,-0.0004,-1.119,0.046695917205971396,1.5557241886942303,0.08395977757566091,0.036039780161275244
0.539,-0.003,-0.119,0.046657166578405206,1.5798128512926957,0.0838664798823491,0.03738902051896831
0.54,-0.0396,-0.119,0.047082580298770355,1.622140418993001,0.08489072442511103,0.039759847971542445
0.541,-0.0445,0.881,0.047270534430431485,1.6143613518427993,0.08534325095264811,0.03932413132262706
0.542,-0.0112,1.881,0.04805301765573638,1.5748897584556094,0.08722719153790567,0.037113271065742554
0.543,0.0104,-0.119,0.048086802981685904,1.6061039483358646,0.08730853455547344,0.038861622371963174
0.544,0.0064,-1.119,0.048419899787221735,1.6877523826727587,0.08811051288609396,0.04343486766108969
0.545,0.0099,1.881,0.04831844733963431,1.7182169109189982,0.08786625156865908,0.04514122934970105
0.546,0.0327,-0.119,0.048318225902994345,1.7225250036968829,0.08786571842819091,0.04538253177223481
0.547,0.0413,-1.119,0.048306840316247227,1.7225250036968827,0.08783830599522595,0.0453825317722348
0.548,0.0333,-1.119,0.04779774626689043,1.7225250036968829,0.0866125890593483,0.04538253177223481
0.549,0.05,-2.119,0.047382830923557225,1.7152012779128483,0.08561362086492227,0.04497231944284105
0.55,0.0255,-1.119,0.04755970876450069,1.7355890507167946,0.0860394796340432,0.04611426768335126
0.551,-0.0107,-0.119,0.047791305812892544,1.7428271049002833,0.08659708274268654,0.04651968142417696
0.552,-0.0246,-1.119,0.047549708507496104,1.740057541229384,0.08601540258111137,0.04636455421183367
0.553,-0.0026,-1.119,0.04449656863242002,1.7112884342557695,0.07866453046384299,0.04475315548743697
0.554,-0.0224,0.881,0.04046100004669584,1.6848922916411408,0.0689483203300427,0.04327466988212372
0.555,0.032,-1.119,0.040125954075206575,1.6745264999511993,0.06814164910284838,0.04269406710144467
0.556,0.0244,-1.119,0.04018588427003646,1.6700945972147516,0.06828593964182883,0.04244582990650108
0.557,0.0034,-0.119,0.04003407552776764,1.6776152503637365,0.06792043832306806,0.04286707241854773
0.558,-0.0154,-0.119,0.03998385545522422,1.683355301124709,0.0677995262960757,0.043188580850585155
0.559,-0.0213,0.881,0.039763907442009076,1.6652258739871735,0.06726996991027419,0.042173125772669066
0.56,-0.0264,-0.119,0.039646928689783395,1.6636707146515695,0.06698832678770773,0.04208601907964852
0.561,-0.0124,-0.119,0.03968748946153843,1.6589964897395135,0.0670859826627572,0.04182420907394559
0.562,-0.0168,-0.119,0.039102905308723034,1.6498228461728508,0.06567851247634114,0.041310380210402904
0.5630000000000001,0.01910000000000052,-0.119,0.03867617122414736,1.651391046469904,0.06465108896738148,0.04139821734627881
0.5640000000000001,0.02379999999999856,-1.119,0.038382595277802994,1.651391046469906,0.06394426277317387,0.04139821734627892
0.5650000000000001,0.010799999999995138,-0.119,0.038378745796311495,1.6468968859549307,0.06393499459440723,0.04114649300434133
0.5660000000000001,-0.03299999999999674,1.881,0.03821996051368111,1.6545229879258645,0.06355269625418093,0.041573641855341556
0.5670000000000001,-0.0036000000000005437,-1.119,0.03811543504495185,1.6560867375177581,0.0633010361976278,0.041661229700871986
0.5680000000000001,-0.008499999999999468,-1.119,0.03607881180598123,1.6335568876588262,0.05839757366617175,0.040399300668565605
0.5690000000000001,-0.0037000000000004776,-0.119,0.03438045847307323,1.5793647229987728,0.05430854444675805,0.03736392021391346
0.5700000000000001,-0.008000000000006639,0.881,0.033984249991050056,1.6030981947698104,0.053354615703792484,0.03869326582663722
0.5710000000000001,-0.06779999999999908,1.881,0.03390709581480486,1.6219222177720223,0.053168855959366275,0.03974762620986352
0.5720000000000001,-0.05949999999999743,2.881,0.03384275246112301,1.618945832854414,0.053013940107533686,0.039580914644435146
0.5730000000000001,-0.03640000000000076,0.881,0.03381749388622887,1.6159639658516005,0.052953126466001255,0.03941389601959353
0.5740000000000001,-0.043199999999992154,-1.119,0.033786910204152254,1.6207622998922664,0.05287949186522332,0.03968265755464743
0.5750000000000001,0.027500000000007317,-1.119,0.03380070048967858,1.6069851668802988,0.052912693955370634,0.038910980679807715
0.5760000000000001,0.09339999999999908,-3.119,0.03376784232414962,1.6023664659435368,0.05283358320948469,0.038652280651173036
0.577,0.0851,-3.119,0.03382151038837098,1.6069851668802935,0.05296279677093762,0.038910980679807416
0.578,0.1083,-2.119,0.033845997278811525,1.6118102308877806,0.053021752471476405,0.03918123939843668
0.579,0.0304,-1.119,0.03383975718515732,1.6118102308877804,0.05300672855107685,0.039181239398436665
0.58,-0.0047,-0.119,0.03383559546217002,1.6134153789404633,0.05299670860612875,0.039271146030816086
0.581,-0.0109,-0.119,0.033883111107748186,1.5993536883361703,0.05311110933734511,0.03848353067927249
0.582,-0.0052,0.881,0.03344477005265399,1.5772058493362098,0.05205574038224094,0.03724299862016436
0.583,-0.0316,0.881,0.033411730592045746,1.5692040423645581,0.05197619314245106,0.03679480599608277
0.584,-0.065,-0.119,0.03363822124307403,1.5642475612101923,0.052521501867104324,0.03651718641557349
0.585,-0.0346,-2.119,0.03363410696649147,1.559275324928474,0.052511596156180174,0.03623868436790451
0.586,-0.0386,-1.119,0.03364939244356891,1.5542871823152768,0.052548398134420665,0.03595929138391697
0.587,0.0086,0.881,0.0337241935416945,1.559048325262078,0.05272849250580572,0.03622596979274565
0.588,-0.0103,2.881,0.033792562002522654,1.5732453040391554,0.05289309938035636,0.03702116282785277
0.589,-0.0633,3.881,0.03379255560505616,1.5732453040391534,0.05289308397753828,0.03702116282785265
0.59,0.043,0.881,0.033907694885515094,1.5732453040391534,0.05317029830801727,0.03702116282785265
0.591,0.0886,-1.119,0.03369227292173608,1.5748897584555952,0.05265163903533954,0.03711327106574176
0.592,0.0194,-3.119,0.03342353567437594,1.5732453040391523,0.05200461557119449,0.037021162827852595
0.593,0.0567,-5.119,0.033433977379830074,1.5732453040391523,0.052029755474579234,0.037021162827852595
0.594,0.0227,-4.119,0.03364728169482026,1.5828628228293828,0.052543316204093894,0.037559853775912
0.595,0.0329,-1.119,0.03399543399865818,1.601924646893134,0.05338154280607071,0.038627533735848686
0.596,-0.0141,-0.119,0.03409798427792049,1.5940469283294685,0.0536284473107091,0.03818629148052636
0.597,-0.0393,1.881,0.03413168424718836,1.5956699452968635,0.05370958481982431,0.0382771989763111
0.598,-0.0624,0.881,0.03464769509460337,1.6005291213048676,0.05495195493900416,0.03854936835675444
0.599,-0.0412,2.881,0.03652622025135514,1.6393835094877305,0.05947477366377997,0.040725658069622556
0.6,-0.0598,1.881,0.03671581428267645,1.6472592735254825,0.059931248484936195,0.041166790849160084
0.601,-0.0302,0.881,0.03663510240627167,1.65196670911883,0.059736923067145925,0.04143046103250143
0.602,0.0283,0.881,0.037906788350413806,1.6832893732854315,0.0627986893573273,0.04318488813825273
0.603,0.005,-1.119,0.04163912032686758,1.7097102634661536,0.07178481386543537,0.04466475989004844
0.604,-0.0304,-1.119,0.04234862618663913,1.719864012180738,0.07349305097707545,0.045233485841171366
0.605,-0.0243,-0.119,0.0424772366796204,1.7327438721788024,0.07380269918368461,0.04595490517442784
0.606,-0.007,1.881,0.0423593978067107,1.7299581659067214,0.0735189851972166,0.04579887379196288
0.607,0.0086,-2.119,0.043005869343196446,1.739993761822228,0.07507545813543803,0.046360981836249406
0.608,0.0418,-1.119,0.04329450016197001,1.7442480691040452,0.07577037822581029,0.04659927165641654
0.609,0.0634,-0.119,0.04333821402486152,1.7442480691040452,0.07587562561997341,0.04659927165641654
0.61,0.0434,-1.119,0.04330934421512762,1.751450339341732,0.07580611741265667,0.04700268108738751
0.611,-0.0038,-0.119,0.04327995087998648,1.7529276242296334,0.07573534874284027,0.047085425921494395
0.612,0.015,0.881,0.043346525894035155,1.7544036651792612,0.075895637637061,0.04716810108084393
0.613,0.0208,0.881,0.04343747790613892,1.7586231136282005,0.07611461765014226,0.047404438408051
0.614,-0.0161,-0.1189999999995559,0.04339925471389724,1.7586231136282005,0.07602258983301664,0.047404438408051
0.615,0.0078,1.881,0.043701726780288226,1.7586231136282005,0.07675083471207927,0.047404438408051
0.616,-0.0054,0.881000000000222,0.044167968505188275,1.7628324625954301,0.07787337853113357,0.047640210048879326
0.617,-0.0016,1.881,0.044122388578463276,1.7542019159623876,0.07776363832066856,0.04715680081938583
0.618,0.0164,0.8810000000004441,0.04416293044034402,1.7499718073652473,0.07786124866748372,0.04691986640206995
0.619,-0.0135,2.881,0.04417345639084379,1.745731448757302,0.07788659140289786,0.04668235786702593
0.62,-0.0016,2.8809999999995557,0.044274903284722215,1.7544036651792612,0.07813083934898185,0.04716810108084393
0.621,-0.0125,0.881,0.044503861972165874,1.7544036651792612,0.07868209022526017,0.04716810108084393
0.622,-0.0093,0.881000000000222,0.044177719713446785,1.745731448757302,0.07789685596349175,0.04668235786702593
0.623,-0.018,1.881,0.04451220711520863,1.745731448757302,0.07870218235395966,0.04668235786702593
0.624,-0.01,0.880999999999778,0.046184012366662405,1.765766751412662,0.0827272932598621,0.04780456375167015
0.625,-0.0076,-0.119,0.04609445126255709,1.7828741062741194,0.08251166205726511,0.04876277110328648
0.626,-0.0231,-1.1189999999993339,0.04616195109977283,1.7872243766925227,0.08267417759589465,0.04900643595563748
0.627,-0.0133,1.881,0.04581476705504051,1.757754779958004,0.0818382822165781,0.04735580180039445
0.628,-0.0042,0.881,0.04582596737731211,1.7420903624876323,0.08186524859874839,0.046478415430587255
0.629,0.0004,0.881,0.04454426681024793,1.7420903624876323,0.0787793706676286,0.046478415430587255
0.63,0.0231,1.880999999999778,0.044568349242627835,1.7378307730269276,0.07883735257738078,0.04623982974804492
0.631,0.0068,0.881,0.044729992891692584,1.7393196256831138,0.07922653284473227,0.04632322250935633
0.632,0.0096,0.8809999999995559,0.044816660377968824,1.7480236524431254,0.07943519724741571,0.04681074746559015
0.633,0.0393,-1.119,0.04538271055082871,1.7507806145506772,0.08079804421902619,0.0469651688463926
0.634,-0.0047,-1.119,0.04537566944661139,1.7789111562577071,0.0807810917508185,0.048540800619213016
0.635,-0.0107,-1.119,0.04502539532262761,1.8080359531925514,0.07993775656253833,0.05017212204577535
0.636,0.0262,-1.119000000000222,0.044941751425144255,1.7983800968215746,0.07973637188350369,0.04963128375512489
0.637,0.0215,-2.119,0.044789060679728175,1.7956962164737478,0.07936874701567284,0.0494809557879451
0.638,-0.0003,-1.118999999999778,0.04478067137926643,1.795696216473748,0.07934854857165424,0.049480955787945105
0.639,-0.0282,-0.119,0.04477513666993016,1.7787121867884694,0.07933522296516327,0.04852965605538566
0.64,-0.0102,0.880999999999778,0.04435608620591976,1.7429665000780783,0.07832629887466591,0.04652748914695028
0.641,0.0127,-0.119,0.044204012094906375,1.7414807652648212,0.07796015864259453,0.04644427102046933
0.642,-0.014,1.881,0.04333554132851279,1.7372196810980542,0.07586919072020736,0.04620560161730806
0.643,-0.0394,1.881,0.043422201290937525,1.7157555313708939,0.07607783700813928,0.045003363969739515
0.644,-0.0491,2.8809999999995557,0.04308530045851563,1.6764276676592778,0.07526669993723356,0.04280055421703263
0.645,-0.0284,0.881,0.04322507101383251,1.6314017017693703,0.0756032175944432,0.040278585632249314
0.646,-0.0363,0.881000000000222,0.0444086266333444,1.6361547623489758,0.07845279748880996,0.04054481133616084
0.647,-0.0727,1.881,0.04457714801396179,1.645404611507878,0.07885853688124872,0.04106290858364187
0.648,-0.1205,3.8809999999997777,0.04471796441493493,1.6677744189595898,0.07919757256186646,0.042315873412398924
0.649,-0.0626,2.881,0.04475734051435241,1.6972812536841626,0.07929237616836272,0.04396859332058964
0.65,-0.0082,1.8809999999988898,0.045653413968533306,1.6896386687905465,0.08144980152025512,0.043540521237574986
0.651,0.0978,-3.119,0.04577029239572832,1.6850364795015726,0.08173120309592206,0.0432827460498889
0.652,0.1739,-3.119,0.04584481690329109,1.6834996206248387,0.0819106315358597,0.0431966643916776
0.653,0.0771,-2.119,0.04586577592217834,1.6834996206248385,0.08196109337968197,0.043196664391677596
0.654,0.0397,-2.119,0.04592688338653235,1.6834996206248387,0.0821082183638806,0.0431966643916776
0.655,0.0056,0.881,0.045840165461195265,1.680632292281132,0.08189943252192443,0.04303606124053659
0.656,0.0781,-2.119,0.04577900743156603,1.680632292281132,0.08175218579457381,0.04303606124053659
0.657,0.0499,-1.119,0.04577393394343477,1.680632292281132,0.08173997064428026,0.04303606124053659
0.658,0.0246,-0.119,0.045767589375192326,1.6673499319816967,0.08172469518632623,0.04229209729118226
0.659,-0.0142,1.881,0.045612070315344935,1.6628989026054612,0.08135026074587744,0.042042788785857564
0.66,-0.021,0.881,0.04527688939515391,1.6628989026054612,0.08054326461032987,0.042042788785857564
0.661,-0.0271,0.881,0.045206451844686774,1.6675621889775754,0.08037367610573355,0.04230398610833313
0.662,-0.0328,-1.119,0.045216621114792,1.6766387754438463,0.08039816008194432,0.042812378665218524
0.663,-0.0063,-0.119,0.045197455032948156,1.684130205159007,0.08035201499118927,0.04323198433104573
0.664,0.0565,-1.119,0.04516747204944498,1.684130205159007,0.0802798266583765,0.04323198433104573
0.665,0.0648,-1.119,0.045250654019205375,1.6841302051590077,0.08048009918017042,0.04323198433104577
0.666,0.0259,-0.119,0.04524370612355824,1.6795129216852382,0.08046337112496302,0.042973363696535496
0.667,0.0191,-0.119,0.04529138659903943,1.6823821578028948,0.08057816870781011,0.04313407370481712
0.668,-0.0129,-0.119,0.04536138948855507,1.6777600636182424,0.08074671070382852,0.0428751836155272
0.669,-0.0303,1.881,0.0453849220833655,1.6777600636182404,0.08080336880077688,0.04287518361552709
0.67,-0.0459,0.881,0.04536655979390716,1.656660768491282,0.08075915895546634,0.041693381994627535
0.671,-0.0412,-0.119,0.04536687282272957,1.6352892626822915,0.08075991261724952,0.040496333465084064
0.672,-0.0807,2.881,0.0453703023815802,1.633705606294143,0.08076816977203481,0.040407630611495826
0.673,-0.1285,2.881,0.04545904434236555,1.6321204132752678,0.08098182876961105,0.04031884168902837
0.674,-0.0322,2.881,0.045423934445835416,1.6227948466197673,0.08089729665840631,0.03979650339654219
0.675,0.0371,1.881,0.04556180339953477,1.625764184930127,0.08122923593700235,0.03996282027144568
0.676,0.0744,-0.119,0.04556051540918728,1.6409616862642964,0.08122613491552277,0.0408140540023487
0.677,0.0857,-2.119,0.04564426027820358,1.6364388837944601,0.08142776269800388,0.04056072538365794
0.678,0.0131,-2.119,0.04563522704615537,1.6287281098413509,0.08140601389634103,0.04012883393414068
0.679,-0.034,-0.119,0.04563560098265664,1.6271380676452447,0.0814069142020962,0.04003977340233855
0.68,-0.0384,0.881,0.045643548143918744,1.6255464701364961,0.08142604813258195,0.039950625755256465
0.681,-0.03,1.881,0.045665849776353684,1.6161829714976805,0.08147974251107205,0.039426162838269996
0.682,0.0715,-1.119,0.04584848421248782,1.6161829714976805,0.08191946110870035,0.039426162838269996
0.683,0.0303,-3.119,0.04598938703809427,1.6145805748713815,0.0822587048690174,0.039336410317207596
0.684,-0.0324,-3.119,0.04683686486093685,1.6332722648659395,0.08429912926908902,0.040383358539885256
0.685,-0.021,-1.119,0.047668414789144804,1.6713656434831095,0.0863012049785185,0.0425170230213016
0.686,-0.0106,0.881,0.04774026400829959,1.6894291854481567,0.08647419227793568,0.043528787776713
0.687,-0.0012,0.881,0.0478779575429024,1.6940194409938905,0.08680570920989895,0.0437858945384152
0.6880000000000001,0.007199999999997413,-1.119,0.0479201529731643,1.6940194409938967,0.08690730075973932,0.04378589453841555
0.6890000000000001,-0.016100000000000742,-1.119,0.04838995953301614,1.741887187117479,0.08803842743019315,0.04646703528824936
0.6900000000000001,-0.022799999999999314,-0.119,0.04831065695918961,1.7418871871174781,0.08784749511047604,0.04646703528824931
0.6910000000000001,-0.01660000000000191,-0.119,0.049483443089741216,1.7619662033813817,0.09067114591565771,0.047591689634471086
0.6920000000000001,-0.033799999999998234,1.881,0.050933894267831153,1.770558903587327,0.09416331514429964,0.048072979031590114
0.6930000000000001,-0.017900000000002643,3.881,0.05094417451603507,1.770558903587327,0.094188066316199,0.048072979031590114
0.6940000000000001,-0.04170000000000727,1.881,0.05093581412926919,1.7619662033813832,0.09416793748604987,0.047591689634471177
0.6950000000000001,-0.10719999999999269,1.881,0.052775011802646786,1.8174457859869169,0.09859606965442601,0.050699180204915754
0.6960000000000001,-0.04129999999998957,1.881,0.05713147025121136,1.844559927617774,0.109084868153641,0.05221788195944524
0.6970000000000001,0.05270000000000135,-3.119,0.058048175846273115,1.8712812370525627,0.11129196834367584,0.05371458062224764
0.6980000000000001,0.06490000000000376,-3.119,0.058270848054212065,1.8671268233100111,0.11182808361896705,0.05348188598172566
0.6990000000000001,0.09879999999999657,-2.119,0.05711149599554097,1.8331060392918783,0.10903677726849378,0.05157633333387761
0.7000000000000001,0.06789999999999687,-1.119,0.056792729138746764,1.8138147154751503,0.10826930034460755,0.05049579876536598
0.7010000000000001,0.03969999999999909,-0.119,0.056787100796574265,1.8068610509574778,0.10825574930363496,0.05010631409544082
0.7020000000000001,0.03149999999999918,0.881,0.05609571110666794,1.779172480648089,0.10659112946908755,0.04855543777113092
0.7030000000000001,0.024099999999996093,-1.119,0.05332999081942075,1.7510461371202615,0.09993226122998264,0.04698004114431687
0.704,-0.0111,0.881,0.05284923866734617,1.7455286972009665,0.0987747814764834,0.0466710014631046
0.705,-0.005,-0.119,0.05273399374847621,1.739993761822271,0.09849731280637967,0.046360981836251806
0.706,0.0007,1.881,0.05280392922686059,1.7472135690256942,0.09866569250043178,0.046765373537692397
0.707,-0.0044,0.881,0.05269444450060571,1.754605391198516,0.09840209232015058,0.04717940004297032
0.708,-0.0185,-0.119,0.05266798978785883,1.7901186837353105,0.09833839880519278,0.04916855022220259
0.709,-0.0316,-0.119,0.05276222632090493,1.7915640838287974,0.09856528677349438,0.04924950914348659
0.71,-0.0356,1.881,0.053045590491854595,1.7969401793151112,0.09924752665391089,0.04955063192136169
0.711,-0.0104,1.881,0.05603025177741765,1.8447517949582353,0.10643352674602558,0.05222862872290774
0.712,-0.0076,1.881,0.056048554838316465,1.980326606432596,0.10647759399008476,0.05982236732836646
0.713,0.0128,0.881,0.05603616320954007,1.9890994202245809,0.10644775936665217,0.06031374514439459
0.714,0.0316,-0.119,0.056246317596043906,2.0151887280640737,0.10695373619158692,0.061775044496213495
0.715,-0.0004,-1.119,0.05596058622299785,2.0151887280640737,0.10626579693262952,0.061775044496213495
0.716,0.0213,-1.119,0.05560686928412123,2.0127939633580625,0.10541417267374133,0.06164091030859218
0.717,0.0251,-1.119,0.055546616658795823,2.014079567330381,0.10526910583710135,0.061712918821159965
0.718,-0.0222,0.881,0.05552120748927789,2.021600957843039,0.1052079296174145,0.06213420263399789
0.719,-0.0036,0.881,0.0555442469912852,2.0290944684676586,0.10526340052272211,0.06255392485453257
0.72,0.0021,0.881,0.055545884374537335,2.0252638021119145,0.105267342757728,0.06233936376701265
0.721,-0.0137,-0.119,0.055397472027722064,2.0239853022039784,0.10491001874811788,0.06226775316322579
0.722,0.0297,-0.119,0.05526003056213519,2.0252638021119145,0.10457910870846111,0.06233936376701265
0.723,0.0002,-0.119,0.054707865259388554,2.007819598203646,0.1032496915529559,0.06136228901972626
0.724,-0.0369,-1.119,0.05318059570361903,1.9889214778641748,0.09957257106309321,0.060303778338930754
0.725,0.0065,-2.119,0.053088231898326045,1.971155680278769,0.0993501919554357,0.05930869067099346
0.726,0.0358,-0.119,0.05306695627614211,1.9711556802787669,0.09929896784377078,0.059308690670993335
0.727,0.0094,0.881,0.05277420794250606,1.9724684231952427,0.09859413424585108,0.05938221927454054
0.728,-0.0046,-0.119,0.05226358869980998,1.9675719907872833,0.09736474518827254,0.059107963109984674
0.729,0.0084,-0.119,0.052476721243701605,1.9562388485948923,0.09787789235423273,0.05847317764761443
0.73,-0.0274,-0.119,0.05236997626179459,1.963981762126631,0.09762088850139125,0.05890686928078193
0.731,-0.0416,0.881,0.052447655547499694,1.9752704797431644,0.09780791252215108,0.059539166459281076
0.732,-0.0374,-0.119,0.05243075098655233,1.9688871231072929,0.09776721236729181,0.059181625547432594
0.733,-0.0972,2.881,0.051977333387991695,1.968887123107293,0.09667554447157999,0.059181625547432615
0.734,-0.0889,3.881,0.0519065964992084,1.943508261357802,0.09650523526705773,0.05776011929465676
0.735,0.0281,2.881,0.051843404192548986,1.91644338705511,0.0963530907260098,0.056244177073463957
0.736,0.0447,1.881,0.0518599347118563,1.912572147761841,0.09639289032197725,0.05602734343783078
0.737,0.0294,-2.1190000000004443,0.05186027571758716,1.915092240906475,0.09639371134217985,0.0561684974500964
0.738,-0.0674,-4.119,0.051864281901094884,1.9216543018418433,0.09640335680352408,0.05653604784470418
0.739,-0.0047,-0.11899999999933386,0.05186177027619116,1.9177935812788458,0.09639730970636207,0.05631980337815986
0.74,-0.1077,2.881,0.05189027504450927,1.9139250729852042,0.09646593902411761,0.05610312270971195
0.741,-0.1215,1.881,0.05218527270357253,1.9218384724569275,0.0971761881955918,0.05654636350359795
0.742,0.0171,1.881,0.052451261644254524,1.9231848790021866,0.09781659471725902,0.056621777655018767
0.743,-0.0383,-0.11900000000111022,0.0526820772672322,1.9231848790021868,0.0983723164321491,0.05662177765501879
0.744,0.1464,-5.119,0.052747249834570895,1.9061645034507324,0.09852922873478275,0.05566844213864281
0.745,0.2205,-3.119,0.05263190839507336,1.917978122613148,0.09825152767742558,0.0563301398015659
0.746,0.1088,-3.119,0.0518986836747353,1.9179781226131478,0.09648618400731593,0.05633013980156588
0.747,0.0885,-1.119,0.05175009966135995,1.9179781226131478,0.09612844668584271,0.05633013980156588
0.748,0.0332,-1.119,0.051483466287959606,1.8919164720597392,0.09548648859998432,0.0548703895737972
0.749,-0.0166,0.881,0.05107107250385813,1.8654907653696076,0.09449359142103972,0.0533902480424381
0.75,-0.0012,0.881,0.05010648609026597,1.853533568484941,0.09217121129353448,0.05272050838645979
0.751,-0.0424,0.881,0.049642472392001646,1.850929663362354,0.09105403176813956,0.052574659945740544
0.752,-0.005,0.881,0.04948415210490907,1.8523276123088366,0.09067285297135819,0.05265296106058571
0.753,0.0292,1.881,0.04938294917347354,1.850929663362354,0.09042919239984355,0.052574659945740544
0.754,0.0191,1.881,0.04935875968166365,1.8483220898774202,0.09037095272915968,0.05242860603481287
0.755,-0.0279,1.881000000000222,0.049429190313545264,1.8483220898774202,0.09054052457626911,0.05242860603481287
0.756,-0.0706,2.881,0.04952812868620674,1.849722009528976,0.0907787328977621,0.05250701753166064
0.757,-0.0473,3.8809999999993336,0.049978728279215005,1.8793151523228002,0.0918636160409605,0.054164571677939616
0.758,-0.0402,0.881,0.05003243876224691,1.8793151523228002,0.09199293173178334,0.054164571677939616
0.759,0.0564,-2.1190000000004443,0.05041091306049285,1.8873736702000024,0.0929041628839458,0.054615940760746426
0.76,0.1815,-4.119,0.05057891248777496,1.895397926604961,0.09330864559887363,0.05506539080961452
0.761,0.0304,-7.1189999999988895,0.05161277270039387,1.8873736702000024,0.09579781233248227,0.054615940760746426
0.762,-0.0306,-2.119,0.0521877490640592,1.9069070632647083,0.0971821503886123,0.05571003397317999
0.763,-0.0491,-3.118999999999556,0.05218760695797123,1.898931441288673,0.09718180824782525,0.05526330800805912
0.764,0.001,-1.119,0.052172913454818816,1.8989314412886729,0.09714643153170761,0.055263308008059106
0.765,0.0163,0.881,0.05214764614768282,1.9002940781157414,0.09708559686605057,0.05533963124071864
0.766,0.0027,0.881,0.05227779114934177,1.8977543340843444,0.09739893962237378,0.055197376554250936
0.767,-0.0095,1.881,0.05243047084443443,1.895211186583192,0.0977665378849662,0.055054931234586754
0.768,-0.0206,1.881,0.052377162792835955,1.9187161104592605,0.09763819110553429,0.05637147555366055
0.769,-0.0306,-1.118999999999778,0.05304292782459541,1.9302695715144755,0.09924111590061624,0.05701860138985058
0.77,-0.0213,-0.119,0.05333484972046637,1.9327665895033783,0.0999439597310924,0.05715846292972402
0.771,-0.013,0.881,0.05334136971243908,1.9392688452371938,0.09995965754683554,0.05752266354967307
0.772,-0.0206,0.881,0.053350996699910835,1.9470792442326934,0.09998283589983441,0.05796013513994248
0.773,0.0005,-0.11899999999977795,0.053312788506698836,1.9663795353753537,0.09989084419502386,0.05904117198117259
0.774,0.0067,0.881,0.05339086880197202,1.9663795353753535,0.10007883370382993,0.05904117198117259
0.775,-0.0342,1.880999999999778,0.05376839362035246,1.962606797539963,0.10098777884704595,0.058829855552720106
0.776,-0.0497,0.881,0.05376515709974323,1.9765243426639074,0.10097998645951155,0.05960939711026745
0.777,-0.0449,1.880999999999778,0.05375216056523285,1.989043626451877,0.10094869543877143,0.060310620055588515
0.778,-0.0492,0.881,0.053746871194991525,1.991466951449277,0.10093596052133699,0.06044635394587543
0.779,-0.0054,1.881,0.05374553640449575,1.9951851177541393,0.10093274682178859,0.06065461374504977
0.78,0.0476,-2.119,0.05389468163281047,1.9951851177541393,0.1012918353487153,0.06065461374504977
0.781,0.0266,0.881,0.05393335989628052,2.002777467249359,0.10138495881508752,0.061079872071733
0.782,0.0198,-1.119,0.05403394333802709,2.0090531471140416,0.10162712787633152,0.06143138185401254
0.783,0.0137,0.881,0.053905281649442416,2.0090531471140416,0.10131735640896491,0.06143138185401254
0.784,0.0195,-0.119,0.05314175126167958,1.997778161689069,0.0994790474982233,0.06079985383515344
0.785,0.0245,-0.119,0.052443289976039385,1.9813986521431464,0.09779740178276916,0.059882414138024496
0.786,0.0105,-1.119,0.05245290177771554,1.9699653941396023,0.09782054357378722,0.05924202104624356
0.787,0.0064,1.881,0.05238941008759108,1.9748558923828554,0.09766767822411093,0.05951594482976836
0.788,-0.0054,-0.119,0.05251713647904713,1.9660195218477214,0.0979751978295041,0.05902100710988466
0.789,-0.0236,-0.119,0.053113393490813905,1.9277693191688716,0.09941077209791623,0.05687855868904408
0.79,-0.06,1.881,0.053205554680821394,1.9277693191688725,0.0996326633802157,0.05687855868904413
0.791,-0.0554,0.881,0.05215471403127926,1.916016070736814,0.09710261380945406,0.05622024247685489
0.792,-0.0598,1.881,0.05074262832725305,1.9119588618745185,0.09370281496182975,0.055992992420351224
0.793,-0.0318,2.881,0.050717824566693506,1.9078930252189896,0.09364309635103533,0.05576525910883991
0.794,0.0225,2.881,0.05059293324709238,1.9158313404090195,0.09334240258772654,0.05620989546765372
0.795,0.0615,1.881,0.04843107196704693,1.8429038357789624,0.0881374115112885,0.05212512189292694
0.796,0.0123,1.881,0.04311426838688032,1.8157649645141651,0.07533644437922565,0.050605034996320485
0.797,0.0061,0.881,0.04171606849008666,1.7882142670232337,0.0719700776039557,0.049061881125265557
0.798,0.0002,0.881,0.040764384502588534,1.8051088951123573,0.06967876191768162,0.050008173346881575
0.799,0.0052,0.881,0.04063395572808575,1.8009983586391283,0.06936473593753942,0.049777936334810875
0.8,0.0002,0.881,0.04060186671235141,1.7995605361347962,0.06928747703009211,0.049697401845105835
0.801,-0.0043,0.881,0.04060764694790288,1.8022386617758477,0.06930139377615849,0.04984740748294932
0.802,-0.0005,-0.119,0.04041784768714587,1.8049128136243704,0.06884442483570269,0.049997190543004146
0.803,-0.0188,0.881,0.040434761490533065,1.8034781119210632,0.06888514724306138,0.04991683085381674
0.804,-0.0287,0.881,0.0403330362740104,1.8159598742222918,0.06864022919529558,0.05061595216713624
0.805,-0.0318,0.881,0.04030022785631119,1.809014455491819,0.06856123822444436,0.0502269293555158
0.806,-0.0671,3.881,0.0403553622681162,1.8090144554918168,0.06869398222800213,0.050226929355515676
0.807,-0.0237,0.881,0.03973860958193371,1.796484437887308,0.06720906168403384,0.049525105193817094
0.808,0.0642,1.881,0.03945785051558426,1.7610995180670324,0.06653309396655512,0.04754314535357712
0.809,0.0517,1.881,0.03925478752731815,1.768233151239681,0.06604419069989513,0.047942710324615764
0.81,0.1086,-0.119,0.03885180692070131,1.7583587352272776,0.06507395709574171,0.04738963019664577
0.811,0.0778,-3.119,0.03434693270535816,1.7109518799695411,0.05422782635286443,0.044734304601727656
0.812,-0.0075,-0.119,0.03421686619340286,1.5551264010407448,0.05391467257175943,0.036006297221983105
0.8130000000000001,0.003599999999996558,0.881,0.03408102204938797,1.5551264010407384,0.05358760831286812,0.036006297221982744
0.8140000000000001,-0.027400000000001066,0.881,0.03390172999692343,1.5211669918306745,0.053155936983274504,0.03410418226469363
0.8150000000000001,-0.03700000000000094,0.881,0.03396186852104823,1.5162869061105362,0.05330072910491015,0.03383084170144328
0.8160000000000001,-0.04549999999999398,0.881,0.033929796518772315,1.514578824965932,0.053223511159804004,0.03373516963973814
0.8170000000000001,0.008700000000008637,-3.119,0.03393196062996089,1.5177598913599675,0.05322872156785791,0.03391334570666547
0.8180000000000001,0.08649999999999658,-2.119,0.03412532562707386,1.507727149920324,0.05369427552997305,0.03335139754564431
0.8190000000000001,0.05569999999999476,-1.119,0.03443570183997144,1.4976271997372064,0.05444155077532856,0.03278568492701932
0.8200000000000001,0.008500000000000922,1.881,0.03437481641700671,1.4926701557945714,0.054294960387618794,0.032508033823936196
0.8210000000000001,0.01679999999999568,1.881,0.03445695642006862,1.4926701557945707,0.05449272422515183,0.03250803382393616
0.8220000000000001,-0.02210000000000077,2.881,0.03451739948967982,1.501079997404158,0.05463824958372256,0.03297908105020203
0.8230000000000001,-0.029000000000004952,-0.119,0.034548452774123446,1.5094429844197315,0.05471301481954739,0.03344750388381313
0.8240000000000001,-0.0735999999999915,-0.119,0.03469048786935595,1.5194643965648238,0.055054984681374354,0.03400881747488378
0.8250000000000001,0.00290000000000343,-3.119,0.035212046704459425,1.519464396564826,0.05631071237658242,0.03400881747488391
0.8260000000000001,0.033799999999996874,-2.119,0.03566043645131219,1.5342584583554353,0.05739027499823495,0.034837453981394095
0.8270000000000001,0.0056999999999990895,-1.119,0.03620834944387503,1.5424415650656786,0.058709454107124893,0.03529580146248143
0.8280000000000001,-0.0025000000000042857,-1.119,0.03607069947882182,1.5325704070052086,0.058378042075100854,0.03474290381704711
0.8290000000000001,-0.041099999999999234,-0.119,0.036311673287529274,1.564629091510133,0.058958221078978114,0.03653855647197487
0.8300000000000001,-0.0342000000000021,1.881,0.040947933013279716,1.6406783480470128,0.07012068128089857,0.0407981838245805
0.8310000000000001,-0.05309999999999413,1.881,0.04084715321682126,1.7077161789738204,0.06987803946752538,0.04455306837281671
0.8320000000000001,-0.00019999999999606983,-0.119,0.04124919022798826,1.7105381079399515,0.07084600123030697,0.04471112864005171
0.833,0.0352,1.881,0.04146782309638625,1.7061997489514138,0.07137239121634885,0.04446813096388066
0.834,-0.0226,2.881,0.04154238614179961,1.7046819699623705,0.07155191244168872,0.044383117997398816
0.835,-0.0301,1.881,0.041551799374484416,1.7090241818381946,0.07157457614938223,0.04462633147928341
0.836,-0.0368,-2.119,0.04201848727059499,1.7133553891416198,0.0726981941896138,0.044868928579368514
0.837,0.0469,-1.119,0.04200558791780435,1.7105381079399504,0.07266713714780135,0.044711128640051646
0.838,0.1039,1.881,0.0420127296289289,1.7016423506426457,0.0726843318415668,0.044212864582895944
0.839,0.0315,-0.119,0.04200959085207737,1.7016423506426452,0.07267677478614704,0.044212864582895924
0.84,0.0222,1.881,0.04227710105658742,1.7031628384002822,0.07332084396865335,0.0442980292713711
0.841,0.014,-1.119,0.04231470093786038,1.716374265338069,0.07341137107522921,0.045038020141943996
0.842,0.0066,-1.119,0.04254823613387556,1.755412063458615,0.07397364055223637,0.04722458290707945
0.843,0.0137,1.881,0.042398862933197265,1.7482261146456295,0.07361400314914955,0.04682208766239059
0.844,0.0079,-0.119,0.04229971464953125,1.727987447499199,0.07337528943680863,0.045688491042476104
0.845,0.0024,0.881,0.04263320846418745,1.7103311843869575,0.07417822362382377,0.04469953855664564
0.846,-0.0025,0.881,0.0424613326407654,1.7318625630375812,0.07376440792925319,0.04590554179212802
0.847,0.0024,2.881,0.04250450097087481,1.7374234022893718,0.07386834187500549,0.04621701233186804
0.848,0.0069,-0.119,0.04252686587957484,1.7401971582578277,0.0739221886001786,0.046372374360778325
0.849,0.0031,-0.119,0.043010714972936195,1.7474161250874625,0.07508712468397559,0.046776718991684126
0.85,0.0068,-1.119,0.04301211910828874,1.745934176768587,0.07509050534121182,0.0466937129521554
0.851,-0.0159,-1.119,0.04306799504857585,1.74445096950345,0.07522503468093703,0.046610636397250535
0.852,-0.0128,-0.119,0.04332423060496461,1.7571506171015308,0.0758419585311304,0.04732196177688792
0.853,0.0061,2.881,0.04338557486426098,1.7586231136282051,0.07598965363311289,0.047404438408051267
0.854,-0.0104,0.881,0.04341198086711886,1.761363485080012,0.07605322987202716,0.04755793052255675
0.855,-0.035,1.881,0.04343839968656982,1.7598932814139974,0.07611683696872734,0.04747558231779002
0.856,-0.0052,1.881,0.0436773068951845,1.7584218485218637,0.0766920403364985,0.047393165262314706
0.857,-0.0012,-1.119,0.04320829211970863,1.7179463143331148,0.07556282000048405,0.045126072848885146
0.858,0.0025,1.881,0.04314410207681754,1.7164389223982468,0.07540827326636738,0.045041641676126114
0.859,-0.0071,-1.119,0.04266691017098551,1.7090891169615985,0.0742593653162921,0.04462996858818351
0.86,-0.0041,-1.119,0.042351131505494584,1.70018577823202,0.07349908289152188,0.04413127988419027
0.861,-0.0065,-1.119,0.0409328869067105,1.7001857782320198,0.07008445562148612,0.04413127988419026
0.862,0.0005,-2.118999999999556,0.040413183122709265,1.669180210260011,0.06883319422785006,0.042394613788676316
0.863,0.0342,-0.119,0.04049903510967504,1.6782480458912539,0.0690398951989882,0.042902516198807604
0.864,0.0201,-0.119,0.04049879721310885,1.6857323239900488,0.06903932242888701,0.04332172129239946
0.865,0.0071,-0.119,0.04044802647539807,1.6931835201040581,0.06891708459653025,0.043739073416827805
0.866,-0.0049,-1.118999999999778,0.040284647949207344,1.6916540627873333,0.06852372736368945,0.0436534063305519
0.867,-0.0376,-0.119,0.04003099364234244,1.6916540627873333,0.0679130182419163,0.0436534063305519
0.868,-0.0506,-0.119,0.040038442941266156,1.6620473298234335,0.06793095349742116,0.04199509097945888
0.869,-0.0227,-0.119,0.03909110867484034,1.6470444000655726,0.0656501103884467,0.04115475548012611
0.87,0.0317,-0.1189999999995559,0.038694274270380205,1.6517524480407462,0.06469467464744709,0.04141845996384717
0.871,0.024,1.881,0.03870046561600895,1.6517524480407464,0.0647095811999841,0.04141845996384719
0.872,-0.0253,1.881,0.03878961514291015,1.6441134951704277,0.06492422147143559,0.040990591315638966
0.873,-0.0315,1.881,0.0388742930869626,1.6303166012754828,0.06512809576588378,0.04021780760555227
0.874,-0.0609,0.8810000000004441,0.03931918840042828,1.6395993869261474,0.0661992450380005,0.04073774967292502
0.875,-0.066,2.881,0.038715274295695254,1.641177356112275,0.06474523522012522,0.040826133978214565
0.876,-0.0801,1.880999999999556,0.03908383659247288,1.6106430307935993,0.06563260180721667,0.03911586285600161
0.877,-0.0319,-0.119,0.03947233815430508,1.6106430307935993,0.06656797503452953,0.03911586285600161
0.878,0.0643,-3.1190000000004443,0.03984574065962307,1.6382359547482268,0.06746699511784351,0.04066138189152959
0.879,0.1892,-5.119,0.03996058199402283,1.6382359547482268,0.06774349210045492,0.04066138189152959
0.88,0.038,-5.118999999999112,0.0402662048911046,1.642753809559654,0.06847932305628403,0.040914433384814396
0.881,-0.0635,-1.119,0.040801573966160395,1.6380198976207585,0.06976830088478175,0.04064928022358701
0.882,-0.0471,-0.119,0.040715492623763845,1.6303166012754828,0.06956104770755087,0.04021780760555227
0.883,-0.0286,-0.119,0.041001376450181835,1.6348563410243002,0.07024935401986537,0.04047208490540195
0.884,0.0214,-1.119,0.040863743558026744,1.625546470136491,0.06991798309329207,0.03995062575525618
0.885,0.067,-1.119,0.040801947878178035,1.6344233046951864,0.06976920113158905,0.04044782992282667
0.886,-0.0023,0.880999999999778,0.04070388229170485,1.6267029766751075,0.06953309416801558,0.040015403336388346
0.887,0.01,-0.119,0.04058543630042368,1.6159639658515699,0.069247918456998,0.03941389601959182
0.888,-0.0013,-0.11899999999977795,0.04032735376628783,1.61596396585157,0.06862654774299298,0.03941389601959183
0.889,-0.0531,0.881,0.03896395766839209,1.6081550218569276,0.06534397610497902,0.03897650592599619
0.89,-0.0626,2.881000000000222,0.03891274978338778,1.6127571453001153,0.06522068577781931,0.03923427742556586
0.891,-0.0711,3.881,0.03885268976638902,1.607934922779943,0.06507608267334875,0.038964177862694856
0.892,-0.048,0.881,0.03890025454958978,1.603318957819192,0.06519060171043861,0.03870563107997976
0.893,-0.0129,0.881,0.0388953176017039,1.6081550218569276,0.0651787153003678,0.03897650592599619
0.894,0.0577,-1.119000000000444,0.03887800883365185,1.603318957819192,0.06513704195893436,0.03870563107997976
0.895,0.0482,-3.119,0.0388712240616587,1.6033189578191918,0.06512070664731841,0.03870563107997975
0.896,0.0227,-2.118999999999778,0.03887041547094535,1.6017036916656404,0.06511875984921146,0.03861515771833592
0.897,0.015,-1.119,0.03888601908305426,1.6000867949234072,0.06515632778316574,0.038524593025093784
0.898,0.0642,1.880999999999556,0.039177472659819225,1.5859069287575431,0.06585804406822993,0.03773035849175405
0.899,-0.0065,-0.119,0.039407189485512084,1.5875382676610545,0.06641112027107207,0.037821732111052976
0.9,0.0218,-0.11900000000044408,0.03951963728524658,1.5921999832562441,0.06668185447570654,0.03808284145207209
0.901,0.0471,-2.119,0.03955437766120521,1.5891679319365029,0.06676549691314035,0.037913011932045014
0.902,-0.0232,0.8809999999995559,0.039549044728487366,1.5844972958331043,0.06675265711279615,0.037651402940634876
0.903,0.0239,-1.119,0.03958956349464009,1.586130084548395,0.06685021185333379,0.0377428577659599
0.904,0.0322,-0.119,0.03979504222420855,1.5668761235915185,0.06734493136363429,0.03666441594453145
0.905,0.0554,-0.119,0.04073989724088962,1.5810028124136746,0.06961980532328506,0.037455671938985816
0.906,0.0201,-0.119,0.04441199153095129,1.5870923207021177,0.07846089896237753,0.03779675398568265
0.907,0.0009,-0.119,0.044857033792121234,1.6102724028549458,0.07953240203216683,0.03909510345640955
0.908,0.0065,0.881,0.04489077289962077,1.610272402854946,0.07961363377218782,0.03909510345640956
0.909,0.0013,-0.119,0.04489139115870212,1.6008195657793802,0.0796151223195942,0.03856563656612802
0.91,-0.0035,-0.119,0.044894741510120975,1.5961830242140662,0.07962318877112788,0.038305937258436215
0.911,-0.0431,-0.119,0.04493826053344385,1.5931585533158084,0.07972796706108648,0.038136532328630866
0.912,-0.0275,1.881,0.04503691665502062,1.598025365826386,0.0799654958226138,0.0384091294404778
0.913,-0.0036,1.881,0.04508658247438795,1.5870923207021241,0.08008507340559616,0.03779675398568301
0.914,0.0181,1.881,0.045052784663130986,1.588722442416778,0.08000370032786014,0.037888059428497545
0.915,0.0062,-0.119,0.04506089732273565,1.5982468295769867,0.08002323271934068,0.038421533941095265
0.916,-0.0047,0.881,0.04514682848217837,1.607714793571001,0.0802301243095716,0.03895184811165958
0.917,0.0116,0.881,0.04527952405672868,1.604712057249278,0.0805496079359228,0.03878366056649309
0.918,0.0029,-0.119,0.045158820720274155,1.604712057249278,0.08025899734266179,0.03878366056649309
0.919,0.0054,1.881,0.044933659114069,1.6063242982935568,0.07971688848402601,0.03887396448745087
0.92,-0.0112,1.881,0.0449137116807801,1.6079349227799506,0.07966886217760899,0.03896417786269527
0.921,-0.0314,0.881,0.044857551294536835,1.6095439355613896,0.07953364799345033,0.03905430096404586
0.922,-0.0339,1.881,0.04479564071132686,1.601703691665649,0.07938458938542615,0.03861515771833641
0.923,-0.0658,1.881,0.044733419857118116,1.5921999832562526,0.07923478375547469,0.03808284145207256
0.924,-0.0263,0.881,0.044639272332518555,1.587315309842369,0.07900811008777334,0.0378092439255506
0.925,0.0535,0.881,0.044232764666360454,1.6012616897430392,0.07802938458193881,0.03859040056007885
0.926,0.0647,-2.119,0.043741895165677204,1.5791406111631023,0.07684754586067812,0.0373513673902734
0.927,0.0546,-3.119,0.04300975041217431,1.5695002837242287,0.07508480236560824,0.03681139889726405
0.928,-0.0305,-1.119,0.042894402056656206,1.5695002837242287,0.07480708465693968,0.03681139889726405
0.929,-0.0644,-1.119,0.042408009365825665,1.5457088870954316,0.07363602449744396,0.03547880883061997
0.93,-0.0743,-1.119,0.03803202753706296,1.4647370808084803,0.0631002206604438,0.03094346244386706
0.931,-0.046,0.881,0.03800311947440202,1.3679691293778653,0.06303062035371915,0.02552335143239953
0.932,0.0482,-1.119,0.03747994053777418,1.3679691293778653,0.06177099203174328,0.02552335143239953
0.933,0.0109,-0.119,0.03718715238792944,1.3679691293778653,0.06106606257059087,0.02552335143239953
0.934,-0.0004,-3.119,0.03709955791116911,1.3698600306374054,0.06085516630537205,0.02562926350955846
0.935,0.0098,0.881,0.037038925304415764,1.3644388839904087,0.060709184608948995,0.025325617351902273
0.936,0.0194,-1.119,0.03644214523397025,1.358996112118085,0.059272351001753036,0.025020759934524368
0.937,0.011,-1.119,0.03652332320444092,1.3589961121180862,0.059467798607852125,0.02502075993452444
0.9380000000000001,0.0034000000000023313,0.881,0.03655086284383319,1.3608994809901107,0.059534104239304136,0.025127370340445265
0.9390000000000001,0.024399999999997903,-1.119,0.03660283695711262,1.3628001915050565,0.059659239370925314,0.025233831847993625
0.9400000000000001,0.0054999999999967245,-1.119,0.0362178311675994,1.3663346708446147,0.05873228271681883,0.025431803078188365
0.9410000000000001,-0.02399999999999706,-0.119,0.03584896217306512,1.3497012514423223,0.05784417771089301,0.024500141527769314
0.9420000000000001,0.002500000000000544,1.881,0.036366463089996755,1.3497012514423223,0.0590901353861334,0.024500141527769314
0.9430000000000001,0.007399999999999545,-1.119,0.03744808349584968,1.3589961121180771,0.061694291634511844,0.02502075993452393
0.9440000000000001,0.003299999999999578,-0.119,0.037499810952581286,1.3682278309401281,0.061818832905119726,0.025537841675972683
0.9450000000000001,-0.0005000000000012102,-0.119,0.03814596401442115,1.3808947942374314,0.06337453906995695,0.026247336361295198
0.9460000000000001,-0.011400000000004053,-0.119,0.041357248162668094,1.3808947942374314,0.07110616620524701,0.026247336361295198
0.9470000000000001,-0.04789999999999948,1.881,0.041506536741159006,1.40060467946704,0.07146559986828158,0.02735131515167356
0.9480000000000001,-0.043199999999998545,0.881,0.041486395820268605,1.4322498172214275,0.07141710771271478,0.029123804463126506
0.9490000000000001,-0.030099999999998666,-1.119,0.04133181551987279,1.4268176635819982,0.07104493347027847,0.028819541788121288
0.9500000000000001,-0.018099999999999603,0.881,0.04151588277008205,1.42863067645794,0.07148810177328056,0.028921091225797148
0.9510000000000001,-0.014499999999995971,-0.119,0.04145857678389168,1.4304413914326355,0.07135012939295231,0.029022511954745964
0.9520000000000001,0.021799999999993026,0.881,0.04121162865983669,1.4182170281486584,0.07075556636806558,0.02833780792759528
0.9530000000000001,-0.040999999999985715,-1.119,0.04121676392146768,1.4182170281486608,0.07076793024691905,0.028337807927595417
0.9540000000000001,0.08770000000001026,-2.119,0.04114891500079295,1.423681998464564,0.07060457423979795,0.028643908711467114
0.9550000000000001,0.18009999999998702,-2.119,0.04107573849859538,1.4343027441813658,0.07042839131610208,0.029238791830915094
0.9560000000000001,0.06309999999999492,-3.119,0.040737657002140264,1.4361063075459544,0.0696144116272107,0.02933981198797913
0.9570000000000001,0.017299999999998456,-1.119,0.04076309371038788,1.4361063075459544,0.06967565415033874,0.02933981198797913
0.9580000000000001,0.0033999999999986233,-0.119,0.04076742805433768,1.4412579095936289,0.06968608970501063,0.029628360568087493
0.9590000000000001,-0.009000000000001254,-0.119,0.04077920434170196,1.4412579095936264,0.06971444280574396,0.029628360568087358
0.96,-0.0203,0.881,0.040780784967176936,1.4412579095936262,0.06971824838826139,0.029628360568087344
0.961,-0.0306,1.881,0.04078839180407141,1.4430527802451538,0.06973656293902424,0.029728893833891573
0.962,-0.0213,-1.119,0.04058249901470309,1.4448454212061395,0.06924084652037295,0.029829302211547608
0.963,-0.0297,0.881,0.040567638354817935,1.4448454212061395,0.06920506735044832,0.029829302211547608
0.964,-0.0221,1.881,0.04079517537622349,1.4448454212061397,0.06975289536185075,0.02982930221154762
0.965,-0.0289,1.881,0.04077664768448174,1.436106307545952,0.06970828728682164,0.02933981198797899
0.966,-0.0351,0.881,0.0407969166298426,1.4412579095936264,0.06975708767966177,0.029628360568087358
0.967,-0.0178,-0.119,0.04087171383200507,1.456603401116781,0.06993717267095688,0.030487883440602333
0.968,-0.0229,0.881,0.04100309882534451,1.4902971548374706,0.07025350088508506,0.03237511865494011
0.969,-0.0183,0.881,0.04102667531553264,1.4952620656960378,0.07031026466645052,0.03265321039520776
0.97,-0.0227,0.881,0.041115910945728085,1.4850773434051923,0.07052511224393146,0.03208274956989069
0.971,0.0051,0.881,0.041104741318877605,1.479839120335101,0.0704982197653897,0.031789349222740806
0.972,0.0086,-0.119,0.041074929083368815,1.4798391203351011,0.07042644253286132,0.03178934922274082
0.973,0.0118,-1.119,0.04093734427454189,1.4713078731071505,0.07009518737379647,0.031311501894589804
0.974,0.0088,-2.119,0.040416116075099304,1.462726868851464,0.06884025573136032,0.030830867604330545
0.975,-0.0046,0.881,0.04053985769895067,1.4627268688514574,0.06913818143726722,0.030830867604330174
0.976,-0.0067,-0.119,0.04136046349493096,1.4778494507353424,0.0711139075787988,0.031677904989940595
0.977,-0.0044,-0.119,0.040942739112404467,1.4660204513054487,0.07010817621965477,0.031015345856294143
0.978,0.0015,1.881,0.04128887575329977,1.429946452657255,0.07094154982401964,0.02899478972784354
0.979,0.0253,1.881,0.04132667487606954,1.4353667654255784,0.0710325566330734,0.029298389178765604
0.98,0.035,-0.119,0.041098568041777354,1.4320026817371694,0.07048335671542633,0.029109962052082883
0.981,0.008,-1.119,0.04058589600726682,1.426817663581974,0.06924902526715201,0.02881954178811993
0.982,0.0043,-0.119,0.04088089251262861,1.4250023440340174,0.06995927166092443,0.02871786315045375
0.983,0.0125,0.881,0.04078043913128538,1.4371689935060963,0.06971741573875419,0.029399334544663893
0.984,-0.0039,-0.119,0.04076724919616499,1.4371689935060963,0.06968565907830881,0.029399334544663893
0.985,0.0109,-0.119,0.040782804809257514,1.4056346058309335,0.06972311144774733,0.027633048503147455
0.986,0.0243,0.881,0.04078256245607335,1.4056346058309332,0.06972252794769922,0.02763304850314744
0.987,0.0173,0.881,0.04073746574715369,1.4111483050801992,0.06961395115340156,0.027941878664094835
0.988,0.0194,0.8809999999991118,0.040722772361491535,1.4077263470379733,0.06957857472015856,0.027750209912289676
0.989,0.0012,-1.119,0.04072229589606915,1.416640544652014,0.06957742756132157,0.028249506837893228
0.99,-0.0354,1.881,0.040850244285829895,1.416640544652014,0.06988548165947134,0.028249506837893228
0.991,-0.0938,3.881,0.04099320071356557,1.413231885419414,0.07022966976143317,0.028058582971387653
0.992,-0.1015,1.881,0.04094505945977841,1.4239305780761466,0.07011376278873165,0.02865783201014242
0.993,-0.0236,1.881,0.041187124284687,1.4150623048379145,0.07069656857058194,0.028161107374344897
0.994,0.0906,-2.119,0.04201758758841674,1.420539411770904,0.07269602807574116,0.028467887947454036
0.995,0.1668,-3.119,0.04270991451576593,1.4311834786667235,0.07436290444384677,0.029064077319409427
0.996,0.0418,-3.119,0.043763836499632766,1.4573321664705747,0.07690037276890666,0.03052870262774515
0.997,-0.008,-3.119,0.04424386390772086,1.4677094305903933,0.07805610759731883,0.031109947995588503
0.998,-0.0536,-1.119,0.04399194371360831,1.4591072640614526,0.07744957360069589,0.030628128376213593
0.999,-0.0397,0.881,0.0447749035995071,1.4573321664705747,0.0793346618146938,0.03052870262774515
1.0,-0.0025,0.8809999999991118,0.0466706929028102,1.4522375866354986,0.08389904644824064,0.03024334794311389
1.0010000000000001,-0.013900000000002265,-1.119,0.04687569344677902,1.4608802047546459,0.08439261465813071,0.030727433313765627
1.002,-0.0241,0.881,0.046872359669888834,1.4712324431775332,0.08438458811215183,0.03130727695662151
1.0030000000000001,0.00419999999999436,1.881,0.04687911952878456,1.4712324431775332,0.0844008634419128,0.03130727695662151
1.004,-0.0212,1.880999999999556,0.046703297803244045,1.4712324431775334,0.08397754742208792,0.03130727695662152
1.0050000000000001,0.017700000000001555,0.881,0.04587113887105221,1.456041138044997,0.08197400544822656,0.03045639028381164
1.006,0.0247,-0.119,0.042184133397304396,1.4406896575947943,0.0730970109959127,0.029596531962948733
1.0070000000000001,0.005900000000001288,-1.119,0.04178396535815461,1.4039649508879632,0.07213354905130238,0.02753952874781572
1.008,0.0117,0.8809999999995559,0.04175300977197539,1.398675998195765,0.07205901903806056,0.02724328696215935
1.0090000000000001,-0.0040000000000010435,-0.119,0.04175161873185673,1.398675998195765,0.07205566990947798,0.02724328696215935
1.01,-0.0087,0.881,0.04177533257176272,1.398675998195765,0.07211276437998727,0.02724328696215935
1.0110000000000001,-0.013200000000002664,0.881,0.04172746134522938,1.398675998195765,0.07199750753662547,0.02724328696215935
1.012,-0.0252,1.881,0.04162900098776126,1.3877826266079145,0.07176045010526536,0.026633133678738322
1.0130000000000001,-0.043299999999993406,1.881,0.041599626073629346,1.3843029104675464,0.07168972578667053,0.026438229813456914
1.014,-0.0136,0.881,0.04162491628835394,1.3824317644360755,0.07175061560563244,0.026333424254805494
1.0150000000000001,0.014200000000002398,-1.119,0.04159093854639303,1.3824317644360755,0.07166880931892178,0.026333424254805494
1.016,0.025,-2.1190000000004443,0.04161099671882529,1.3768030685252721,0.07171710224570817,0.026018152966787965
1.0170000000000001,0.03469999999999543,-3.119,0.041467127146414665,1.3768030685252721,0.07137071561698215,0.026018152966787965
1.018,0.0141,-1.119,0.041439179737058254,1.3768030685252721,0.07130342822086087,0.026018152966787965
1.0190000000000001,0.027499999999995094,-0.119,0.04149082075787659,1.3803016917639592,0.0714277613846113,0.026214115845619612
1.02,0.0054,-1.1189999999991118,0.04149349107273808,1.3837914695040907,0.07143419055060525,0.026409583275457924
1.0210000000000001,-0.027199999999993226,0.881,0.04148543945225079,1.3819196309717914,0.07141480511955377,0.02630473892884716
1.022,0.0033,0.881,0.04148573912217996,1.3854053331971314,0.0714155266178856,0.026499978083287763
1.0230000000000001,-0.008600000000007239,0.881,0.04148552980121018,1.3854053331971317,0.07141502264763096,0.026499978083287776
1.024,-0.0412,0.8809999999986677,0.04147073197933086,1.3800452535544383,0.07137939476921733,0.026199752375662494
1.025,-0.0981,-2.119,0.04146988956333977,1.3619393639484434,0.07137736653190313,0.025185615668467297
1.026,-0.0278,-1.119,0.041470539722924915,1.3600374503906913,0.07137893188434744,0.025079086776775065
1.027,0.0763,-0.119,0.04146796655026278,1.3781683268930016,0.07137273660213013,0.026094623035679883
1.028,0.035,1.880999999999556,0.04147249312214691,1.3781683268930016,0.07138363497312239,0.026094623035679883
1.029,0.0473,0.881,0.04150025972078123,1.3725221467902875,0.07145048704149916,0.02577837243313
1.03,0.0361,-0.119,0.04148205152911152,1.361419521755018,0.07140664820871478,0.025156498565592277
1.031,0.067,-0.119,0.04146906846886895,1.3614195217550182,0.07137538962920685,0.025156498565592288
1.032,0.0388,-2.118999999999112,0.041508180782699904,1.361419521755018,0.07146955813407256,0.025156498565592277
1.033,-0.0039,-0.119,0.04163259561593694,1.3633195072405957,0.07176910468812422,0.02526291946321138
1.034,-0.0114,-1.119,0.041751813179584416,1.3633195072405957,0.07205613807026923,0.02526291946321138
1.035,0.0097,0.881,0.04176077143058519,1.3633195072405957,0.07207770634430692,0.02526291946321138
1.036,0.0036,1.881,0.04186968353909237,1.3633195072405957,0.0723399278652382,0.02526291946321138
1.037,-0.0022,0.881,0.04207915870884477,1.361419521755018,0.07284426937843357,0.025156498565592277
1.038,0.0028,1.881,0.04205429455365521,1.3776546085265444,0.07278440535890586,0.02606584893708977
1.039,-0.0407,-1.119,0.042096650803144745,1.3811510747127855,0.07288638410410073,0.026261690996336604
1.04,-0.0348,0.881,0.04240504418779872,1.3867621227166247,0.07362888540609115,0.026575973799908073
1.041,0.0131,1.881,0.04274252833558132,1.3811510747127855,0.07444142689238431,0.026261690996336604
1.042,-0.0448,0.881,0.04170599059288017,1.3950493089219655,0.07194581362110294,0.027040150921998508
1.043,-0.0836,1.881,0.042317025522050446,1.47983912033508,0.07341696784504853,0.03178934922273964
1.044,-0.0768,1.881,0.04280412206073847,1.4863431513771608,0.07458972261920394,0.03215364928023735
1.045,-0.0956,2.881,0.0418715643823217,1.474582289413808,0.07234445626505516,0.03149490662329866
1.046,-0.0661,1.881,0.038546129379039534,1.4387229830909436,0.06433799457524936,0.029486375718275757
1.047,-0.0078,0.881,0.03836762319198044,1.4019467592941393,0.06390821532932474,0.027426486957437633
1.048,0.0937,-0.119,0.03836656863241682,1.366075610763787,0.06390567632593498,0.025417292753478926
1.049,0.1349,-0.119,0.03808636954206447,1.3717483253661693,0.0632310568309786,0.025735029591210073
1.05,0.0472,1.881,0.03791606607508687,1.371748325366169,0.06282102681004856,0.02573502959121006
1.051,0.0131,1.881,0.03792172669845767,1.3717483253661742,0.0628346555726357,0.025735029591210344
1.052,0.0232,0.881,0.03794153833883612,1.3682278309401035,0.062882354938146,0.025537841675971302
1.053,-0.0051,-1.119,0.037955159659191585,1.3682278309401035,0.06291515022041222,0.025537841675971302
1.054,0.0032,0.881,0.03796375264881805,1.358996112118052,0.06293583907530707,0.025020759934522525
1.055,-0.0044,0.881,0.037936798787763085,1.358996112118058,0.06287094378921189,0.025020759934522862
1.056,-0.0254,-0.119,0.03815953354620025,1.358996112118058,0.06340720966379827,0.025020759934522862
1.057,0.0066,-0.119,0.03828675941019882,1.3701183751655017,0.06371352417755412,0.025643733755138596
1.058,0.0008,-0.119,0.03854169897022928,1.364698254770348,0.06432732773064873,0.025340145079312204
1.059,0.0165,-0.119,0.0387344350480548,1.3628001915050356,0.06479136747938248,0.025233831847992456
1.06,0.0025,0.881,0.0387865393209703,1.3646982547703503,0.06491681598899443,0.02534014507931234
1.061,-0.0105,-0.119,0.03885230858992965,1.373891659185803,0.06507516493635615,0.025855080776187127
1.062,-0.0144,0.881,0.03897860501395486,1.3992613124053976,0.06537924169007987,0.02727607124606633
1.063,0.0328,-0.119,0.03890092761297401,1.4153123983776708,0.06519222220706396,0.02817511547029701
1.064,0.014,1.881,0.03871412677513581,1.4063897825263365,0.06474247239980596,0.02767534702721296
1.065,0.0314,-1.119,0.03869588352788031,1.4063897825263363,0.06469854916567129,0.027675347027212947
1.066,0.0051,0.881,0.03905196778455741,1.4029562179942154,0.06555587308167456,0.02748302817935063
1.067,-0.0091,-0.119,0.03965683234240214,1.3960637550043793,0.06701217125172608,0.02709697149431137
1.068,-0.0309,-1.119,0.039556362487228755,1.3856607794403903,0.06677027566644714,0.026514285991799377
1.069,-0.0189,-1.119,0.039748338018697496,1.382175721423838,0.06723248429075268,0.026319082920412018
1.07,0.0209,-0.119,0.04010704703015904,1.3931129365947559,0.0680961276803304,0.02693169194546912
1.071,-0.0056,-1.119,0.04019923633432994,1.398675998195766,0.06831808665151029,0.0272432869621594
1.072,0.0085,-0.119,0.041115619011251096,1.396824106078443,0.07052440936981014,0.027139559842707574
1.073,0.0043,-0.119,0.04187132072891625,1.396824106078443,0.07234386963453782,0.027139559842707574
1.074,0.0084,-0.119,0.04242867094241934,1.3949697554838825,0.07368577020628654,0.027035695020438337
1.075,0.0049,-0.119,0.04242577778685411,1.3931129365947703,0.07367880451933947,0.02693169194546993
1.076,-0.0048,-2.119,0.04130779684620846,1.3805580823401755,0.07098710506877802,0.02622847664756738
1.077,-0.0076,-0.119,0.04122248885846357,1.3805580823401755,0.07078171385378218,0.02622847664756738
1.078,-0.0154,-1.119,0.04171739019467492,1.3859161786008938,0.07197325979730505,0.02652859126313869
1.079,-0.0224,-0.119,0.04247462981649243,1.3768030685252852,0.07379642278683905,0.0260181529667887
1.08,-0.0337,-0.119,0.042542056047599835,1.3768030685252803,0.07395876110820651,0.026018152966788426
1.081,-0.0199,-1.119,0.04244626759418478,1.3821757214238533,0.073728136669047,0.026319082920412875
1.082,-0.0326,0.881,0.0419319565382758,1.3821757214238533,0.07248985904169461,0.026319082920412875
1.083,-0.0341,0.881,0.041806310673404914,1.3821757214238677,0.07218734860243528,0.026319082920413683
1.084,0.0093,-0.119,0.041804871337323454,1.3875275710004826,0.07218388319439585,0.02661884765029667
1.085,0.032,-0.119,0.04194762202181453,1.382175721423864,0.07252757593998953,0.02631908292041347
1.086,0.0484,-0.119,0.042294784209514664,1.3821757214238637,0.07336341869536646,0.02631908292041346
1.087,0.0096,-2.119,0.04257795787639766,1.3711512665200076,0.0740451999099212,0.025701587473455877
1.088,-0.0273,-1.119,0.04292314793066816,1.3711512665200076,0.07487629447123151,0.025701587473455877
1.089,-0.0512,1.881,0.04293589751972712,1.3619393639484625,0.07490699093538149,0.02518561566846837
1.09,-0.0643,-1.119,0.04324632334392279,1.3676292351706942,0.07565438562705218,0.025504313472953392
1.091,-0.0046,-4.119,0.04377257640663406,1.3676292351706942,0.07692141534845169,0.025504313472953392
1.092,0.124,-5.119,0.044257064496101735,1.35648656302944,0.07808788990701668,0.024880196509877155
1.093,0.0684,-2.119,0.044095011218059636,1.3600374503907111,0.07769772339915502,0.02507908677677617
1.094,0.0182,-1.119,0.043297884712299256,1.3488320641396054,0.07577852701612539,0.02445145710693747
1.095,0.0334,-0.119,0.0426628459744347,1.337532806340447,0.07424958018022665,0.02381856955777258
1.096,0.0195,-0.119,0.04159672846919332,1.3089931681317957,0.07168274938842899,0.022220023706267956
1.097,0.0072,0.881,0.04107406325492052,1.2973469794166705,0.07042435792669871,0.02156770406155852
1.098,-0.0269,1.881,0.04106694312509927,1.307014211708747,0.07040721519301604,0.02210917953377898
1.099,-0.0166,0.881,0.040003920047663205,1.3126725353269026,0.06784783467994902,0.022426110311953008
1.1,-0.0071,0.881,0.03766761960292097,1.3126725353269035,0.06222285629719824,0.02242611031195306
1.101,0.0183,0.881,0.03739293004406327,1.306743391481405,0.06156150178946823,0.022094010506485916
1.102,0.0259,0.881,0.037382264019064276,1.3007872221693635,0.0615358218046083,0.021760396966082413
1.103,-0.0093,0.881,0.03733212822307526,1.3044897347794393,0.061415112685507256,0.021967779979479764
1.104,-0.0156,1.881,0.0373313405455293,1.298795762524659,0.06141321623885008,0.021648852470311043
1.105,-0.045,0.881,0.037341103808229095,1.2968012446573807,0.06143672269400444,0.021537136679130375
1.106,-0.04,1.881,0.037355659541275836,1.3005151052297603,0.06147176770883431,0.02174515530808568
1.107,-0.0448,-0.119,0.03727316277418683,1.3062015825758657,0.06127314491074051,0.022063663016727072
1.108,-0.0405,-0.119,0.0372817734481258,1.3062015825758657,0.061293876343153926,0.022063663016727072
1.109,-0.0206,0.881,0.03731497873262293,1.3062015825758657,0.06137382282773805,0.022063663016727072
1.11,-0.0243,1.881,0.03731738978100761,1.308181768306979,0.061379627772506225,0.022174576044514515
1.111,-0.0341,2.881,0.03734975149577713,1.3062015825758657,0.061457543241990015,0.022063663016727072
1.112,0.0047,2.881,0.037485947333023,1.3062015825758657,0.06178545425277321,0.022063663016727072
1.113,0.0202,0.881,0.03758988405578022,1.304218390345964,0.062035696818963294,0.021952581590653338
1.114,0.0062,0.881,0.03752648705218182,1.304218390345964,0.06188305944067802,0.021952581590653338
1.115,0.0544,0.881,0.03752892199925785,1.292529179748937,0.06188892192497307,0.021297852228962372
1.116,0.0733,1.881,0.037400299511407074,1.2887923066641178,0.06157924483899535,0.021088544636355035
1.117,0.0203,2.8809999999991116,0.03747463837529847,1.2867822834922538,0.06175822631516995,0.020975960370944218
1.118,0.0414,0.881,0.03756642437437465,1.2887923066641178,0.06197921427149406,0.021088544636355035
1.119,0.0601,1.881,0.037447872164086196,1.2948036544348542,0.061693782822982976,0.02142524880094915
1.12,-0.0279,1.881,0.037401108660009875,1.2910733645893289,0.06158119298030116,0.0212163099449665
1.121,-0.0906,-0.1189999999995559,0.03734443111598555,1.293076717507159,0.0614447336646161,0.0213285205999329
1.122,-0.0794,0.881,0.03739306813935826,1.3163416181931662,0.06156183427369595,0.022631620877707637
1.123,-0.0692,-0.119,0.037530820792806924,1.3447253063762277,0.061893493542759165,0.024221431745796346
1.124,-0.0409,-0.119,0.037548242512273636,1.3559646303730775,0.0619354388309224,0.02485096231719071
1.125,-0.0155,-1.119,0.0378149005708415,1.3559646303730775,0.06257745634986184,0.02485096231719071
1.1260000000000001,0.007700000000020406,-1.119,0.03910985787122121,1.374149245754856,0.06569525176766174,0.02586950856739992
1.127,0.0996,-1.119,0.0398977027667816,1.3741492457548559,0.06759210134300676,0.025869508567399908
1.1280000000000001,0.08709999999999242,0.881,0.03989332960827183,1.3920963401986524,0.06758157233671515,0.026874750931018796
1.129,0.053,0.8809999999991118,0.03989527427029227,1.3920963401986524,0.06758625438942431,0.026874750931018796
1.1300000000000001,0.022199999999997912,-1.119,0.04040206646087305,1.4029562179942179,0.06880642927017615,0.027483028179350767
1.131,0.0128,-0.119,0.04242003474579079,1.4048000264150473,0.07366497732433762,0.02758630251942957
1.1320000000000001,0.021399999999994892,-2.119,0.043735203193811543,1.4103169884947686,0.07683143397867807,0.02789531543616561
1.133,-0.0016,-1.118999999999556,0.04443827471056695,1.4192149141846107,0.07852417948672136,0.028393700948080816
1.1340000000000001,-0.036500000000004126,-0.119,0.044359760822029096,1.4173898574622839,0.07833514603994654,0.02829147691738684
1.135,-0.0551,0.881,0.04525637474160645,1.4226092377845276,0.08049387263979212,0.028583821855348194
1.1360000000000001,-0.04930000000000115,-0.119,0.049869560326458,1.484287433417652,0.09160077853830571,0.032038505584581094
1.137,-0.0545,0.881,0.049651826886238905,1.5190715227336482,0.0910765540545966,0.03398681205111496
1.1380000000000001,-0.01099999999998299,0.881,0.05009460458354761,1.5026417471887576,0.09214260486211609,0.033066556883672944
1.139,0.0656,1.881,0.050203374972724035,1.4994286077064953,0.09240448517343379,0.03288658435731768
1.1400000000000001,0.07589999999999791,0.881,0.04999934242822613,1.4994286077064953,0.09191324756109624,0.03288658435731768
1.141,0.0665,-0.11900000000044408,0.051142901049882825,1.4944775388796305,0.09466652894693138,0.03260926792899311
1.1420000000000001,0.023599999999994847,-1.119,0.05224287442740854,1.438399808132966,0.09731487260671534,0.029468274227829095
1.143,0.0004,-0.119,0.05079847921390537,1.3397308800920977,0.0938372839813361,0.023941686804435407
1.1440000000000001,-0.020599999999992916,-0.119,0.05033983915272754,1.3266709447634049,0.09273304225789057,0.023210181195009984
1.145,0.0113,-0.119,0.050310221003650714,1.3230305079224673,0.09266173231628216,0.02300627513400108
1.1460000000000001,0.00539999999999889,-0.119,0.05023303132816476,1.3344525672004006,0.09247588710234265,0.02364604096918414
1.147,0.0004,1.881,0.05020034902284307,1.3363908929332082,0.09239719976512684,0.02375460935874785
1.1480000000000001,-0.013799999999999046,-1.119,0.050226423003934005,1.345777687183844,0.09245997661402006,0.02428037709618654
