time_sec,bts_raw,diy_raw,bts_rms,diy_rms,bts_norm_rms,diy_norm_rms
0.0,0.0017,0.672,0.009356132265492593,1.074071606331997,0.021146812223553465,0.020656237432405303
0.001,0.0111,-0.328,0.009506372863927207,1.080937027083631,0.021691394565146755,0.021123347996720606
0.002,0.0022,-1.328,0.009516856401317412,1.0809370270836307,0.021729394609073787,0.02112334799672059
0.003,-0.0111,0.672,0.009836341767751165,1.0949131356124937,0.02288744436905929,0.0220742566413649
0.004,0.0152,0.672,0.009847728114012426,1.0992837925305654,0.02292871685581558,0.022371628076166352
0.005,0.0112,-0.328,0.009885507009201811,1.0969138058718126,0.023065655335956132,0.022210378555468546
0.006,0.0139,-0.328,0.009888103246983774,1.0969138058718129,0.023075066009671262,0.022210378555468563
0.007,0.022,-1.328,0.009903198064020952,1.0969138058718104,0.023129780719900576,0.022210378555468396
0.008,0.0135,-0.328,0.010260316397875953,1.0925336679153537,0.024424240010551566,0.02191236204830349
0.009000000000000001,0.0011999999999999958,0.672,0.010266862765726477,1.0949131356124893,0.02444796885861337,0.022074256641364597
0.01,-0.0012,0.672,0.010294701517287255,1.0881358984726919,0.024548876953162792,0.02161314592733939
0.011,0.0082,0.672,0.010299471515793093,1.0949131356124906,0.024566166933253204,0.022074256641364687
0.012,0.0203,-0.328,0.010364206826001665,1.1149977118865162,0.024800815271881164,0.023440774164003204
0.013000000000000001,0.014999999999999975,-0.328,0.010397115568645377,1.110688892322491,0.024920100740087037,0.02314761002870885
0.014,0.001,-0.328,0.010417628049455115,1.1106888923224905,0.024994453045307095,0.023147610028708823
0.015,0.0096,-0.328,0.010855890940841158,1.1130295479171968,0.026583039846153258,0.02330686391791158
0.016,-0.0087,-1.328,0.010856139235597166,1.0929088029480576,0.026583939848822583,0.021937885543972576
0.017,-0.0206,-1.328,0.010866457046258307,1.1067337392425303,0.026621339177289753,0.022878508708634022
0.018000000000000002,-0.0005999999999999184,0.672,0.010866949209430037,1.1180628464384066,0.026623123138318258,0.02364932026511363
0.019,0.0229,-0.328,0.010901446705402626,1.097660953836727,0.02674816741617391,0.022261213124848016
0.02,0.0127,-0.328,0.010916160012125947,1.090524961911995,0.026801499252651212,0.02177569339699773
0.021,-0.0025,0.672,0.01094282251380957,1.0972874434463196,0.026898143753211565,0.022235800166844046
0.022,-0.0106,-1.328,0.010950748864938072,1.0949131356124837,0.026926874674832124,0.02207425664136422
0.023,-0.0128,-0.328,0.011056642215297523,1.101648680627614,0.027310709998298342,0.022532530700130372
0.024,-0.0193,-0.328,0.011057613748073592,1.0945386875318606,0.027314231547065047,0.022048779884647592
0.025,0.0103,0.672,0.011145458637388172,1.0945386875318606,0.027632645983764442,0.022048779884647592
0.026000000000000002,0.005599999999999985,0.672,0.011250880683110134,1.0945386875318606,0.028014772952859326,0.022048779884647592
0.027,0.0014,1.672,0.011303228080386335,1.0969138058718042,0.028204518391056543,0.022210378555467973
0.028,0.0404,0.672,0.011304607218422087,1.090149006567618,0.02820951740083629,0.021750114088835516
0.029,0.0135,1.672,0.011343078217504072,1.0761110251753616,0.028348964574115617,0.020794995728693637
0.03,0.0177,0.672,0.011394701818329033,1.0528175798875912,0.02853608644205046,0.019210152677285812
0.031,0.0129,-0.328,0.011396021462551456,1.0761110251753616,0.028540869802528294,0.020794995728693637
0.032,0.0085,1.672,0.011443689850302748,1.0761110251753616,0.028713655071570417,0.020794995728693637
0.033,-0.0025,2.672,0.011454322501049122,1.0761110251753616,0.028752195611884652,0.020794995728693637
0.034,-0.0188,-1.328,0.011455392626017682,1.0692146171429597,0.028756074531213042,0.020325776846952533
0.035,-0.0159,0.672,0.011475169679697972,1.062273437736426,0.028827761108045434,0.019853511803498626
0.036000000000000004,0.0026999999999999837,-1.328,0.011488659485935259,1.050342752396648,0.028876658079602286,0.01904176997975014
0.037,0.0003,-1.328,0.011488914690796699,1.062273437736426,0.028877583129571987,0.019853511803498626
0.038,0.0112,0.672,0.01149434942970797,1.0667778299645938,0.028897282617414057,0.02015998234211728
0.039,0.0166,0.672,0.0116145403119577,1.0667778299645938,0.029332942703806802,0.02015998234211728
0.04,0.0073,-1.328,0.0118840525439717,1.0740716063319815,0.030309853099049225,0.020656237432404245
0.041,-0.004,0.672,0.012327475801572596,1.0740716063319815,0.03191714485944723,0.020656237432404245
0.042,-0.0026,0.672,0.012430435098916193,1.0740716063319815,0.03229034501852792,0.020656237432404245
0.043000000000000003,-0.01739999999999993,0.672,0.012430488912437377,1.0740716063319815,0.03229054007827663,0.020656237432404245
0.044,-0.0076,-1.328,0.012774223867440933,1.0598206912077939,0.03353648816843128,0.019686631453909115
0.045,0.0049,-0.328,0.012878232298828278,1.0453755208037776,0.033913491160302456,0.018703808704488418
0.046,0.0159,-0.328,0.012937163530596677,1.0453755208037778,0.03412710125320541,0.01870380870448843
0.047,-0.0009,1.672,0.013285755106922738,1.0478620799055416,0.03539065330819778,0.018872989599184768
0.048,0.0054,1.672,0.01330598356081216,1.04077850550065,0.03546397609112525,0.01839103626269758
0.049,0.0189,-1.328,0.013306585594272623,1.055286603500946,0.03546615830282456,0.019378140489695928
0.05,0.0168,-1.328,0.013386068721473373,1.062273437736426,0.035754263568506,0.019853511803498626
0.051000000000000004,-0.004500000000000141,-1.328,0.0135543985517304,1.059820691207794,0.03636441458012665,0.01968663145390913
0.052000000000000005,-0.024899999999999794,1.6719999999996669,0.013545300798004796,1.0667778299645938,0.036331437634622245,0.02015998234211728
0.053,0.0047,-1.327999999999889,0.013548605120197075,1.082963517158251,0.036343414926616545,0.021261226643431348
0.054,0.0086,-0.328,0.013513603211165454,1.0873822057948956,0.03621654228513828,0.021561866067767502
0.055,-0.0023,-0.32800000000011104,0.013440565627319954,1.0989108337292754,0.035951800405451144,0.022346252647268503
0.056,-0.0055,-1.327999999999778,0.013696200842557293,1.1126611966380278,0.0368784102935783,0.023281801976320026
0.057,0.0268,0.672,0.014148727376195283,1.1262436932211273,0.038518699016395944,0.024205929990212306
0.058,-0.0037,0.671999999999889,0.014021984897691082,1.133154770340292,0.038059291130363104,0.02467614692955886
0.059000000000000004,-0.007599999999999925,-0.32800000000011104,0.014129380032653575,1.133154770340292,0.03844857002490275,0.02467614692955886
0.06,0.0031,-1.328000000000111,0.014129048474013204,1.1308557708818403,0.038447368212725284,0.024519727247029954
0.061,-0.0116,-2.327999999999667,0.014160241102380832,1.1419455913242802,0.03856043322161025,0.025274258174182617
0.062,-0.0083,0.671999999999889,0.01415343142841803,1.1461369095917655,0.03853574995869205,0.025559427737997648
0.063,0.0065,-0.327999999999889,0.014035907241954476,1.1461369095917655,0.03810975593760179,0.025559427737997648
0.064,0.0305,0.672,0.013957515611123782,1.167570082484202,0.037825607056913756,0.027017701286996192
0.065,0.0007,0.6720000000001111,0.014010925594548272,1.1697969296080257,0.03801920408821435,0.027169211857765753
0.066,0.0047,1.672,0.01434533543119311,1.1761036933502786,0.039231351096342335,0.027598312429634703
0.067,0.001,1.672,0.014341277066481618,1.1697969296080257,0.03921664060010729,0.027169211857765753
0.068,-0.0087,1.672,0.014200718786046115,1.1634559791967047,0.03870715409454597,0.026737785287992505
0.069,-0.0057,-1.328,0.014236721530436142,1.1612169721978596,0.03883765449888402,0.026585447381756014
0.07,0.0076,-1.328,0.014184978329949145,1.1612169721978596,0.038650099113879316,0.026585447381756014
0.07100000000000001,-0.004200000000000154,-0.328,0.014317994355031049,1.167570082484202,0.039132246943183,0.027017701286996192
0.07200000000000001,-0.015299999999999809,-1.328,0.01431746177926838,1.1653389800843221,0.03913031649722544,0.02686590119509286
0.073,-0.0015,-1.328,0.014327381067505685,1.1589736396968509,0.0391662712875517,0.026432815176330924
0.074,-0.014,-1.328,0.014345236422644512,1.165338980084322,0.03923099221660015,0.026865901195092846
0.075,-0.0154,-1.328,0.014265285468902092,1.165338980084322,0.038941191203722705,0.026865901195092846
0.076,-0.0109,0.672,0.014350613947808477,1.1761036933502786,0.0392504843197752,0.027598312429634703
0.077,-0.0018,-0.328,0.014342974204165842,1.1761036933502786,0.039222792274313266,0.027598312429634703
0.078,0.0093,-0.328,0.014344734291815603,1.1951672922734977,0.03922917212545672,0.0288953645365702
0.079,0.0108,-0.328,0.013770314467399241,1.1951672922734977,0.03714705253662661,0.0288953645365702
0.08,0.0017,-2.328,0.01373359702138307,1.1845758302076597,0.03701396152835621,0.028174740994113566
0.081,0.0104,-0.328,0.013626496910782286,1.1823768174757012,0.036625752018918864,0.028025124224024537
0.082,0.0049,-0.328,0.013565188468117058,1.188616834600524,0.03640352516669689,0.028449683479161145
0.083,-0.0016,-0.328,0.013591092766317748,1.188616834600524,0.03649742138062606,0.028449683479161145
0.084,0.0067,-0.328,0.013629098476352554,1.1694464590085223,0.03663518200445423,0.0271453664846368
0.085,-0.0056,0.672,0.013500402248488632,1.1694464590085223,0.036168692294917704,0.0271453664846368
0.08600000000000001,-0.0007999999999999404,1.672,0.013440224801491535,1.1735395615279334,0.035950565002173675,0.02742385363011692
0.08700000000000001,0.00349999999999972,-1.328,0.013502456505274724,1.1735395615279334,0.03617613843119817,0.02742385363011692
0.088,-0.0167,-0.328,0.013602060680360921,1.169446459008522,0.03653717716151524,0.027145366484636786
0.089,-0.0252,1.672,0.013562298568999142,1.1672189432490259,0.0363930500484865,0.026993810421129406
0.09,-0.0328,-0.328,0.01346106031017751,1.1713198297062062,0.03602608819781267,0.027272827171377467
0.091,-0.016,0.672,0.013446914440925651,1.1672189432490259,0.035974813171745695,0.026993810421129406
0.092,-0.0004,0.672,0.013443454105679566,1.1672189432490259,0.03596227037378932,0.026993810421129406
0.093,0.0294,-0.328,0.013530837286422334,1.1649871683718984,0.03627901123931161,0.026841964575114563
0.094,0.0163,-0.328,0.013695134575496603,1.1838835354233874,0.03687454535814324,0.02812763853396544
0.095,0.0123,1.672,0.013688883367813433,1.1838835354233874,0.03685188638744321,0.02812763853396544
0.096,0.0302,0.672,0.013724416355616376,1.1860797546770527,0.036980684048682246,0.02827706524094412
0.097,0.0073,-0.328,0.013647737429177907,1.1882719147833865,0.03670274326739007,0.028426215771025665
0.098,-0.0013,1.672,0.013772741898376331,1.1776184375487577,0.03715585133042359,0.027701372830874715
0.099,-0.0146,-1.328,0.013762057535762855,1.1668676983474087,0.03711712334829956,0.026969912365912875
0.1,-0.0214,-0.328,0.013635764877938071,1.160510742929499,0.03665934594298528,0.026537396845013397
0.101,-0.01,-1.328,0.01353159976738589,1.1563715244121044,0.036281775030676124,0.026255772052093843
0.10200000000000001,0.0036999999999998753,-2.328,0.01354481961029809,1.1823768174757012,0.03632969345674492,0.028025124224024537
0.10300000000000001,-0.005299999999999845,-1.328,0.013325027492340739,1.1757551026805644,0.035533005294503255,0.027574594963460975
0.10400000000000001,0.005900000000000315,1.672,0.013418026785433392,1.1694464590085283,0.035870103078501754,0.02714536648463721
0.105,0.0286,1.672,0.013469207795243363,1.1716697399420128,0.036055620671335054,0.02729663441839411
0.106,0.0381,1.672,0.013478798137939533,1.1738888101110692,0.036090383121275875,0.02744761585950629
0.107,0.0113,1.672,0.013479491793215729,1.180520993260426,0.03609289743776892,0.027898857367581555
0.108,0.022,-0.328,0.013307857570193227,1.180520993260426,0.035470768878344834,0.027898857367581555
0.109,-0.0008,-0.328,0.013492316749947528,1.1783144132702383,0.03613938450611533,0.02774872573520082
0.11,-0.0095,1.672,0.013769975585223356,1.1805209932604264,0.03714582417857432,0.027898857367581582
0.111,-0.007,-1.328,0.013817180761151442,1.176452180730257,0.03731693042755155,0.027622022868165324
0.112,-0.0091,-0.328,0.013987881008221039,1.1615699258129881,0.03793567357173684,0.026609461694688048
0.113,-0.0026,-2.328,0.013966313574461903,1.1615699258129888,0.037857497341735866,0.026609461694688093
0.114,-0.0123,0.672,0.013952859557280928,1.161569925812989,0.03780873009602072,0.026609461694688107
0.115,-0.0323,-1.328,0.013616658265767908,1.1593272762878455,0.03659008953889774,0.026456875957681106
0.116,-0.008,-0.328,0.013658168880480914,1.163455979196719,0.03674055451305867,0.026737785287993473
0.117,-0.0047,-0.328,0.013835229881212588,1.1503129563350138,0.03738235370307767,0.02584355825547272
0.11800000000000001,0.010099999999999588,-0.328,0.013964236198398036,1.158619895168129,0.03784996740420222,0.026408747051096883
0.11900000000000001,-0.019500000000000052,-0.328,0.014023974772848283,1.151861616885818,0.03806650390030596,0.02594892626276445
0.12,-0.0233,-1.328,0.014056691316558713,1.1476912051903194,0.03818509269832928,0.025665179143544138
0.121,0.0021,-0.328,0.014055619297505309,1.1476912051903194,0.038181206913445453,0.025665179143544138
0.122,0.0118,-0.328,0.014051436447207983,1.1476912051903192,0.03816604518996201,0.02566517914354412
0.123,0.0146,-1.328,0.014023499256494126,1.1412274363506187,0.03806478027957821,0.025225396234448916
0.124,0.0119,-0.328,0.014127408898546584,1.141227436350619,0.03844142518629878,0.02522539623444893
0.125,0.0187,1.672,0.014060868254128497,1.137018020743648,0.0382002329897428,0.024938995361036782
0.126,0.0031,0.672,0.014129615436971063,1.143864002633354,0.03844942330314961,0.0254047833410425
0.127,-0.0027,2.672,0.014094751070580211,1.1415865703100223,0.03832304921728253,0.025249831046605456
0.128,-0.0045,0.672,0.014100099151564629,1.1438640026333546,0.03834243459311217,0.025404783341042545
0.129,-0.0091,0.672,0.014295445103005072,1.1570802800742896,0.03905051188223788,0.026303994480012218
0.13,0.0046,-0.328,0.014315634595937179,1.1701472952381649,0.03912369344202335,0.027193050088972784
0.131,-0.0008,-1.328,0.014413231153933212,1.1619227722124987,0.03947745509259382,0.026633468712867203
0.132,-0.012,1.672,0.01438778661999148,1.1619227722124985,0.0393852254022231,0.026633468712867186
0.133,-0.0105,1.672,0.014381922596219796,1.17493593297778,0.03936396987056244,0.027518860167884674
0.134,0.0017,-1.328,0.014381076506676128,1.1749359329777795,0.03936090302025906,0.027518860167884643
0.135,-0.0095,-1.328,0.014382512537446034,1.1771488459878658,0.03936610825111826,0.027669422687257705
0.136,0.0132,-1.328,0.014397243239613276,1.177148845987865,0.039419503141468366,0.027669422687257642
0.137,0.0164,0.672,0.014397568622052994,1.1641604217607495,0.03942068256655573,0.02678571426066914
0.138,-0.0043,-0.328,0.014408975437155155,1.1641604217607484,0.03946202924743414,0.026785714260669065
0.139,-0.0018,-1.328,0.014321838822920622,1.1641604217607482,0.03914618212014114,0.02678571426066905
0.14,-0.004,0.672,0.014124397372735648,1.1510254426283404,0.03843050920356857,0.025892034508652607
0.14100000000000001,0.002499999999999498,0.672,0.013807882159883246,1.1510254426283404,0.037283225462948516,0.025892034508652607
0.14200000000000002,-0.015600000000000327,-0.328,0.013885337848310999,1.148762208017642,0.037563981800537674,0.025738048200394718
0.14300000000000002,-0.027399999999999064,-2.328,0.013885838203819232,1.1464945056830276,0.03756579545661428,0.02558375791644252
0.14400000000000002,0.00630000000000013,-1.328,0.013577532399002445,1.148762208017642,0.03644826864386665,0.025738048200394718
0.145,0.011,0.672,0.013479794250379484,1.1510254426283402,0.03609399376480825,0.025892034508652594
0.146,0.0066,0.672,0.013613261542525557,1.1400239517525783,0.0365777773175918,0.02514351336228822
0.147,0.0185,0.672,0.013288530060053256,1.1442223090611194,0.035400711777675245,0.02542916184947281
0.148,0.0003,0.672,0.013299896022763755,1.1574344951527737,0.03544191037946355,0.026328094620584132
0.149,0.0035,-0.328,0.013334870284710998,1.1506692546274804,0.035568682807590006,0.0258678001340814
0.15,0.0006,0.672,0.013744050162168295,1.1506692546274804,0.03705185139264811,0.0258678001340814
0.151,-0.0075,2.672,0.013620922489951805,1.1506692546274804,0.03660554622114835,0.0258678001340814
0.152,-0.0053,-1.328,0.013595009338995866,1.1464945056830225,0.036511617918328215,0.02558375791644217
0.153,-0.0165,-0.328,0.013593969437296741,1.1312181975947684,0.03650784855033955,0.024544386092062647
0.154,-0.0146,0.672,0.013584023023643215,1.1246597572500558,0.03647179543757024,0.024098161908392937
0.155,-0.0056,0.672,0.013663482566754342,1.1176961539493457,0.036759815217178755,0.02362437118454131
0.156,0.0056,1.672,0.013392165886134552,1.1106888923224922,0.03577636417408705,0.02314761002870894
0.157,0.0161,0.672,0.013124104927847038,1.1036371407776966,0.03480471426138062,0.02266782186092376
0.158,0.0225,-0.328,0.013231194005236629,1.0921584040311054,0.03519288377835221,0.021886829785813005
0.159,0.0285,0.672,0.01352515766064194,1.1146300110257998,0.03625842410148676,0.02341575647568344
0.16,0.0118,0.672,0.013768179733303043,1.1366574433236152,0.03713931469143098,0.024914462338481564
0.161,-0.0247,-1.328,0.0137368267755402,1.1366574433236152,0.03702566853099056,0.024914462338481564
0.162,0.0028,0.672,0.014228630092187734,1.1631035979205684,0.03880832518021724,0.02671380991594979
0.163,-0.0023,-0.328,0.014576648110904665,1.1653389800843228,0.04006979824092263,0.026865901195092905
0.164,0.0023,-0.328,0.014710084128520703,1.1438640026333402,0.040553468431825467,0.025404783341041563
0.165,-0.0107,-1.328,0.01485296468289062,1.1438640026333402,0.04107137256478046,0.025404783341041563
0.166,-0.0226,-0.328,0.014510001569057924,1.1506692546274804,0.03982822219426046,0.0258678001340814
0.167,-0.019,-2.328,0.01449354629434539,1.1638082537778112,0.0397685761856058,0.02676175340070219
0.168,-0.0156,-1.328,0.014493445123670894,1.1638082537778112,0.03976820946873039,0.02676175340070219
0.169,0.0111,0.672,0.014476058373395856,1.1768005649122348,0.039705187108089304,0.02764572628529434
0.17,0.0074,-1.328,0.01435249910562808,1.1896509940289848,0.039257317517129096,0.028520045779112733
0.171,-0.0024,-0.328,0.014164818091626043,1.1856135144348467,0.03857702359429629,0.028245343114868815
0.17200000000000001,0.012399999999999177,-0.328,0.014169632660207715,1.1878065350126454,0.03859447512909639,0.028394552189841653
0.17300000000000001,-0.01719999999999945,-1.328,0.01415317171058404,1.2005391633075297,0.03853480855039322,0.029260856733030055
0.17400000000000002,0.0027000000000004997,0.672,0.014157363572872717,1.214944164818674,0.038550002939956286,0.03024094646507336
0.17500000000000002,0.02069999999999955,1.672,0.014113029545869227,1.2149441648186738,0.03838930384470922,0.030240946465073346
0.176,0.0044,-0.328,0.01398838259033801,1.2085009088132082,0.03793749167394496,0.029802559211382484
0.177,-0.0043,0.6720000000001111,0.013989855549344031,1.2124621761465193,0.03794283075987064,0.030072076533977223
0.178,0.0253,1.672,0.013987860039243844,1.1830699939435352,0.037935597564753246,0.02807228667229589
0.179,0.0132,1.672,0.013992205218684935,1.187116124291621,0.03795134768835051,0.02834757791788166
0.18,0.0168,1.6719999999997779,0.01398494292006495,1.187116124291621,0.03792502378103765,0.02834757791788166
0.181,-0.006,-0.32799999999977797,0.014144183321733443,1.1933313594911352,0.03850222802356884,0.028770451056531823
0.182,0.0027,1.6719999999997779,0.014145740554244755,1.187116124291621,0.038507872578610894,0.02834757791788166
0.183,0.0001,-0.327999999999889,0.014105901510774982,1.1742379548186828,0.03836346660708484,0.027471371021396736
0.184,0.007,0.672,0.014070584759421901,1.1675700824842026,0.03823545274565378,0.027017701286996237
0.185,-0.0086,0.671999999999889,0.014167877669984166,1.1634559791967054,0.03858811375477166,0.02673778528799255
0.186,0.0012,-0.32800000000011104,0.014169913629684398,1.1593272762878313,0.03859549356896631,0.026456875957680138
0.187,0.0067,-1.327999999999889,0.014119625253515414,1.159327276287831,0.03841321153645066,0.02645687595768012
0.188,0.0052,-0.328,0.014046263258278555,1.1634559791967054,0.038147293751469045,0.02673778528799255
0.189,-0.0085,-0.328,0.014143123694347132,1.1697969296080266,0.03849838715519327,0.027169211857765815
0.19,-0.0138,-0.328,0.014162076655636699,1.1697969296080266,0.038567086615570435,0.027169211857765815
0.191,-0.0217,-0.328,0.014160523507200233,1.1805209932604184,0.03856145686421704,0.02789885736758104
0.192,0.0012,-0.327999999999889,0.014217213035397311,1.1845758302076603,0.03876694137593389,0.02817474099411361
0.193,0.0044,0.672,0.014167324160489735,1.1867707683122155,0.03858610742958584,0.02832408053406998
0.194,0.0015,0.672,0.013956908394224896,1.1679211161482446,0.037823406056624244,0.02704158496999779
0.195,-0.0227,0.671999999999778,0.014075943753250131,1.1679211161482446,0.038254877677649325,0.02704158496999779
0.196,-0.0064,-1.327999999999667,0.014067971233274764,1.1656906856180858,0.03822597940619792,0.026889830590870977
0.197,-0.0092,1.672,0.014222961479822655,1.1656906856180858,0.03878777796310333,0.026889830590870977
0.198,0.0097,-1.328,0.014141722823556071,1.1656906856180858,0.03849330936993674,0.026889830590870977
0.199,0.0363,-1.328,0.014155418182815521,1.1656906856180858,0.03854295141670826,0.026889830590870977
0.2,0.0109,-0.328,0.014187965011689863,1.1679211161482446,0.03866092504344097,0.02704158496999779
0.201,-0.0054,0.672,0.014203325637023888,1.1679211161482446,0.03871660323828243,0.02704158496999779
0.202,0.0033,-1.328,0.014187609154204518,1.1373784838516001,0.03865963515439192,0.02496352060600888
0.203,0.0008,-0.328,0.014191097867023399,1.1373784838516001,0.038672280813527,0.02496352060600888
0.20400000000000001,-0.015899999999999817,-1.328,0.014113963212778188,1.1506692546274804,0.038392688139745626,0.0258678001340814
0.20500000000000002,-0.009300000000000499,-1.328,0.014047738674633586,1.1506692546274804,0.038152641744633474,0.0258678001340814
0.20600000000000002,-0.027299999999999807,-1.328,0.01405550062941842,1.1506692546274804,0.038180776773088565,0.0258678001340814
0.20700000000000002,-0.020300000000000425,0.672,0.01408516559097639,1.1373784838516001,0.0382883043947623,0.02496352060600888
0.20800000000000002,-0.035699999999999725,-2.328,0.013997705825223517,1.1373784838516001,0.037971285928880535,0.02496352060600888
0.209,-0.0258,-2.328,0.013865142784201145,1.1438640026333402,0.03749078004670975,0.025404783341041563
0.21,0.0018,1.672,0.013635998684040276,1.1548289117997368,0.03666019342812541,0.02615081553537759
0.211,0.0377,2.672,0.013608472923737885,1.1589736396968517,0.036560419843915844,0.026432815176330986
0.212,0.0329,0.672,0.013399658922947257,1.1656906856180858,0.03580352444618144,0.026889830590870977
0.213,0.0199,-0.328,0.01341564397643698,1.1656906856180858,0.03586146602755577,0.026889830590870977
0.214,0.0239,0.672,0.013414644332469534,1.1656906856180858,0.0358578425831724,0.026889830590870977
0.215,0.0058,1.672,0.013433200450685634,1.1976851220422493,0.035925103592608566,0.02906667302976802
0.216,-0.004,1.672,0.01339358237490641,1.2041862516180597,0.03578149857038377,0.029508997894434324
0.217,0.0046,-0.328,0.013220843954158082,1.216747486786946,0.03515536758691865,0.03036364116547337
0.218,0.0072,1.672,0.013107723472069675,1.1983694437138095,0.034745335826797064,0.029113233014034037
0.219,-0.0048,1.672,0.013450881637268479,1.1943614367700182,0.03598919320681244,0.02884053561455587
0.22,-0.0025,0.672,0.013405317116643337,1.194361436770018,0.03582403389838214,0.028840535614555855
0.221,-0.0043,0.672,0.01339667338974822,1.1881515899293071,0.0357927026797789,0.02841802908989956
0.222,-0.0097,1.672,0.013395748157883101,1.190339934497595,0.03578934895954034,0.02856692001781042
0.223,0.015,-2.328,0.013349109080403924,1.190339934497595,0.035620294667371676,0.02856692001781042
0.224,0.0041,-0.328,0.013245374041395414,1.1863047996514788,0.035244282650399375,0.028292376885896902
0.225,0.0008,-1.328,0.013475248903696266,1.1841089977987402,0.036077518088021204,0.02814297857810736
0.226,0.0037,-1.328,0.013364641189210717,1.1774970240486138,0.035676594444342846,0.02769311208027844
0.227,0.0012,0.672,0.01342770648632425,1.179705132925826,0.03590518942821008,0.027843347735312215
0.228,-0.0057,-1.328,0.01343987747867675,1.179705132925825,0.03594930604904292,0.027843347735312152
0.229,-0.0079,0.672,0.013209716627562259,1.179705132925825,0.03511503397778527,0.027843347735312152
0.23,-0.0217,-1.328,0.013148006394459245,1.1689735846644869,0.034891350741738186,0.02711319298650997
0.231,0.0022,-0.328,0.013122004620564592,1.1689735846644902,0.034797101204258524,0.027113192986510194
0.232,0.0055,-0.328,0.013132014483783152,1.17119776325416,0.03483338430488105,0.027264521995138163
0.233,-0.0032,-1.328,0.013129777825615365,1.15814260030238,0.034825277011945266,0.02637627278882654
0.234,-0.0167,0.672,0.013156832766797643,1.1603875394209286,0.034923344001655275,0.026529014305545554
0.23500000000000001,-0.00979999999999957,0.672,0.013138137045036788,1.1603875394209286,0.0348555769663773,0.026529014305545554
0.23600000000000002,0.00569999999999962,-1.328,0.01316287408176316,1.1603875394209293,0.034945242166894916,0.0265290143055456
0.23700000000000002,-0.008000000000000253,-1.328,0.013203049344782839,1.1734177259866818,0.035090866845159926,0.02741556416462216
0.23800000000000002,-0.017099999999999317,-1.328,0.013187282723064941,1.173417725986683,0.035033717021053734,0.027415564164622236
0.23900000000000002,0.007499999999999697,-1.328,0.013179793181742573,1.173417725986683,0.03500656941918519,0.027415564164622236
0.24,-0.0034,1.672,0.013153185085278515,1.175633496744609,0.034910122123123305,0.027566321119887046
0.241,0.0129,-1.328,0.01318503406057546,1.175633496744609,0.03502556621563406,0.027566321119887046
0.242,0.01,0.672,0.013041443675166648,1.1819091164974393,0.034505089133334325,0.027993302712162396
0.243,0.0125,0.672,0.0130446254830245,1.1881515899293154,0.034516622343344024,0.028418029089900123
0.244,0.0193,-1.328,0.013039811842376934,1.185959207411183,0.034499174172059076,0.028268863427330055
0.245,-0.01,-0.328,0.013063832520326751,1.185959207411183,0.03458624276191339,0.028268863427330055
0.246,-0.022,0.672,0.012869848584293993,1.1899955141205232,0.03388310241757978,0.02854348629065577
0.247,0.0106,0.672,0.012896375650630922,1.1899955141205267,0.03397925600091133,0.02854348629065601
0.248,0.0062,0.672,0.012922759967519902,1.1771488459878725,0.034074892155335955,0.027669422687258156
0.249,0.0102,0.672,0.012886460670387687,1.183762764507811,0.03394331682592155,0.028119421503637863
0.25,0.0066,0.672,0.012366217166044396,1.1797051329258392,0.03205757203559265,0.02784334773531312
0.251,0.0033,0.672,0.012350867424514888,1.1797051329258392,0.032001933291657354,0.02784334773531312
0.252,0.0061,-1.328,0.012341106800435635,1.1983694437138226,0.03196655361684325,0.029113233014034928
0.253,-0.0073,1.672,0.012478512972544823,1.1921804740202615,0.032464614565323555,0.028692146931961718
0.254,-0.0051,0.672,0.012501149340608786,1.1983694437138181,0.03254666539881252,0.029113233014034626
0.255,-0.0073,0.672,0.012402073505576525,1.2234823904166938,0.03218754176113171,0.03082187158556116
0.256,0.0107,-0.328,0.012371463279759357,1.219556918588116,0.03207658780710132,0.030554789723081812
0.257,0.0038,0.672,0.01225321229967222,1.2195569185881148,0.03164795935179348,0.03055478972308172
0.258,-0.0118,-1.328,0.012310183619224481,1.2174210934052112,0.031854465282471954,0.030409472117277663
0.259,-0.0136,1.672,0.01178618431703067,1.2030457504501368,0.029955106720570675,0.02943140029868261
0.26,-0.0081,-1.328,0.011805474031132792,1.1844551298807093,0.030025026820622535,0.0281665287665059
0.261,-0.0067,1.672,0.011894418051633012,1.1737670108213674,0.03034742531649788,0.02743932886050011
0.262,0.0071,0.672,0.011286517208998925,1.1411021508471237,0.028143945912212347,0.025216872039886748
0.263,-0.0016,-0.328,0.01130714154741047,1.141102150847123,0.028218703671586288,0.025216872039886703
0.264,0.0074,2.672,0.01114479823763621,1.1411021508471233,0.027630252209730935,0.025216872039886717
0.265,0.0027,1.672,0.010886854555047117,1.1452965557669046,0.026695274739412227,0.025502251613830476
0.266,0.007,1.672,0.011065891673582589,1.1384591883888238,0.027344236832614985,0.025037049749305818
0.267,-0.0079,0.672,0.011123330491670441,1.1315805082283548,0.02755243732155438,0.024569037039271043
0.268,-0.034,0.672,0.01115391086021738,1.1315805082283545,0.027663283050895143,0.02456903703927103
0.269,-0.0013,0.672,0.011153910860217381,1.120388096863823,0.02766328305089515,0.023807526015013535
0.27,-0.0057,-0.328,0.01115509019128647,1.113397777332765,0.027667557813388175,0.023331917568128524
0.271,-0.0018,0.672,0.011204866942294845,1.111057897483899,0.027847985340324875,0.023172716459241828
0.272,-0.0055,-0.328,0.01119813622225593,1.1110578974838998,0.027823588264450628,0.02317271645924189
0.273,0.0043,0.672,0.011156355101525788,1.111057897483898,0.02767214277768684,0.02317271645924177
0.274,0.0249,-0.328,0.011081834181822252,1.0909007876914985,0.0274020241987363,0.021801263889804932
0.275,0.0115,-1.328,0.011094163081200686,1.097660953836718,0.027446713190678096,0.022261213124847395
0.276,0.0137,0.672,0.011093947197020936,1.0909007876914987,0.02744593066775589,0.02180126388980495
0.277,0.0071,0.672,0.011138842186785767,1.0909007876914987,0.027608663104305514,0.02180126388980495
0.278,0.0053,1.672,0.011139122796335284,1.0909007876914987,0.027609680239534886,0.02180126388980495
0.279,0.0035,0.672,0.01126048721808666,1.0864964089228868,0.028049594095523975,0.02150159808249445
0.28,-0.0147,1.672,0.011272529310663104,1.0864964089228868,0.028093243488839043,0.02150159808249445
0.281,-0.0079,0.672,0.011065110148148214,1.0796663399451365,0.027341404010092305,0.021036892787666
0.28200000000000003,-0.0012999999999994615,-0.328,0.011062914736482308,1.0820741031088053,0.02733344622479168,0.02120071255207756
0.28300000000000003,0.0083999999999995,0.672,0.011275145759625044,1.0820741031088053,0.028102727422723746,0.02120071255207756
0.28400000000000003,-0.0006000000000006216,0.672,0.011272244761482877,1.0980343371728076,0.028092212073492717,0.022286617438309946
0.28500000000000003,-0.011799999999999922,0.672,0.011148544597114188,1.1094522813617202,0.0276438317697049,0.02306347329993129
0.28600000000000003,-0.010399999999999316,1.672,0.011109305711361673,1.1071040626835977,0.027501601210806293,0.02290370483248339
0.28700000000000003,0.0018999999999997391,-1.328,0.011094678075854632,1.1004019104939455,0.02744857990977717,0.022447702759967963
0.28800000000000003,-0.0027999999999999167,-0.328,0.011066658814461916,1.107474262293856,0.027347017514938867,0.02292889253111292
0.289,-0.0013,0.672,0.010982367368858416,1.107474262293856,0.027041483369699054,0.02292889253111292
0.29,0.0165,-0.328,0.010958835856353804,1.1031360567308628,0.02695618787490927,0.02263372902665279
0.291,0.0096,-1.328,0.010955745021374695,1.0892654596760705,0.026944984417468742,0.021689999188082842
0.292,0.0031,-1.328,0.010880114421512582,1.0964096491129198,0.02667084354211181,0.02217607665953686
0.293,-0.0027,-0.328,0.010860130743007658,1.1078443381974359,0.02659840800506491,0.022954071812968227
0.294,-0.0081,0.672,0.010787556788581822,1.1078443381974359,0.026335346659119144,0.022954071812968227
0.295,-0.0033,-1.328,0.010615906891422213,1.103507587510168,0.025713161285103155,0.022659007295568863
0.296,0.0104,-1.328,0.010585291032651007,1.1172013756297063,0.02560218691310763,0.023590707380317405
0.297,0.0123,-0.328,0.010390810215559895,1.1148694787735063,0.02489724550665718,0.023432049419526663
0.298,0.001,1.672,0.010436548215547119,1.1125326942128537,0.02506303363178686,0.023273058908340596
0.299,0.0025,0.672,0.010419354954681046,1.1238033434283372,0.025000712618960592,0.024039893091663066
0.3,0.009,-0.328,0.010413001553005848,1.1214851740850216,0.02497768322213036,0.023882169125527864
0.301,-0.0022,-2.328,0.010405179184060231,1.1214851740850216,0.024949329208357813,0.023882169125527864
0.302,-0.0188,-0.32800000000011104,0.010437557231602524,1.119162203027029,0.025066691047504603,0.023724118459583055
0.303,-0.0076,-1.327999999999556,0.010419529144143397,1.1148694787735063,0.025001344009585206,0.023432049419526663
0.304,0.0022,2.671999999999778,0.010465917949012768,1.1035075875101679,0.025169491129888845,0.02265900729556885
0.305,-0.0032,0.671999999999778,0.010480052328295405,1.101146691719279,0.025220724507863283,0.022498376300751917
0.306,-0.0213,-1.327999999999889,0.010494936681275496,1.0987807232000906,0.025274676341678206,0.022337400166858406
0.307,-0.0235,-0.32800000000011104,0.010443300314502066,1.101146691719279,0.02508750820056432,0.022498376300751917
0.308,-0.0031,-1.327999999999778,0.010440964619934873,1.101146691719279,0.025079041926934546,0.022498376300751917
0.309,0.0266,0.672,0.010446347405114815,1.101146691719279,0.02509855309627312,0.022498376300751917
0.31,0.0146,0.671999999999889,0.010431442647305783,1.087250715643782,0.02504452730036246,0.02155291972042616
0.311,0.0038,-0.327999999999889,0.010522047655556286,1.0944080572128985,0.025372946436516344,0.022039892038699833
0.312,0.0336,0.671999999999889,0.010812396117476019,1.1031360567308628,0.026425382641628192,0.02263372902665279
0.313,0.0057,-0.32800000000011104,0.010866088571652695,1.100774364096257,0.02662000355452445,0.022473043816059187
0.314,0.0021,-1.328,0.011233405058366303,1.1031360567308628,0.02795142844582887,0.02263372902665279
0.315,-0.0207,-1.328,0.011586271329746486,1.0707470483934667,0.029230475137200673,0.020430040642587834
0.316,-0.012,-1.327999999999889,0.012072705300822785,1.0634304700443373,0.0309936693321076,0.019932234147522605
0.317,-0.0095,-0.327999999999889,0.012057376039577548,1.049035007329271,0.03093810482377359,0.018952793417569638
0.318,0.0072,0.671999999999778,0.012061438809774658,1.0465512350545116,0.030952831288726137,0.01878380213344224
0.319,0.005,-1.327999999999889,0.01187654007707338,1.0465512350545116,0.030282622398045262,0.01878380213344224
0.32,0.0108,-0.327999999999889,0.012420180052183823,1.0511230040188997,0.03225317319266426,0.01909485686091342
0.321,-0.0018,0.6720000000001111,0.012505759708949757,1.0535959987518528,0.032563376761872126,0.01926311486097607
0.322,-0.0002,1.671999999999889,0.012635774508263671,1.0511230040189,0.03303464594337081,0.019094856860913435
0.323,-0.0078,0.671999999999778,0.012697360926124493,1.0511230040189,0.03325788038198752,0.019094856860913435
0.324,-0.0067,-1.328,0.01296851228711229,1.0556749743937777,0.03424073218523833,0.019404564528873867
0.325,-0.0005,-0.328,0.012926261494180268,1.0699811071125038,0.03408758426124954,0.020377927410649675
0.326,-0.0107,-1.328,0.012913210908212515,1.0772531952156348,0.034040279346735536,0.020872706871441743
0.327,-0.0015,0.672,0.013045498087811708,1.0888890694696558,0.03451978530437623,0.021664390292709713
0.328,0.0174,0.672,0.01307289407481268,1.0864964089228712,0.03461908849477015,0.02150159808249339
0.329,0.0094,0.672,0.013062017219572246,1.0724106156626285,0.03457966277790185,0.020543226691045198
0.33,-0.0025,-0.328,0.013092729672956396,1.0699811071125038,0.03469098727976273,0.020377927410649675
0.331,-0.0004,0.672,0.013138879867413989,1.0556749743937774,0.03485826950057764,0.019404564528873854
0.332,-0.0225,-0.328,0.01363361076438211,1.0532068612352952,0.03665153785238537,0.019236638662133886
0.333,-0.0019,-2.328,0.013786800503726191,1.0675460695302563,0.037206810047978836,0.020212251945107097
0.334,0.0006,1.672,0.013882577076822299,1.079286602148705,0.03755397473575236,0.021011056128442934
0.335,0.0028,-0.328,0.01388730081183536,1.090900787691482,0.03757109702294558,0.021801263889803815
0.336,0.0006,-0.328,0.01404852538703122,1.095287455679786,0.038155493368522954,0.022099724688290624
0.337,-0.0012,1.672,0.014105493879040767,1.0881358984726606,0.03836198905010864,0.02161314592733726
0.338,-0.0103,-1.328,0.014225836424575365,1.0813161852821316,0.038798198875704154,0.02114914522116956
0.339,-0.0023,0.672,0.014373938153601546,1.0837202828965138,0.0393350283826912,0.02131271558836896
0.34,0.0021,-0.328,0.014403657711570228,1.0837202828965138,0.03944275390188065,0.02131271558836896
0.341,-0.0015,1.672,0.014313138205093785,1.0861190591134555,0.03911464468699181,0.021475923897502105
0.342,-0.0076,1.672,0.014280696392168063,1.0932838092618464,0.03899705171523385,0.021963400281844105
0.343,-0.0,0.672,0.014281223306682937,1.0888890694696545,0.03899896164066891,0.021664390292709623
0.34400000000000003,0.002499999999999534,0.672,0.014337197071924315,1.1114267801317788,0.0392018517014151,0.02319781455418033
0.34500000000000003,-0.005899999999999195,1.672,0.014401801391718524,1.109082741992632,0.03943602523451563,0.023038330522893117
0.34600000000000003,0.008600000000000323,-0.328,0.014459711225796463,1.1047508527275693,0.039645933031556044,0.02274359676769345
0.34700000000000003,0.014399999999999295,-0.328,0.014436360693788262,1.1047508527275693,0.039561293543089085,0.02274359676769345
0.34800000000000003,0.0016999999999993726,1.672,0.014383574669014623,1.1071040626835806,0.039369958196490744,0.02290370483248223
0.34900000000000003,-0.00959999999999976,-0.328,0.014448926854466453,1.09566164786502,0.03960684254434619,0.02212518403435699
0.35000000000000003,-0.0053000000000001995,0.672,0.01468712470215895,1.09566164786502,0.040470246597647516,0.02212518403435699
0.35100000000000003,-0.008899999999999518,-0.328,0.01470486749201024,1.1023926195299447,0.04053455950736891,0.02258314693081093
0.352,-0.0002,0.672,0.01473566844490834,1.0936586869891751,0.040646204796507254,0.021988906270930073
0.353,0.0122,0.672,0.014615841300444769,1.1074742622938392,0.040211863163165,0.022928892531111772
0.354,0.0074,-0.328,0.01460182040059967,1.123073587364201,0.04016104111806903,0.023990241835132278
0.355,-0.0092,-0.328,0.014654946520941818,1.0956616478650305,0.04035360922094627,0.0221251840343577
0.356,-0.0027,0.672,0.014776349445062082,1.0932838092618582,0.040793662637815864,0.021963400281844906
0.357,0.0031,0.672,0.014632364438646201,1.086496408922883,0.040271755158976776,0.021501598082494192
0.358,0.0122,-1.328,0.014515242024608615,1.1090827419926448,0.03984721745642359,0.02303833052289399
0.359,-0.0124,-0.328,0.01454804650294192,1.10239261952996,0.039966124994143974,0.022583146930811974
0.36,-0.016,1.672,0.014929820782362099,1.10239261952996,0.04134995555134995,0.022583146930811974
0.361,-0.0258,-2.328,0.015007481431052605,1.1023926195299607,0.04163145481555807,0.02258314693081202
0.362,0.0129,-0.328,0.015003090307647073,1.1047508527275856,0.04161553815726913,0.02274359676769455
0.363,0.0285,0.672,0.014652479016702342,1.1023926195299618,0.040344665172196294,0.022583146930812092
0.364,0.0293,0.672,0.014654655416559399,1.1090827419926486,0.04035255404472974,0.023038330522894248
0.365,0.034,-1.327999999999778,0.014679109106289062,1.1090827419926486,0.040441192187497595,0.023038330522894248
0.366,0.0035,-0.328,0.014577041996663613,1.1023926195299614,0.04007122597238247,0.022583146930812065
0.367,-0.0085,-0.32799999999977797,0.014534613233478206,1.0956616478650383,0.03991743295340383,0.022125184034358227
0.368,-0.0267,0.672,0.014505478013657055,1.0980343371728092,0.039811825505095225,0.022286617438310053
0.369,-0.0364,-1.327999999999556,0.014752984807523628,1.0980343371728107,0.04070897202054102,0.022286617438310157
0.37,-0.0157,0.672,0.01482015072358157,1.105121840628956,0.04095243066103633,0.02276883810019731
0.371,-0.0182,-0.328,0.014836981002283344,1.1117955403881299,0.04101343595974106,0.02322290432182498
0.372,0.0136,-0.328,0.01492778063197105,1.109452281361724,0.041342560547012006,0.023063473299931546
0.373,0.0267,-1.327999999999334,0.015058961712468682,1.0980343371728132,0.04181805718862869,0.022286617438310324
0.374,0.0226,1.672,0.01505551417659805,1.0956616478650443,0.0418055607850153,0.022125184034358637
0.375,-0.01,1.672,0.015045637111267584,1.0912764840400169,0.04176975904153332,0.02182682557636666
0.376,-0.0231,1.672,0.015045698694754143,1.0912764840400169,0.04176998226534674,0.02182682557636666
0.377,-0.0111,-0.328,0.01500955696824835,1.0912764840400169,0.041638978087682244,0.02182682557636666
0.378,-0.0002,-0.328,0.015090377005480536,1.0912764840400169,0.041931929297822135,0.02182682557636666
0.379,0.0096,-0.328,0.015003131235638595,1.0912764840400169,0.04161568651038867,0.02182682557636666
0.38,0.0183,-0.328,0.014997352813243017,1.151737488164441,0.04159474126102407,0.02594048077352385
0.381,0.0372,-0.3279999999995559,0.015084368551194034,1.1648644383187825,0.04191015024383278,0.026833614248682528
0.382,0.0205,1.672,0.015151632181768897,1.1837627645077953,0.04215396307354849,0.02811942150363679
0.383,0.0183,1.672,0.015199009960599827,1.2270612884491723,0.0423256949622927,0.03106537320622732
0.384,-0.0037,1.672,0.015197997086461136,1.2066852628697093,0.042322023562045806,0.029679026010440257
0.385,-0.0243,-1.328,0.015417552899720698,1.1940181764154778,0.043117855182400716,0.02881718081319453
0.386,-0.0164,-1.328,0.015580234072196102,1.1961957885809251,0.04370753130698267,0.0289653415282126
0.387,-0.0186,-0.32799999999977797,0.01570458757207611,1.198369443713807,0.04415827977880435,0.02911323301403387
0.388,-0.0208,0.672,0.015716524339551226,1.1856135144348443,0.04420154739654804,0.02824534311486865
0.389,0.0093,0.672,0.01573786384588083,1.1921804740202457,0.04427889745003892,0.028692146931960646
0.39,-0.0037,0.672,0.01574979312456122,1.1921804740202457,0.04432213792288697,0.028692146931960646
0.391,0.0002,1.672,0.01574856797948589,1.1921804740202457,0.04431769709676629,0.028692146931960646
0.392,-0.0034,0.672,0.015749924827019268,1.1793576067583322,0.04432261530938399,0.027819702695906046
0.393,0.0129,-2.328,0.015740890645560883,1.168622867143435,0.044289868796495685,0.027089330813294326
0.394,0.0158,-0.328,0.01574125106801019,1.1663937785337952,0.04429117523232895,0.026937667735964375
0.395,0.0133,0.672,0.01577200652945516,1.1704975559931543,0.04440265562700917,0.027216881184668074
0.396,0.0064,-1.328,0.015761776628371332,1.1638082537778087,0.044365574947455556,0.026761753400702023
0.397,-0.0001,0.672,0.015798198189349417,1.166042285069264,0.04449759345089995,0.02691375276898566
0.398,-0.0138,0.672,0.01578064374668402,1.166042285069264,0.044433963249797905,0.02691375276898566
0.399,-0.0265,0.672,0.015905500931162,1.1551838172175684,0.04488653744476396,0.026174962645365337
0.4,-0.0116,-1.328,0.015876745196530758,1.1551838172175684,0.0447823055296699,0.026174962645365337
0.401,-0.0098,1.672,0.015870249467463883,1.1593272762878288,0.044758760233774834,0.02645687595767997
0.402,-0.0007,1.672,0.015881783198232448,1.172369247106624,0.0448005669502995,0.02734422759559689
0.403,0.004,-2.328,0.015882202394271117,1.1701472952381482,0.04480208642481373,0.02719305008897165
0.404,-0.0127,-1.328,0.015838588073080882,1.1679211161482421,0.044643996072350735,0.027041584969997628
0.405,-0.0192,-0.328,0.015890523548814827,1.1701472952381484,0.04483224840415479,0.027193050088971663
0.406,-0.0054,-0.328,0.015914297480891435,1.1701472952381482,0.044918422605629324,0.02719305008897165
0.40700000000000003,-0.01449999999999863,-2.328,0.015914828271501622,1.1701472952381482,0.04492034658088238,0.02719305008897165
0.40800000000000003,0.01020000000000181,-0.328,0.015935868706188735,1.1701472952381484,0.04499661257895103,0.027193050088971663
0.40900000000000003,0.04279999999999879,0.672,0.01595185996415172,1.1638082537778087,0.04505457664989618,0.026761753400702023
0.41000000000000003,0.021099999999998897,0.672,0.01605758159306208,1.1701472952381484,0.045437789528631596,0.027193050088971663
0.41100000000000003,0.0011999999999994003,0.672,0.016308506760112057,1.2013408748195336,0.04634732674068041,0.029315403705508187
0.41200000000000003,-0.009599999999999815,-0.328,0.01657311733680534,1.186770768312213,0.04730646993477979,0.028324080534069814
0.41300000000000003,-0.006299999999999167,-1.328,0.01664761000802739,1.2299634057547264,0.04757648612047343,0.03126282791459082
0.41400000000000003,0.008700000000000143,-1.328,0.016525590345761162,1.2696417382328655,0.04713419719131767,0.0339624684676542
0.41500000000000004,0.011299999999999616,-0.328,0.016470214840365385,1.2675903062325673,0.046933475663917285,0.033822892818327
0.41600000000000004,0.004399999999999878,-0.328,0.016818255873812905,1.2638018446224772,0.048195032146920024,0.033565132878391066
0.417,0.0022,0.672,0.01695442689992406,1.2933715550822087,0.04868861601858603,0.03557700143520138
0.418,-0.0279,0.672,0.017138365915276767,1.3050746712399903,0.049355346188292695,0.036373259871570036
0.419,-0.015,1.672,0.016935988787193077,1.3050746712399903,0.04862178274775098,0.036373259871570036
0.42,0.0129,-1.328,0.01654107157149811,1.3050746712399945,0.04719031253064941,0.03637325987157032
0.421,0.0165,-0.328,0.01650637159107201,1.3087436645484796,0.04706453430032699,0.036622891408630544
0.422,0.0198,0.672,0.016472137946164294,1.3107306887778212,0.04694044641263643,0.036758084872025344
0.423,-0.0071,-0.328,0.0164591676928981,1.3222801732312175,0.04689343268286993,0.03754389049060929
0.424,0.0038,0.672,0.016262129917980466,1.3186488442859954,0.04617922298212998,0.037296821567351604
0.425,0.0006,-0.328,0.01614532297578376,1.3090568419776862,0.0457558287813706,0.036644199423241694
0.426,-0.0023,-1.328,0.016241468590086808,1.2973896475277567,0.046104331145689036,0.03585038503361584
0.427,-0.0157,0.672,0.016077515065613588,1.285616575614907,0.045510043082406616,0.03504936693670938
0.428,0.0064,0.672,0.016073944114848953,1.287639288971876,0.045497099332518894,0.0351869886225175
0.429,-0.0085,3.672,0.016078749532406542,1.2933715550822198,0.045514517697282555,0.035577001435202135
0.43,-0.0164,1.672,0.01610851618382152,1.3124024007443003,0.045622413917730684,0.03687182507066486
0.431,-0.0143,-2.328,0.016048274418167478,1.3180269733473609,0.045404053486905654,0.03725451061576022
0.432,-0.0255,-3.328,0.01562292638904048,1.3180269733473615,0.04386227963810884,0.03725451061576027
0.433,0.0006,-0.328,0.015498002966317308,1.3120900218531546,0.04340946534706326,0.03685057138711043
0.434,0.0259,-0.328,0.015398876613668162,1.3061260844275395,0.043050158596413125,0.03644479608546454
0.435,0.0226,0.672,0.015398876613668162,1.296441433082813,0.043050158596413125,0.03578587027181276
0.436,0.0197,0.672,0.015207627606424537,1.290722800767855,0.04235693164392962,0.03539678507741794
0.437,0.0062,-0.328,0.015119354881236297,1.2849787186682178,0.042036966415604504,0.03500596832661699
0.438,0.0131,1.672,0.015012499471277052,1.2907228007678555,0.04164964388112431,0.03539678507741797
0.439,0.0065,0.672,0.014872704801533113,1.3078036822847006,0.04114292526189206,0.036558936749249225
0.44,0.0008,-0.328,0.01484538055889377,1.305812204104872,0.04104388212579011,0.03642344024727884
0.441,0.0025,-0.328,0.0148411064612774,1.3038176841035052,0.04102838965496417,0.036287736785381774
0.442,-0.0054,0.672,0.014890610749243017,1.3111524386387092,0.04120782957559892,0.0367867799546206
0.443,-0.0011,-0.328,0.014889898264565242,1.3111524386387103,0.04120524700751669,0.03678677995462067
0.444,-0.0102,-1.328,0.014834514944427456,1.3038176841035063,0.041004497153748154,0.03628773678538185
0.445,-0.0015,-1.328,0.014902279444321312,1.3058122041048754,0.04125012550196826,0.03642344024727907
0.446,-0.0138,0.672,0.014850808170012443,1.3154278662843628,0.04106355577727355,0.037077672165382075
0.447,-0.0124,-0.328,0.014858231528494163,1.3117775685739654,0.04109046348388935,0.03682931264233073
0.448,-0.02,0.672,0.01485823046734182,1.309792132517838,0.041090459637493415,0.03669422723531196
0.449,0.0003,-0.328,0.014810247695288882,1.3078036822847023,0.0409165348086989,0.03655893674924934
0.45,-0.0027,-1.328,0.014571904697117274,1.3078036822847023,0.04005260462338917,0.03655893674924934
0.451,0.0107,1.672,0.014527547705469835,1.302134950919307,0.03989182228739556,0.03617324672341786
0.452,-0.0012,-0.328,0.014569702090961398,1.2961252074475795,0.04004462075996961,0.035764354862886115
0.453,-0.0034,-0.328,0.014604279618883347,1.2843405449352732,0.04016995513242579,0.0349625481629721
0.454,0.0148,0.672,0.014600788775836513,1.2648875655096903,0.0401573017517791,0.03363900332488837
0.455,0.0126,-0.328,0.014549877380129823,1.2590256202274959,0.03997276143859738,0.033240167380550995
0.456,-0.003,0.672,0.014425686323291146,1.2648875655096907,0.03952260177973803,0.033639003324888395
0.457,-0.0088,0.672,0.014544780406584131,1.2648875655096898,0.0399542862606663,0.03363900332488833
0.458,-0.0142,-0.328,0.014708514638215398,1.2572829392836855,0.04054777944552965,0.03312159858359984
0.459,-0.0222,-1.328,0.014691847546387877,1.2870024345114432,0.04048736565598439,0.03514365821974086
0.46,-0.0327,-3.328,0.014069214602218034,1.2849787186682056,0.03823048628900886,0.035005968326616156
0.461,-0.0392,-1.328,0.013911367991369218,1.284978718668203,0.0376583341687148,0.035005968326615976
0.462,-0.0204,-3.328,0.013945057479177016,1.288704927209398,0.0377804496311704,0.035259492682573314
0.463,0.0202,-3.328,0.013925427261606256,1.290722800767839,0.03770929529630982,0.03539678507741685
0.464,0.026,-0.328,0.01394891828633671,1.2849787186682016,0.03779444403365131,0.035005968326615886
0.465,0.0481,0.672,0.013929031385566708,1.2849787186681996,0.03772235929023839,0.03500596832661575
0.466,0.0217,2.672,0.013900809959842721,1.2849787186681996,0.037620064103291585,0.03500596832661575
0.467,0.0264,1.672,0.013902253420691768,1.2849787186681998,0.037625296266218,0.03500596832661576
0.468,0.0046,0.672,0.013915341381296362,1.288704927209395,0.03767273665388281,0.035259492682573106
0.46900000000000003,0.0006000000000005995,-1.328,0.013688260691082017,1.292420392673133,0.03684962934935907,0.03551228609935644
0.47000000000000003,0.011400000000000184,-1.328,0.01363008822136475,1.2863652647567798,0.03663876956774897,0.03510030636492633
0.47100000000000003,0.014699999999998518,0.672,0.013949257675060474,1.2806016372709268,0.03779567422780537,0.034708159782099735
0.47200000000000003,-0.0119999999999998,1.672,0.013943782473534101,1.2806016372709268,0.03777582807370992,0.034708159782099735
0.47300000000000003,-0.008400000000000176,0.672,0.013802488606944099,1.2843405449352527,0.037263675263337286,0.03496254816297071
0.47400000000000003,-0.011600000000000481,0.672,0.013801322710575908,1.2961252074475593,0.037259449198073565,0.03576435486288474
0.47500000000000003,-0.020299999999998954,-0.328,0.013803776885038104,1.2961252074475593,0.037268344929914536,0.03576435486288474
0.47600000000000003,-0.001499999999999334,-0.328,0.01382053910681237,1.2961252074475593,0.03732910354029846,0.03576435486288474
0.47700000000000004,0.010499999999999635,0.672,0.013918438897193306,1.29040517373001,0.037683964327879425,0.03537517431964256
0.47800000000000004,0.0039000000000005437,-1.328,0.013829997182890342,1.2941157577175157,0.037363386558811267,0.035627635609787184
0.47900000000000004,0.0136999999999999,-2.328,0.01381667029452339,1.2921031829403493,0.037315080121345996,0.035490703734247696
0.48,0.0119,-1.328,0.013841393596304997,1.236410449378275,0.03740469553632988,0.03170147287082959
0.481,-0.0063,-0.328,0.013747222345576826,1.2300796406360008,0.037063349716580395,0.03127073632151144
0.482,0.0057,-1.328,0.013698571521542835,1.2119037912853432,0.03688700337645047,0.030034085057992738
0.483,-0.0055,-1.328,0.01350911522877489,1.1680435250265222,0.03620027453870523,0.027049913444286255
0.484,-0.0037,0.672,0.013513853937849105,1.1743597052641856,0.03621745110290062,0.02747965469713372
0.485,-0.0019,-0.328,0.013263445027909184,1.1743597052641856,0.035309785186019606,0.02747965469713372
0.486,-0.0004,-0.328,0.013129818253795254,1.1743597052641856,0.03482542355338013,0.02747965469713372
0.487,-0.0048,-1.328,0.013546259113717533,1.178435742555269,0.036334911275038115,0.02775698075595612
0.488,-0.0037,-2.328,0.013686819450034363,1.178435742555269,0.03684440523262424,0.02775698075595612
0.489,0.0024,-0.328,0.013625537892010032,1.1676925281612407,0.036622275830098604,0.02702603226500449
0.49,-0.0009,-0.3280000000004441,0.013653966502189828,1.1784357425552692,0.03672532200577457,0.027756980755956135
0.491,0.0121,-2.328,0.013719953008704452,1.1784357425552692,0.03696450559932858,0.027756980755956135
0.492,0.003,0.6720000000002221,0.013806775499486907,1.1846965182373037,0.03727921411237972,0.028182952385035195
0.493,0.0016,1.672,0.013803250861891169,1.1846965182373037,0.037266438235451955,0.028182952385035195
0.494,-0.0213,0.6720000000002221,0.013916300011927242,1.1868912331514578,0.03767621143579347,0.028332276739528366
0.495,-0.005,1.672,0.013882013781935319,1.1934511621161479,0.037551932941112594,0.028778602206155506
0.496,-0.008,0.671999999999778,0.013973901050209934,1.1894265821700725,0.03788499992993571,0.028504777210171695
0.497,0.0,-0.328,0.013911874488824716,1.1934511621161477,0.037660170087722045,0.028778602206155492
0.498,-0.0069,-0.32799999999977797,0.014069400692140492,1.1956298069906846,0.038231160815646634,0.02892683318479513
0.499,-0.0004,0.672,0.014022842102193334,1.1934511621161477,0.038062398269444846,0.028778602206155492
0.5,-0.0022,-0.32800000000022206,0.014029911412418916,1.2140493228613023,0.03808802264498787,0.030180063068876346
0.501,-0.0148,-1.328,0.014029373458542,1.2140493228613023,0.038086072704791855,0.030180063068876346
0.502,-0.0101,-0.328,0.014012061929183339,1.2014598787823045,0.03802332300003211,0.029323500515626124
0.503,-0.0025,-0.328,0.014117554902740213,1.2140493228613025,0.03840570706372607,0.03018006306887636
0.504,-0.0035,-0.32800000000022206,0.014133108320288641,1.2161910694246134,0.03846208407923688,0.030325783554481036
0.505,0.0027,-1.328,0.014098288870403953,1.2201273701264914,0.038335872803797605,0.03059360219352532
0.506,0.0193,-0.3279999999995559,0.014113527005474703,1.2201273701264914,0.03839110700390601,0.03059360219352532
0.507,0.0262,1.672,0.01412125929831814,1.2179925452660167,0.038419134515686695,0.030448352647814175
0.508,-0.0075,2.671999999999334,0.014097292051827958,1.228295892418349,0.038332259600709254,0.031149373382998825
0.509,0.0066,-0.328,0.014061075477162323,1.2343037876971739,0.038200984118307045,0.03155813949589457
0.51,0.0022,0.671999999999556,0.013923904718097247,1.2406130409391096,0.037703776479705305,0.03198740944872993
0.511,-0.0098,-1.328,0.013558145236083067,1.1999752303197675,0.03637799531768524,0.029222487772746455
0.512,-0.0061,0.671999999999778,0.012980487524430508,1.1937945855084018,0.034284139245965184,0.028801968100302142
0.513,0.0102,-0.328,0.012831667434333754,1.1556623340775511,0.03374470587052981,0.026207520049869315
0.514,-0.0046,-1.327999999999778,0.012671154389102044,1.1162281793710327,0.03316288863245088,0.023524492901988398
0.515,-0.0071,-0.328,0.012401769200695077,1.1162281793710327,0.032186438736605566,0.023524492901988398
0.516,-0.0049,-0.32800000000022206,0.01147206035764285,1.1162281793710327,0.028816490639855162,0.023524492901988398
0.517,0.0064,-1.328,0.011298353270536608,1.0818273759696486,0.028186848497629285,0.021183925692630393
0.518,0.0122,-1.328,0.010993840572659903,1.067679986410244,0.027083070692013336,0.020221363402604803
0.519,-0.0081,-1.328,0.01098922441451279,1.072161664752374,0.027066338342441296,0.02052628853031439
0.52,-0.0324,-0.328,0.010998111722058489,1.067679986410244,0.027098552476331368,0.020221363402604803
0.521,-0.0161,-0.328,0.010966043767922252,1.0607287647599535,0.026982314643577934,0.01974841510340913
0.522,-0.0012,-1.328,0.010879357639982197,1.065239688695826,0.026668100409681657,0.020055330047371936
0.523,0.0068,1.672,0.010846979222415806,1.0533426011343991,0.0265507372292956,0.01924587415448961
0.524,0.0046,0.672,0.010827482657895555,1.0533426011343991,0.026480067351312628,0.01924587415448961
0.525,0.0068,-0.328,0.010765541847251224,1.0533426011343991,0.02625554833280275,0.01924587415448961
0.526,0.0166,-0.328,0.010604316842495395,1.0533426011343991,0.02567115043018437,0.01924587415448961
0.527,-0.0001,-1.328,0.010646082236662115,1.0558103969808121,0.025822538912324753,0.019413778431901684
0.528,0.0021,-0.328,0.010598180599365502,1.067679986410244,0.02564890817551366,0.020221363402604803
0.529,0.0118,-0.328,0.01062308237412029,1.067679986410244,0.025739170507713384,0.020221363402604803
0.53,0.0028,-1.328,0.01055627657217056,1.0512590129883201,0.02549701718539662,0.019104110660317166
0.531,-0.0084,0.672,0.01049368229886596,1.0466878380900266,0.02527012953797165,0.01879309635200727
0.532,0.0115,-0.328,0.01050496503588135,1.049171286975474,0.02531102646867774,0.018962065633322388
0.533,0.0036,-1.328,0.010531643920036367,1.0565866109497921,0.02540773035135402,0.019466590598584018
0.534,0.0014,-0.328,0.01067778006449606,1.0495619207300566,0.025937435135350274,0.018988643633439908
0.535,0.0126,0.672,0.01067154845811384,1.0825849359117106,0.025914847214170006,0.021235468673729548
0.536,0.0387,-1.328,0.010672051590305466,1.0825849359117106,0.025916670934987826,0.021235468673729548
0.537,0.0205,-0.328,0.010717494149613578,1.0825849359117103,0.026081388165974984,0.021235468673729534
0.538,-0.0023,0.672,0.010734299945693051,1.0825849359117106,0.02614230472166404,0.021235468673729548
0.539,-0.011,1.672,0.010729661118489582,1.0594338400671177,0.026125490202772123,0.01966031081586457
0.54,-0.0135,-0.328,0.010752158760898517,1.061887480144463,0.026207038192536808,0.019827251960860336
0.541,-0.0157,-1.328,0.010805260760904774,1.061887480144462,0.026399518865590568,0.01982725196086026
0.542,-0.0044,0.672,0.010813345429389352,1.0382749821236916,0.026428823645658076,0.01822070115000849
0.543,0.0177,0.672,0.010812885824940445,1.0382749821236898,0.026427157701368713,0.01822070115000837
0.544,0.0028,1.672,0.010833864895661897,1.023525779102584,0.026503201271329012,0.017217192582124882
0.545,-0.0161,0.672,0.010625309672759766,1.0209799515560283,0.02574724387484019,0.017043979171768628
0.546,-0.0041,-1.328,0.010662272055903086,1.013304092784962,0.02588122271526539,0.016521727899506247
0.547,-0.0244,0.672,0.010707275538309451,1.0133040927849637,0.026044348408879935,0.016521727899506365
0.548,-0.0164,-0.328,0.010937729080557932,1.0133040927849637,0.026879681407907925,0.016521727899506365
0.549,-0.0045,-2.328,0.01091738233624505,1.0374850680556145,0.026805929853553383,0.018166956853854128
0.55,-0.0024,-1.328,0.010917664344731511,1.0374850680556145,0.026806952059558325,0.018166956853854128
0.551,-0.0082,-0.328,0.010972155702641937,1.052038585059863,0.02700446878670563,0.01915715130610369
0.552,-0.0173,1.672,0.010872359304392116,1.059433840067115,0.026642733298377446,0.01966031081586439
0.553,0.0074,0.672,0.010840315772797385,1.0618874801444604,0.026526583990862728,0.019827251960860152
0.554,0.011,-1.328,0.010892847488966647,1.0618874801444604,0.026716997536185644,0.019827251960860152
0.555,0.0142,-0.328,0.010896487587971621,1.0761110251753523,0.026730191930113875,0.020794995728693002
0.556,0.0055,-0.328,0.01089631793654424,1.0761110251753523,0.02672957698866303,0.020794995728693002
0.557,0.003,1.672,0.010732709331443385,1.0761110251753532,0.026136539166669713,0.02079499572869306
0.558,0.0099,-1.328,0.01042366403472353,1.064335463796895,0.025016331891807606,0.01999380825313855
0.559,-0.0104,1.672,0.010447452074654383,1.028199933121566,0.025102557230513883,0.01753521339985608
0.56,-0.0079,0.672,0.010865163845340456,1.028199933121566,0.026616651666781066,0.01753521339985608
0.561,-0.001,-0.328,0.010869049906684386,1.0281999331215694,0.026630737608985117,0.01753521339985631
0.562,0.0055,-1.328,0.010848572103269382,1.0209799515560518,0.026556511000128236,0.01704397917177023
0.5630000000000001,-0.00029999999999980016,-1.328,0.01096317763836674,1.018427760065093,0.02697192568373011,0.016870332770375425
0.5640000000000001,0.0014999999999987343,-0.328,0.011758856242983073,1.03324973771475,0.02985604969662949,0.01787879278974894
0.5650000000000001,-0.00989999999999988,0.672,0.011892168806714152,1.0285985312569732,0.030339272399926107,0.017562333281754175
0.5660000000000001,-0.008799999999999523,-0.328,0.011925444850243336,1.0311255488601783,0.03045988923647293,0.017734266898260766
0.5670000000000001,-0.004499999999999877,-0.328,0.012014181033844452,1.045767572421616,0.030781534378685128,0.018730483173406528
0.5680000000000001,-0.003400000000000122,-1.328,0.012054496465890284,1.04117228811806,0.030927667132512115,0.01841782850563363
0.5690000000000001,-0.004500000000000366,0.672,0.012086517022882222,1.036556632105257,0.031043733163182107,0.018103787784340238
0.5700000000000001,-0.007799999999999722,-0.328,0.012191192888571706,1.031920331022597,0.03142315542746637,0.01778834241057468
0.5710000000000001,-0.005299999999998468,-1.328,0.011795045102303659,1.031920331022597,0.029987224718253037,0.01778834241057468
0.5720000000000001,0.008499999999998469,0.672,0.01168706763192564,1.0344392338779393,0.029595835012205148,0.017959723914604764
0.5730000000000001,-0.005299999999999401,0.672,0.0116864880508465,1.0344392338779393,0.02959373418443617,0.017959723914604764
0.5740000000000001,0.00010000000000088818,0.672,0.011667929535579186,1.0221837259405864,0.029526464486324785,0.017125881760469464
0.5750000000000001,0.008100000000000156,-0.328,0.011709884415508364,1.0221837259405864,0.02967853980412273,0.017125881760469464
0.5760000000000001,0.009499999999999278,0.672,0.011689954316283158,1.024726562838096,0.029606298477761316,0.01729889169258102
0.577,0.003,1.672,0.011572199556810887,1.0272631053406798,0.02917946869063775,0.01747147336567217
0.578,-0.0083,-1.328,0.011573985500902254,1.0272631053406744,0.029185942264527667,0.01747147336567181
0.579,-0.0069,-1.328,0.011573076821733547,1.0297933999605764,0.02918264854342559,0.01764362994434983
0.58,-0.0033,0.672,0.011515270208448255,1.0297933999605755,0.02897311489439542,0.01764362994434977
0.581,0.0079,0.672,0.01152336629067378,1.0373472531543895,0.02900246104624815,0.018157580182181537
0.582,0.0094,1.672,0.011501632095272376,1.0373472531543861,0.028923680349501307,0.018157580182181308
0.583,0.0184,-0.328,0.011445894133036077,1.0444540988567912,0.028721645012138794,0.018641116854826195
0.584,-0.0004,2.672,0.011475987856551344,1.0373472531543855,0.028830726782245943,0.018157580182181263
0.585,0.0021,-0.328,0.011533230105388426,1.0398530101101535,0.029038214759760428,0.01832806726345261
0.586,-0.0099,-0.328,0.011464123064571608,1.039853010110152,0.0287877200565928,0.018328067263452506
0.587,-0.0077,-1.328,0.010820790495235658,1.0327145015169208,0.026455810035716034,0.01784237630611966
0.588,-0.0019,-0.328,0.01062879079690676,1.047334311315975,0.025759862027051373,0.018837081197847286
0.589,-0.0074,0.672,0.010809894766287,1.068313756644139,0.02641631590665871,0.02026448396029684
0.59,0.0107,-0.328,0.01119574692342302,1.053984992596534,0.027814927689567743,0.01928958128464879
0.591,0.0128,-0.328,0.011592157587768668,1.053984992596534,0.029251811262125244,0.01928958128464879
0.592,-0.0029,0.672,0.01149866357149319,1.0494256918120102,0.02891292023773666,0.018979374869137356
0.593,0.0069,-0.328,0.011491396931726017,1.0613666857610118,0.028886580594916042,0.01979181807164265
0.594,-0.0022,-0.328,0.011355794936834723,1.0613666857610102,0.02839505931057584,0.019791818071642545
0.595,-0.0102,-1.328,0.011364931342084234,1.0469428463994175,0.028428176357608165,0.018810446647002127
0.596,0.0126,0.672,0.011280397743365297,1.044454098856774,0.028121764471518,0.018641116854825033
0.597,0.0223,-0.328,0.011324358083616457,1.037347253154369,0.028281109051349614,0.018157580182180146
0.598,0.0016,-2.328,0.01106553162144312,1.037347253154369,0.027342931739056713,0.018157580182180146
0.599,-0.0009,0.672,0.010991881845701792,1.037347253154369,0.027075970826035002,0.018157580182180146
0.6,0.0111,1.672,0.011015385960446374,1.0131629886860807,0.027161167011207632,0.01651212743689222
0.601,-0.0002,1.672,0.011021370835796724,1.0058350762682269,0.027182860597804042,0.016013549792697264
0.602,0.0056,0.672,0.010994994991367598,1.0058350762682269,0.027087255153800404,0.016013549792697264
0.603,-0.011,-0.328,0.010909562250313799,0.9932266819026315,0.0267775841151027,0.015155697896901731
0.604,-0.0045,1.672,0.010892558833239481,0.9932266819026315,0.02671595123569528,0.015155697896901731
0.605,-0.0027,-1.328,0.010927431211981711,0.9932266819026315,0.026842354364212083,0.015155697896901731
0.606,-0.0045,-0.328,0.010835186761138031,0.9932266819026315,0.0265079926832627,0.015155697896901731
0.607,-0.0059,0.672,0.011069772317050622,1.0305892094660734,0.027358303136455157,0.017697775355191795
0.608,-0.0103,-0.328,0.01107798562059405,1.0182873659531024,0.027388074184510742,0.016860780613959826
0.609,-0.0306,-0.328,0.011042795741822424,1.0135675003057787,0.027260520202554414,0.01653964966135374
0.61,-0.0037,0.672,0.011001807370159166,0.9984533838190484,0.02711194822100585,0.015511313054371038
0.611,0.0071,-0.328,0.010993688781503945,1.0109965967637609,0.02708252048931176,0.016364730126520222
0.612,0.0169,-0.328,0.010993296697929736,1.025925941130403,0.02708109929029387,0.01738049517927391
0.613,0.0437,1.672,0.011162444551687443,1.021241379254043,0.027694215420252178,0.01706176623012455
0.614,0.0183,0.672,0.011299290038409321,1.0139718505505457,0.02819024403283726,0.016567160906162618
0.615,-0.0114,0.6720000000002221,0.011312288119150452,1.028858023113634,0.028237358629823534,0.017579988629035138
0.616,-0.0154,1.672,0.011313164633486325,1.028858023113634,0.028240535761933253,0.017579988629035138
0.617,-0.0118,0.672,0.011308673875490718,1.028858023113634,0.028224257954667726,0.017579988629035138
0.618,-0.0151,0.672,0.01165044382737824,1.0360231043355628,0.029463083429435353,0.018067487539009976
0.619,-0.0179,0.671999999999778,0.011869870343806413,1.0313844049303311,0.03025844638305217,0.017751878987800476
0.62,-0.0099,-0.328,0.011862592398944084,1.028858023113634,0.03023206576225852,0.017579988629035138
0.621,0.0021,0.671999999999556,0.01190332294293295,1.0313844049303311,0.030379703186835732,0.017751878987800476
0.622,-0.0001,-1.328,0.012014926116845341,1.0267247482893798,0.030784235107047052,0.01743484454492932
0.623,0.0018,0.672,0.012056678332139838,1.0389266902713052,0.030935575819269253,0.018265042170262525
0.624,0.0109,0.672,0.012047304528146223,1.0435318633092578,0.0309015982647223,0.01857836964928349
0.625,-0.0003,0.672,0.012107567613045586,1.055539534432458,0.03112003597216003,0.019395349443731738
0.626,-0.0017,0.672,0.012114934949615066,1.0580022059325247,0.03114674061419499,0.019562905070070528
0.627,0.002,-1.327999999999556,0.012095741287400003,1.0698474782726215,0.031077168676771034,0.020368835550869428
0.628,-0.0016,0.672,0.012103694973716416,1.058002205932525,0.031105998681201407,0.01956290507007054
0.629,-0.0026,-0.3279999999995559,0.012342454116926896,1.053460291503427,0.0319714372819599,0.019253881590112258
0.63,-0.0052,1.672,0.012536767727534896,1.053460291503427,0.032675772609234335,0.019253881590112258
0.631,-0.0045,0.671999999999556,0.01258099502169936,1.0653560647889906,0.03283608482623407,0.020063248062089097
0.632,-0.0023,-1.328,0.012689559846478201,1.0629104316801512,0.033229603536281384,0.01989685169646121
0.633,-0.0091,-0.32799999999977797,0.01267044243193138,1.048507829135333,0.03316030797644208,0.01891692518566171
0.634,-0.0116,0.672,0.012774062427786613,1.055539534432458,0.033535902992480895,0.019395349443731738
0.635,0.0008,0.671999999999778,0.013074415576791053,1.0190921605651253,0.034624603536102215,0.016915537354876317
0.636,-0.0082,-0.328,0.013136814844638672,1.0190921605651253,0.034850784340440207,0.016915537354876317
0.637,0.0031,1.6719999999991118,0.013206169630135432,1.0263254224256049,0.03510217705239725,0.017407675149735412
0.638,0.0198,-2.328,0.013245258903716684,1.0216426923017132,0.03524386530683617,0.017089070829645236
0.639,0.0311,-0.328,0.013344292573767715,1.0216426923017135,0.03560283610763765,0.017089070829645253
0.64,0.0329,-0.328,0.013339961061073175,1.0339046134637817,0.03558713552237367,0.017923349327760657
0.641,0.0054,0.6720000000002221,0.013370893069158717,1.036418693747797,0.03569925585182469,0.01809440271293314
0.642,0.0015,1.672,0.013347682678150327,1.036418693747797,0.03561512433733165,0.01809440271293314
0.643,-0.0022,0.671999999999778,0.01335884252053567,1.0339046134637817,0.03565557580758233,0.017923349327760657
0.644,-0.0054,-0.328,0.01334324027254907,1.0410349613406331,0.035599021794677756,0.018408485045003888
0.645,-0.0082,-0.328,0.01343629983933429,1.0435318633092578,0.03593633805483369,0.01857836964928349
0.646,-0.0108,-0.328,0.013403563224819913,1.036418693747797,0.03581767650546668,0.01809440271293314
0.647,-0.0038,0.672,0.013344885755524605,1.036418693747797,0.03560498623425804,0.01809440271293314
0.648,-0.0103,-0.328,0.013163256901569532,1.0435318633092578,0.034946629787210165,0.01857836964928349
0.649,-0.0085,-0.328,0.013328175376674585,1.0194943196301236,0.03554441554073131,0.016942899515855477
0.65,0.0043,-0.328,0.013406168261426443,1.0194943196301236,0.03582711907258836,0.016942899515855477
0.651,0.0029,-0.328,0.01336479376872955,1.0044693871600525,0.03567714750465086,0.015920630824861712
0.652,0.0105,0.672,0.013369020964859639,0.9966663798468857,0.03569246997002229,0.015389728600326915
0.653,-0.0043,0.672,0.013357651958708845,0.9966663798468857,0.03565126033656971,0.015389728600326915
0.654,-0.0141,-1.328,0.013623372706726663,0.9992741524353039,0.03661442760742188,0.01556715663707064
0.655,-0.0014,-0.328,0.013616951546850728,0.9865819138404558,0.0365911526050762,0.014703600134571794
0.656,0.0233,2.672,0.01362571406959595,0.9817096264850892,0.03662291442714412,0.01437209869010024
0.657,0.0052,0.672,0.01367595419627203,0.9843570235141779,0.036805021568038596,0.014552222700697838
0.658,-0.0046,0.672,0.013695215590021022,0.984357023514178,0.03687483901431787,0.014552222700697845
0.659,0.0041,-0.328,0.013711376115334704,0.98699731952518,0.036933416634537704,0.014731863571123023
0.66,0.0066,1.672,0.0133730498111282,1.002284204587844,0.035707073469726854,0.01577195503333162
0.661,-0.0003,1.672,0.013426020863082368,1.014780067686829,0.03589907949080521,0.016622150509316765
0.662,0.0201,0.672,0.013461852009707282,1.0220438477708707,0.036028957898734074,0.01711636470781457
0.663,0.0175,-0.328,0.01338410302412583,1.0245870318203745,0.03574713843671378,0.017289398259507475
0.664,0.0056,1.672,0.012663314475146977,1.0245870318203745,0.033134471022670135,0.017289398259507475
0.665,-0.01,0.672,0.012596793383336007,1.0583895803487873,0.03289334969913169,0.01958926131082076
0.666,-0.0082,-0.328,0.012701727595346431,1.0559278122971665,0.03327370840034356,0.01942176715344777
0.667,-0.0284,-1.328,0.012608517025520873,1.041428646987533,0.03293584479419626,0.018435270690245285
0.668,-0.023,0.672,0.01262028050350581,1.0460228050811735,0.03297848428347589,0.0187478487327729
0.669,0.0016,-0.328,0.012530485436331356,1.0580022059325231,0.032653000969012975,0.019562905070070424
0.67,0.0125,0.672,0.012487339522632333,1.055539534432458,0.03249660846953407,0.019395349443731738
0.671,-0.0172,0.672,0.012478213598918804,1.0580022059325247,0.0324635294152911,0.019562905070070528
0.672,-0.0132,1.672,0.012529881672873808,1.0555395344324612,0.03265081248653283,0.01939534944373195
0.673,-0.0023,-1.328,0.012531080046418196,1.048507829135336,0.032655156272950785,0.01891692518566192
0.674,-0.0121,1.672,0.012559451534147439,1.0815630290345966,0.032757995394886275,0.02116594001477113
0.675,-0.0092,0.672,0.01252829764392574,1.1136375100502356,0.03264507080151108,0.02334822854002575
0.676,-0.0067,1.672,0.0125284299914856,1.1136375100502356,0.03264555052633117,0.02334822854002575
0.677,0.0053,0.672,0.012541847150925368,1.1136375100502356,0.032694184172505164,0.02334822854002575
0.678,0.0255,0.672,0.012541585217635447,1.1206263341611666,0.03269323473376589,0.02382373524128371
0.679,0.023,-1.328,0.012540661121603312,1.118301579095414,0.032689885130620794,0.02366556319474161
0.68,0.011,1.672,0.01255682035053871,1.118301579095415,0.03274845805181301,0.023665563194741668
0.681,-0.0184,-0.328,0.012546366737008222,1.118301579095415,0.03271056647394484,0.023665563194741668
0.682,-0.0064,-0.328,0.012538530281290677,1.115971981189092,0.03268216139935836,0.023507061650260033
0.683,-0.0246,-1.328,0.012547405173494983,1.1093234072205027,0.032714330530927094,0.02305470494107791
0.684,-0.0279,-0.328,0.012543891697530809,1.1229462764637066,0.032701595111954876,0.023981579836294217
0.685,-0.013,-0.328,0.01249352007859976,1.1272082424322962,0.03251901134649381,0.024271556139379025
0.686,0.0167,-1.328,0.01249361483161915,1.1314541545245715,0.032519354801070745,0.024560440166331615
0.687,0.0127,0.672,0.012509659380958407,1.1448137061580412,0.0325775120391277,0.025469399417084645
0.6880000000000001,0.01629999999999891,-0.328,0.01252192371516695,1.1314541545245853,0.03262196699944442,0.02456044016633255
0.6890000000000001,0.0064999999999977125,1.672,0.012392792161722614,1.109323407220519,0.03215389935008065,0.023054704941079012
0.6900000000000001,-0.014099999999997313,0.672,0.01199828970945342,1.109323407220519,0.030723932540446624,0.023054704941079012
0.6910000000000001,0.01009999999999819,-0.328,0.011565590549825505,1.1116669378980122,0.02915551279231728,0.023214154445611354
0.6920000000000001,-0.0061999999999990335,-0.328,0.011572030951526946,1.122946276463722,0.029178857541179548,0.023981579836295258
0.6930000000000001,0.0025000000000014876,-1.328,0.011697649214424989,1.1116669378980062,0.029634190443661758,0.023214154445610948
0.6940000000000001,0.01589999999999867,0.672,0.011705349931538243,1.1314541545245824,0.029662103501791038,0.024560440166332357
0.6950000000000001,0.0038999999999997444,-0.328,0.011860070426817054,1.1314541545245824,0.03022292428185521,0.024560440166332357
0.6960000000000001,0.001599999999999356,0.672,0.012063708979758116,1.1314541545245824,0.03096106005310999,0.024560440166332357
0.6970000000000001,-0.004200000000001865,-1.328,0.012094954198332224,1.13797343764375,0.031074315687552142,0.02500400016460353
0.6980000000000001,-0.02099999999999928,-0.328,0.012138438186473779,1.1356841927994485,0.031231933617264056,0.02484824416802851
0.6990000000000001,-0.014499999999997992,0.672,0.01209875562302343,1.13797343764375,0.03108809484432666,0.02500400016460353
0.7000000000000001,0.0035999999999992227,-0.328,0.012069389172289035,1.1402580864834644,0.030981649245255247,0.02515944345750401
0.7010000000000001,-0.0033999999999997556,-1.328,0.012074904072558668,1.1402580864834646,0.03100163929677116,0.025159443457504024
0.7020000000000001,-0.0011999999999966582,0.672,0.012125669021267386,1.1402580864834646,0.031185648778407297,0.025159443457504024
0.7030000000000001,0.028899999999996612,0.672,0.012251964114305697,1.13797343764375,0.03164343501072505,0.02500400016460353
0.704,-0.0016,0.672,0.012307827201463386,1.1356841927994485,0.03184592389275786,0.02484824416802851
0.705,-0.0056,0.672,0.012341598836082792,1.1291516925474334,0.031968337115628985,0.02440378490041808
0.706,0.0125,0.672,0.012507759720770135,1.1291516925474334,0.03257062627453184,0.02440378490041808
0.707,0.0093,0.672,0.012289170237332621,1.1175682304636847,0.03177829734361457,0.02361566750653846
0.708,0.0122,0.672,0.012278453874053479,1.121850628080822,0.03173945336756066,0.023907033941303214
0.709,0.0042,1.672,0.012486148113178278,1.119528415323673,0.03249228992609743,0.023749034868749082
0.71,-0.0125,1.672,0.012642278978871269,1.1330285921959475,0.033058222925033666,0.024667562001359816
0.711,0.0121,-1.328,0.012643344285125825,1.1330285921959442,0.0330620843778012,0.02466756200135959
0.712,0.0088,0.672,0.012643318063105006,1.1218506280808176,0.03306198932992701,0.023907033941302912
0.713,0.0059,1.672,0.012483796205867204,1.11952841532367,0.03248376488556897,0.02374903486874887
0.714,-0.013,2.672,0.012416568170397982,1.1261167407107173,0.0322400810786752,0.024197292375574525
0.715,-0.0199,-0.328,0.012431958005366527,1.114869478773516,0.03229586515069852,0.023432049419527326
0.716,0.0004,-0.328,0.012499551912111315,1.114869478773516,0.03254087514397631,0.023432049419527326
0.717,-0.013,-1.328,0.012480488761391585,1.1172013756297159,0.03247177627612526,0.023590707380318054
0.718,-0.0011,1.672,0.012173630039125567,1.1129010880241452,0.031359494754012715,0.02329812374373931
0.719,0.0145,-0.328,0.012214341249397565,1.1105601616828895,0.031507062098991505,0.023138851433440737
0.72,0.0086,0.672,0.01221371293122828,1.1241680438144124,0.0315047846121906,0.024064706633222778
0.721,-0.0116,-0.328,0.012188963654723523,1.1284253952819059,0.03141507504572101,0.02435436897416469
0.722,0.0017,-0.328,0.012137673244934798,1.1326667447668484,0.03122916090696591,0.024642942569730323
0.723,0.0086,2.672,0.012108540971160651,1.1411021508471253,0.03112356413729672,0.025216872039886852
0.724,0.0064,2.672,0.012108301985322823,1.1346008450887624,0.031122697876988067,0.024774535188084652
0.725,0.0006,0.672,0.012081859267451119,1.1430219777604191,0.031026850034482762,0.025347493521846714
0.726,0.006,0.672,0.01229495748456483,1.14074286438055,0.031799274580672554,0.02519242685142365
0.727,-0.0019,1.672,0.012620875808038593,1.1338780382433318,0.03298064210459616,0.0247253567435764
0.728,-0.0004,-0.328,0.012712800081256097,1.1315805082283579,0.03331384322652751,0.024569037039271255
0.729,-0.0069,-0.328,0.012766056085008132,1.1292783038711716,0.0335068821223344,0.024412399301344048
0.73,-0.0007,1.672,0.012559358746557937,1.1227085314552252,0.03275765906447166,0.023965404104450184
0.731,0.0005,-0.328,0.012510954065491589,1.1114267801318043,0.03258220492734867,0.02319781455418207
0.732,0.0052,-0.328,0.012401674228040123,1.1114267801318043,0.03218609448590794,0.02319781455418207
0.733,-0.0086,1.672,0.012431754960458594,1.1114267801318043,0.03229512916673306,0.02319781455418207
0.734,-0.0028,-1.328,0.01249160253435847,1.1184294187022914,0.032512060756946716,0.023674261165786737
0.735,-0.001,-1.328,0.012179896738735223,1.1517374881644429,0.03138220987883947,0.025940480773523972
0.736,0.0103,1.672,0.012376944053131504,1.158142600302373,0.03209645415766065,0.02637627278882606
0.737,-0.0064,-0.328,0.012378300067483177,1.158142600302373,0.03210136935021555,0.02637627278882606
0.738,-0.0085,-0.328,0.012317412276697056,1.158142600302373,0.031880667249543485,0.02637627278882606
0.739,-0.0027,-0.328,0.012213833157493461,1.158142600302373,0.03150522040053075,0.02637627278882606
0.74,-0.0081,0.6720000000002221,0.012237808422759707,1.1472093634672547,0.031592124381445694,0.025632395521488945
0.741,-0.0067,1.672,0.012184774353181925,1.166393778533797,0.03139988993818728,0.026937667735964496
0.742,-0.0172,0.6719999999993339,0.012150651153682105,1.1727188442223269,0.03127620238582203,0.027368013538499235
0.743,-0.0048,-2.328,0.012135026286356944,1.1727188442223269,0.0312195663838114,0.027368013538499235
0.744,0.0198,-0.328,0.012157851063188474,1.166393778533797,0.03130230014913695,0.026937667735964496
0.745,0.0235,-0.328,0.012139478107292134,1.1641604217607426,0.03123570305455486,0.026785714260668673
0.746,0.0138,-1.327999999999778,0.012352274055747747,1.1641604217607426,0.032007031956988355,0.026785714260668673
0.747,0.0109,-0.328,0.012368105294565253,1.1619227722124872,0.0320644160009511,0.026633468712866416
0.748,0.003,0.672,0.012373470402809656,1.1686228671434369,0.032083863096084374,0.027089330813294447
0.749,0.0008,0.672,0.012218426706124406,1.1686228671434369,0.03152187079660029,0.027089330813294447
0.75,-0.0057,-0.328,0.012134250738919576,1.1727188442223269,0.031216755229943147,0.027368013538499235
0.751,-0.0115,-0.328,0.012128836333672226,1.1727188442223269,0.03119712944624247,0.027368013538499235
0.752,-0.0205,-0.328,0.012179205908919306,1.179357606758334,0.03137970580389091,0.027819702695906168
0.753,-0.0125,-0.328,0.012180697206083245,1.1771488459878585,0.03138511136077774,0.027669422687257205
0.754,-0.0168,-0.328,0.011981017040690057,1.1771488459878585,0.030661323695043156,0.027669422687257205
0.755,-0.0204,-0.328,0.012043321225722669,1.1771488459878585,0.030887159849382534,0.027669422687257205
0.756,-0.0016,-2.327999999999778,0.012076485797670077,1.181215258788232,0.03100737263099575,0.02794609391348459
0.757,0.001,-1.328,0.012042977518108677,1.181215258788232,0.0308859140003963,0.02794609391348459
0.758,0.0231,-0.3279999999995559,0.012006973781902396,1.181215258788232,0.030755410000987273,0.02794609391348459
0.759,0.0202,1.672,0.011997196953298053,1.1852677206343525,0.03071997158906543,0.028221815942517846
0.76,0.0068,1.6719999999997779,0.01199019624618242,1.1723692471066258,0.030694595881609766,0.02734422759559701
0.761,-0.0001,0.672,0.01192776813375582,1.203505237429553,0.030468310523319463,0.029462662945214435
0.762,0.0021,-0.32800000000022206,0.011866364864614239,1.1995143911336628,0.030245739950258553,0.02919113312456575
0.763,0.0118,-1.328,0.011858238408783129,1.209975096249902,0.030216283702137404,0.02990286020535969
0.764,-0.0084,0.672,0.011992699384019782,1.1995143911336628,0.030703669092705874,0.02919113312456575
0.765,-0.0164,0.672,0.012147291323001786,1.1738888101110632,0.03126402389027349,0.027447615859505885
0.766,-0.0044,0.672,0.012228945396152135,1.1738888101110632,0.031559998259519634,0.027447615859505885
0.767,0.0069,0.672,0.012274427652983604,1.1738888101110632,0.03172485938350542,0.027447615859505885
0.768,0.025,-0.3279999999995559,0.012324046174059513,1.1738888101110632,0.031904713368882585,0.027447615859505885
0.769,-0.0011,1.672,0.012865151817872556,1.160863911269349,0.033866077884382007,0.026561425767419416
0.77,0.0098,-1.328,0.012834721551623436,1.1631035979205677,0.033755776236079775,0.026713809915949745
0.771,0.013,-1.328,0.012806820570795165,1.160863911269349,0.03365464257693222,0.026561425767419416
0.772,0.0101,-2.328,0.012762905024884958,1.160863911269349,0.0334954603647119,0.026561425767419416
0.773,0.0021,-0.328,0.012766164376686923,1.1631035979205677,0.03350727465096265,0.026713809915949745
0.774,0.009,-2.328,0.012989014815681476,1.1366574433236145,0.03431504841622466,0.02491446233848152
0.775,-0.0246,-0.328,0.01341542055104702,1.1165953539464408,0.035860656169745674,0.023549474782826554
0.776,-0.0293,-1.328,0.013422701545509053,1.127825404689474,0.03588704784452981,0.024313546720969498
0.777,-0.0162,-0.328,0.013435828562665352,1.127825404689474,0.03593462980184093,0.024313546720969498
0.778,-0.0281,-0.328,0.013489504703129013,1.1142621888256727,0.03612919158185216,0.02339073053165398
0.779,-0.0027,-0.328,0.013491529483702167,1.1208814685052033,0.03613653087467467,0.02384109411144339
0.78,0.0006,0.672,0.01359686922981156,1.1274618873514892,0.03651835952949104,0.024288813671819662
0.781,-0.0081,-0.328,0.013753890527492152,1.1162281793710387,0.03708752010833505,0.023524492901988804
0.782,0.0107,-0.328,0.013876774124815349,1.1228358693120672,0.03753294057304917,0.023974067937348412
0.783,0.0274,1.672,0.014089288412605237,1.1251512557971857,0.03830324853023568,0.024131602562945
0.784,0.0027,2.672,0.014252236729468407,1.1181907133389137,0.038893892982405184,0.023658020093166983
0.785,0.0255,-1.328,0.014252371238007577,1.113894245165934,0.03889438054020241,0.02336569632373658
0.786,0.0168,-1.328,0.014262022973032619,1.1095811405346536,0.03892936552106071,0.023072240640370226
0.787,0.0034,0.672,0.014243946565485803,1.098164536133809,0.03886384333563276,0.022295475935457724
0.788,-0.0036,-0.328,0.014262291834396494,1.1048802602154615,0.03893034007223149,0.022752401414470786
0.789,-0.0101,0.672,0.014262291834396494,1.1048802602154615,0.03893034007223149,0.022752401414470786
0.79,-0.0083,-2.328,0.014299632549997705,1.107233195140926,0.03906569026752326,0.022912490766688467
0.791,0.0044,-1.328,0.01437969264730789,1.1072331951409247,0.039355886896900644,0.022912490766688377
0.792,-0.0003,-0.328,0.01440992277038004,1.0934145738948169,0.039465463079242924,0.021972297266269245
0.793,-0.0079,-0.328,0.014316885509810667,1.0910318379393866,0.03912822767320622,0.02181018030694224
0.794,-0.0145,-0.328,0.014321382234454389,1.0680638508131395,0.039144527107989456,0.020247480828519945
0.795,-0.0232,-0.328,0.014189487559166065,1.0822062222285498,0.038666443874425506,0.021209701693284386
0.796,-0.0065,-0.328,0.014018961703554145,1.0822062222285498,0.038048332853044334,0.021209701693284386
0.797,0.0055,1.672,0.013985861327060086,1.075348904513504,0.037928352762931744,0.02074314244463207
0.798,0.0076,-0.328,0.014003208689884057,1.075348904513504,0.03799123235450405,0.02074314244463207
0.799,-0.0021,-1.328,0.014033248319312552,1.075348904513504,0.038100118047886614,0.02074314244463207
0.8,-0.0003,-0.328,0.014152671580326974,1.1076033515906267,0.03853299571079239,0.02293767552875327
0.801,-0.0116,1.672,0.014179266375386919,1.109950513970325,0.03862939479279046,0.02309737212760478
0.802,0.0022,-0.328,0.014147020249747915,1.1122927233741964,0.038512511135571526,0.02325673173511705
0.803,0.0188,0.672,0.014004606139572152,1.1146300110258045,0.037996297739169245,0.023415756475683756
0.804,0.0123,0.672,0.013960115232321936,1.1212471192699611,0.03783502999461566,0.023865972315015648
0.805,0.0105,-1.328,0.013859074686750636,1.1278254046894796,0.037468784802061866,0.024313546720969876
0.806,0.0087,0.672,0.0137172542241688,1.1301305687712313,0.03695472322081575,0.02447038583309715
0.807,0.0007,0.672,0.013720489461274896,1.114630011025809,0.03696645009768661,0.023415756475684057
0.808,0.0112,-1.328,0.013720119654234126,1.1103197645254235,0.036965109645197086,0.023122495254271815
0.809,-0.0011,-0.328,0.013656968045943626,1.1239305572463945,0.03673620180619383,0.02404854848519117
0.81,-0.0025,-3.328,0.01367841126506363,1.1126611966380386,0.03681392779105639,0.023281801976320765
0.811,-0.0011,0.672,0.013695963648429966,1.1012765227207024,0.03687755052774525,0.022507209762608733
0.812,-0.0077,1.672,0.013708517396616025,1.105622024689905,0.03692305453700884,0.02280286970108874
0.8130000000000001,-0.01890000000000049,0.672,0.013756409446617757,1.1079733843769002,0.037096650522417514,0.022962851876986587
0.8140000000000001,-0.023300000000000123,-1.328,0.013708003984844664,1.101276522720702,0.036921193555439526,0.022507209762608702
0.8150000000000001,-0.024399999999998468,-0.328,0.013723187202314517,1.0989108337292894,0.03697622869380295,0.022346252647269454
0.8160000000000001,-0.010599999999996937,-0.328,0.013678571235365143,1.103265653626179,0.03681450764099237,0.022642546560361878
0.8170000000000001,0.01700000000000221,-1.328,0.01368292693268797,1.1009042390067365,0.036830295889122705,0.022481880265407178
0.8180000000000001,0.036899999999997185,-0.328,0.01369013073375362,1.105251204680006,0.036856407758308396,0.022777639791612028
0.8190000000000001,0.011499999999998912,0.672,0.013497391526793663,1.1119241280044283,0.03615777922689471,0.023231653186051374
0.8200000000000001,0.001700000000000322,-0.328,0.013516344207329905,1.1048802602154715,0.036226477669615495,0.022752401414471466
0.8210000000000001,0.004599999999999112,-0.328,0.013482902606287296,1.0981645361338193,0.03610526073097065,0.022295475935458418
0.8220000000000001,-0.0034000000000024536,0.672,0.013443373265896237,1.093789406804803,0.035961977351004815,0.021997800206065895
0.8230000000000001,-0.025500000000000963,-1.328,0.0134056004266354,1.0733080375470028,0.03582506082199987,0.020604285620716655
0.8240000000000001,-0.034199999999996705,1.672,0.013521124139788312,1.0733080375470032,0.036243803657650536,0.020604285620716683
0.8250000000000001,-0.004500000000000444,1.672,0.013526208867894188,1.0569745041727343,0.03626223444910847,0.01949298213798377
0.8260000000000001,-0.008500000000000412,0.672,0.013302973609001807,1.0569745041727334,0.035453065813729895,0.01949298213798371
0.8270000000000001,-0.012199999999998913,-0.328,0.013169555950083603,1.0643354637969134,0.034969462168239956,0.019993808253139806
0.8280000000000001,-0.0023999999999977126,-1.328,0.013149424117133207,1.0667778299646038,0.03489648961060293,0.02015998234211796
0.8290000000000001,0.01820000000000028,-1.328,0.01335856101205157,1.0692146171429697,0.0356545554139534,0.020325776846953213
0.8300000000000001,0.020699999999999743,0.672,0.013533197203833808,1.083341966106998,0.0362875653143306,0.021286975611835318
0.8310000000000001,0.01840000000000072,-1.328,0.013603575416424341,1.083341966106998,0.0365426676781992,0.021286975611835318
0.8320000000000001,0.024899999999999797,0.672,0.013582459012439605,1.083341966106998,0.03646612631156559,0.021286975611835318
0.833,0.0231,-1.328,0.013540094391544705,1.083341966106998,0.036312565791386364,0.021286975611835318
0.834,0.0028,0.672,0.013261363171730586,1.0716458633897556,0.035302239009257705,0.020491194357024296
0.835,0.0053,0.672,0.013265086844697524,1.0357654075589604,0.03531573633664319,0.018049954325665064
0.836,0.0074,0.672,0.01310738823251647,1.0311255488601616,0.03474412067228636,0.017734266898259635
0.837,0.0096,-1.328,0.01304500642562655,1.0311255488601616,0.03451800315929123,0.017734266898259635
0.838,-0.0085,-0.328,0.013246403743686009,1.035765407558957,0.035248015048235895,0.01804995432566484
0.839,-0.0107,0.672,0.013419297719065342,1.0428830329847993,0.035874709876001956,0.018534224430808634
0.84,-0.0172,0.672,0.013391078171239582,1.047470812228757,0.03577242149593839,0.01884636846816994
0.841,-0.0115,-0.328,0.013416357431651116,1.0235257791025922,0.035864052113575025,0.01721719258212544
0.842,0.0052,-0.328,0.013522298348011864,1.0162725911367319,0.03624805985118652,0.016723699051810974
0.843,-0.006,-0.328,0.013548746745566241,1.0162725911367319,0.03634392828103587,0.016723699051810974
0.844,-0.0042,1.672,0.013622970995910392,1.023525779102587,0.03661297151220363,0.017217192582125077
0.845,0.0085,-0.328,0.013815043276769676,1.0260652900745428,0.0373091826132998,0.01738997622439681
0.846,0.0099,-0.328,0.01362632558591538,1.0407785055006433,0.036625131011693346,0.018391036262697124
0.847,-0.013,-0.328,0.013651924474402716,1.0552866035009396,0.03671792019637359,0.01937814048969549
0.848,-0.0097,0.672,0.013766468010164115,1.0407785055006435,0.0371331101488182,0.01839103626269714
0.849,-0.0184,2.672,0.013760956335201236,1.0407785055006435,0.037113131788184255,0.01839103626269714
0.85,-0.0104,0.672,0.01376633010407131,1.0407785055006409,0.03713261027578972,0.01839103626269696
0.851,0.0063,0.672,0.013768695283475666,1.0407785055006409,0.03714118342413799,0.01839103626269696
0.852,0.0042,0.672,0.013792645346344437,1.0260652900745404,0.037227996053043076,0.017389976224396645
0.853,-0.0056,-1.328,0.013793747730326131,1.0260652900745404,0.03723199190274242,0.017389976224396645
0.854,-0.0001,-1.328,0.013722843420255858,1.0235257791025842,0.03697498257497454,0.017217192582124896
0.855,-0.0049,0.672,0.013787081002977038,1.0209799515560303,0.03720782678340477,0.017043979171768763
0.856,-0.0034,-1.328,0.01378408244017074,1.0162725911367239,0.037196957788129974,0.016723699051810433
0.857,0.0002,0.672,0.013756461384280601,1.0162725911367239,0.037096838782677014,0.016723699051810433
0.858,0.019,1.672,0.013912117364414901,1.0162725911367239,0.037661050447351845,0.016723699051810433
0.859,0.0216,0.672,0.014067182191903354,1.008967263346016,0.038223119340395906,0.016226658023987966
0.86,0.0097,0.672,0.01406692143816185,1.0162725911367239,0.03822217417720695,0.016723699051810433
0.861,-0.0059,-1.328,0.014070261567968404,0.979201089938498,0.03823428126231065,0.014201422490596385
0.862,-0.0117,0.672,0.014194034553987211,0.9792010899384981,0.03868292552527563,0.014201422490596392
0.863,-0.0027,-0.328,0.014184243184330437,0.966245215009391,0.038647434405893466,0.013319928658205504
0.864,-0.0106,-0.328,0.01406004694583709,0.9635480561551384,0.03819725596490955,0.013136418944812031
0.865,-0.0121,-1.327999999999778,0.013922752280240971,0.9716170714561067,0.03769959919797952,0.013685419862171259
0.866,-0.0056,-0.328,0.013715716761653767,0.9742918928910059,0.03694915032676932,0.013867409778754466
0.867,0.0082,-1.328,0.013677308045521733,0.9769593909479236,0.0368099289126728,0.014048901426208156
0.868,0.0101,-1.328,0.013599098906359724,0.9720388724622768,0.03652644151590648,0.01371411842459717
0.869,0.0072,-1.327999999999778,0.013156705571033834,0.9720388724622768,0.034922882950730184,0.01371411842459717
0.87,0.0025,-0.328,0.013114596668369744,0.9769593909479236,0.03477024934134853,0.014048901426208156
0.871,-0.008,0.672,0.013115353144522966,0.9796196254513974,0.03477299136686742,0.014229898874883525
0.872,0.0011,0.672,0.01311546494559083,0.9950198634127525,0.03477339661610075,0.015277702659233746
0.873,-0.0178,-0.32800000000022206,0.013127919384643387,0.9950198634127525,0.03481854065608155,0.015277702659233746
0.874,-0.0098,-1.328,0.012981728940549936,0.9901890963863063,0.034288639050307386,0.014949026181355527
0.875,0.0021,-0.3279999999995559,0.012570843095192397,0.9822726554158648,0.03279928678385106,0.014410406140014051
0.876,0.0224,1.672,0.012639195397299343,0.9693578341198549,0.03304704575927136,0.013531705521093531
0.877,0.0144,0.672,0.012731186053290808,0.9822726554158648,0.0333804875011607,0.014410406140014051
0.878,0.0366,0.672,0.012841931716884619,0.9849185390609382,0.033781911173787156,0.014590427182754762
0.879,0.0218,1.6719999999997779,0.012895388224310285,0.9800379822243266,0.03397567684225884,0.014258363098032788
0.88,0.0138,0.672,0.012800866075727597,0.9751329984257154,0.03363305911080731,0.013924637047873169
0.881,-0.0028,-0.328,0.012694854332282351,0.9751329984257154,0.033248794643790255,0.013924637047873169
0.882,-0.0006,-0.328,0.01256645928268542,0.9675170921626784,0.03278339662563132,0.013406464833671583
0.883,-0.0024,0.671999999999778,0.012317326855085091,0.9675170921626784,0.031880357618844786,0.013406464833671583
0.884,-0.0042,-0.328,0.01211092032113854,0.9598407589986597,0.031132188650217517,0.012884181284587763
0.885,-0.0154,0.671999999999556,0.012168571036853737,0.9571255526977246,0.03134115721188346,0.012699443656211465
0.886,-0.011,-1.328,0.012527958615582856,0.9544026218628731,0.032643841913642176,0.012514180464795799
0.887,-0.0233,-1.328,0.012819133085687103,0.9544026218628731,0.033699272179453885,0.012514180464795799
0.888,-0.0218,-1.328,0.012787851090627708,0.9493651998230834,0.03358588324000176,0.012171443560995622
0.889,-0.0051,-1.327999999999778,0.013554653970290736,0.965248258559175,0.036365340404698195,0.013252097580270862
0.89,-0.0117,-0.328,0.013737135120792261,0.9782173376401168,0.037026786200789114,0.014134489798796838
0.891,-0.0175,-0.328,0.013973895131785437,0.9782173376401168,0.03788497847721584,0.014134489798796838
0.892,-0.0085,-0.328,0.01392751511604658,0.980874160464999,0.03771686321518038,0.014315255123153858
0.893,0.0162,-1.327999999999556,0.013988572597320474,0.9835238063596199,0.03793818039888687,0.014495532142414117
0.894,0.0271,0.672,0.01400719227597293,0.9988638524306062,0.03800567179805539,0.015539240581570716
0.895,0.0043,1.672,0.014056101908530473,0.9910167095805785,0.03818295625047487,0.015005335456518205
0.896,-0.0106,1.672,0.014030237171628573,0.9936393096471752,0.03808920343576638,0.015183772327527132
0.897,-0.0186,-0.328,0.013998603001941492,0.9936393096471752,0.03797453795664792,0.015183772327527132
0.898,-0.0066,-0.328,0.01393842841305437,1.001056501236527,0.03775642102379489,0.01568842436187073
0.899,-0.0044,-1.327999999999778,0.01390796941974242,0.9984533838190536,0.03764601524750523,0.015511313054371393
0.9,-0.0026,-0.328,0.013825842550048163,0.9675170921626784,0.03734832711612249,0.013406464833671583
0.901,0.0141,-0.328,0.013800569523006439,0.9648234888406928,0.037256719092799,0.013223197032135188
0.902,0.0028,-0.328,0.013791926784691075,0.9648234888406928,0.037225391457535305,0.013223197032135188
0.903,0.0126,-0.328,0.013786556366833406,0.9621223444087181,0.03720592511646147,0.01303941614738511
0.904,0.0181,-0.328,0.013900780744336119,0.9621223444087181,0.03761995820482497,0.01303941614738511
0.905,0.0101,0.672,0.014153638606591712,0.9800379822243267,0.03853650092465016,0.014258363098032797
0.906,-0.0005,0.672,0.014145282030501199,0.9928138826640812,0.038506210551591945,0.015127611798140447
0.907,-0.0208,0.672,0.014145692909772396,0.9879723293832295,0.03850769988002881,0.01479820144340829
0.908,-0.0237,-0.328,0.014145692909772396,0.9928138826640812,0.03850769988002881,0.015127611798140447
0.909,0.0006,-1.328,0.014042588780678295,0.9773788864069712,0.03813397474424642,0.014077443123460551
0.91,0.0039,1.672,0.013887331328548285,0.9822726554158648,0.03757120763794016,0.014410406140014051
0.911,0.0187,0.672,0.013853559645816393,0.9796196254513974,0.03744879424067403,0.014229898874883525
0.912,-0.0056,0.672,0.013974574783337398,0.9747125363849245,0.03788744203392083,0.01389602958618187
0.913,-0.0023,-0.328,0.01402635906404245,0.9747125363849245,0.038075146323825894,0.01389602958618187
0.914,0.0125,1.672,0.014222108516989691,0.9773788864069712,0.038784686198948315,0.014077443123460551
0.915,0.0046,0.672,0.014605075602559995,1.0024268400126437,0.04017284036224394,0.015781659684536528
0.916,0.0025,0.672,0.01461102508697956,0.9950198634127554,0.04019440566609814,0.015277702659233942
0.917,-0.0088,0.672,0.014633714840776291,0.9950198634127554,0.04027665000871619,0.015277702659233942
0.918,0.0134,-0.328,0.014611852260335408,0.9950198634127553,0.0401974039502352,0.015277702659233935
0.919,0.0047,-1.328,0.014715062796622476,0.9875573338263134,0.040571514783884294,0.014769965911196618
0.92,0.0022,0.672,0.014706946394432626,0.9826898827252365,0.04054209497754756,0.014438793516546214
0.921,-0.0047,1.672,0.014705785409771927,0.9853346460054764,0.040537886715921435,0.014618738331730226
0.922,0.0066,0.672,0.01528503292560592,0.998042746392626,0.04263750540635323,0.015483374041319366
0.923,0.0163,0.672,0.015717507342951974,1.0105910560830895,0.044205110523288425,0.016337137886648236
0.924,0.0108,-1.328,0.015616822667019107,1.0131629886860907,0.043840155263835404,0.0165121274368929
0.925,-0.0139,0.672,0.015594488389477176,1.0084191388801227,0.04375919942840672,0.016189364646372686
0.926,-0.0175,1.672,0.015593170013597293,1.010996596763772,0.04375442066533437,0.01636473012652098
0.927,-0.0208,0.672,0.015482836284069034,0.9958434619213664,0.043354490144494696,0.015333738782589526
0.928,-0.012,0.672,0.015416417478052188,0.9932266819026428,0.04311373957984472,0.015155697896902501
0.929,-0.0095,0.672,0.014996357774268582,0.9980427463926266,0.04159113450851962,0.015483374041319404
0.93,0.0126,0.672,0.014845437434465862,0.9826898827252409,0.04104408828466163,0.014438793516546516
0.931,0.0039,-0.328,0.014801058616731755,0.9875573338263208,0.040883226834889784,0.014769965911197122
0.932,0.0013,0.672,0.014798709435723504,0.9875573338263208,0.04087471167648634,0.014769965911197122
0.933,-0.0056,-0.328,0.014799231508173593,0.9950198634127626,0.04087660405072015,0.015277702659234433
0.934,-0.0122,-0.328,0.014839407946327408,0.9998272903704716,0.041022232988534885,0.01560479112188774
0.935,-0.0303,-0.328,0.01484387986441815,1.0024268400126553,0.04103844250613961,0.015781659684537316
0.936,-0.0282,0.672,0.014775002898850217,1.0024268400126588,0.04078878176475785,0.015781659684537555
0.937,-0.0036,0.672,0.01473932399293844,0.9950198634127677,0.04065945518905615,0.01527770265923478
0.9380000000000001,0.045699999999997666,1.672,0.014584645644836471,0.9950198634127677,0.04009878718133511,0.01527770265923478
0.9390000000000001,0.024700000000000676,1.672,0.01442261471093728,0.9901890963863214,0.039511467999218224,0.014949026181356554
0.9400000000000001,0.030799999999996736,0.672,0.014424846768763403,0.9901890963863241,0.039519558617135,0.014949026181356743
0.9410000000000001,0.0013999999999982791,0.672,0.01438169818604957,0.9928138826640991,0.039363156443184937,0.015127611798141663
0.9420000000000001,-0.014099999999999478,0.672,0.014296355617652185,0.9954317478455075,0.0390538122564626,0.015305726516296123
0.9430000000000001,-0.00939999999999758,1.672,0.014271277681056958,0.9954317478455075,0.038962911384290554,0.015305726516296123
0.9440000000000001,0.012399999999998667,-1.328,0.014178948878704073,0.9879723293832532,0.0386282439514813,0.0147982014434099
0.9450000000000001,0.00039999999999960033,0.672,0.01402197363691109,0.9928138826641019,0.038059250313020786,0.015127611798141852
0.9460000000000001,-0.003199999999999645,-0.328,0.014055559684749454,0.9773788864069922,0.038180990833008396,0.014077443123461979
0.9470000000000001,3.219646771412951e-16,-1.328,0.014043604968634708,0.9643985320322596,0.0381376581562041,0.01319428375474434
0.9480000000000001,0.0028999999999985123,-0.328,0.013938104888742461,0.9800379822243492,0.037755248333928244,0.01425836309803433
0.9490000000000001,-0.010499999999998158,-1.328,0.013924588374199298,0.9800379822243503,0.03770625455184278,0.014258363098034405
0.9500000000000001,0.006099999999999767,-0.328,0.013964891703235933,0.9976319399428746,0.03785234343546986,0.015455423528232154
0.9510000000000001,0.0039999999999993565,0.672,0.014321544597397077,1.0127583154981112,0.03914511563061542,0.016484594219623533
0.9520000000000001,-0.001799999999997735,-0.328,0.014549011144339217,1.015324758202404,0.039969621563489495,0.016659210247286487
0.9530000000000001,0.018600000000000887,-1.328,0.01460042401668078,1.017884730029371,0.04015597959653468,0.016833386008392053
0.9540000000000001,0.026599999999997022,-2.328,0.014548616437143266,1.017884730029371,0.03996819085453829,0.016833386008392053
0.9550000000000001,-0.00019999999999958923,1.672,0.014438000634114826,1.0251265115188253,0.039567237892036165,0.01732610346309169
0.9560000000000001,0.0034999999999996336,0.672,0.014451186792897574,1.0251265115188253,0.03961503422206513,0.01732610346309169
0.9570000000000001,0.00019999999999903412,-1.328,0.014456552265408285,1.0297933999605662,0.03963448263756721,0.017643629944349135
0.9580000000000001,-0.008499999999999713,-0.328,0.014306671513430482,1.04195940689191,0.039091204643987076,0.018471382615124838
0.9590000000000001,-0.005899999999999234,-1.328,0.014191581419507994,1.1074742622938247,0.038674033563097274,0.02292889253111079
0.96,0.001,-0.328,0.01448339943353524,1.1074742622938247,0.03973179650503086,0.02292889253111079
0.961,-0.0193,0.672,0.014503186153443625,1.0936586869891611,0.039803518119377664,0.021988906270929122
0.962,-0.0168,0.672,0.014423946640771394,1.0980343371727765,0.03951629589178159,0.02228661743830783
0.963,-0.0237,0.672,0.0145243528695052,1.0980343371727765,0.03988024185395243,0.02228661743830783
0.964,-0.0349,-2.328,0.014524461288736802,1.1004019104939147,0.039880634844925815,0.022447702759965864
0.965,-0.0128,-0.328,0.014470375246385468,1.0932838092618322,0.039684587279233886,0.02196340028184314
0.966,-0.0099,-0.328,0.01456409345134624,1.097660953836687,0.04002429092817582,0.022261213124845296
0.967,-0.002,-1.328,0.01456269663889484,1.0952874556797714,0.0400192278533247,0.022099724688289628
0.968,0.0201,-0.328,0.014630379114177304,1.0929088029480176,0.04026455888407267,0.021937885543969856
0.969,0.0053,0.672,0.015197449543546267,1.0929088029480176,0.0423200388641292,0.021937885543969856
0.97,0.0017,0.672,0.015397126394328196,1.0861190591134413,0.043043814515276654,0.02147592389750114
0.971,0.0424,1.672,0.015420440003747517,1.090524961911947,0.04312832016914684,0.021775693396994464
0.972,0.0366,1.672,0.015413381178679995,1.090524961911947,0.043102733799522244,0.021775693396994464
0.973,-0.0004,0.672,0.01568354025965258,1.0949131356124284,0.044081988850764406,0.022074256641360458
0.974,-0.0051,0.672,0.01562859290850898,1.1063632918462356,0.043882819269027463,0.022853304151099634
0.975,-0.0007,0.672,0.01575923141172245,1.1020207128549,0.04435634921182249,0.022557843086642104
0.976,-0.0127,-0.328,0.015808696603625993,1.1461369095917069,0.04453564741959632,0.025559427737993662
0.977,-0.0018,-0.328,0.015726478124498094,1.1350880391054374,0.04423762722830164,0.024807682970324506
0.978,0.008,-1.328,0.015629204183785987,1.1327929632161513,0.04388503497986181,0.024651530240204396
0.979,0.0051,-0.328,0.015603517174455071,1.1370180207435727,0.04379192638048382,0.024938995361031658
0.98,0.0077,-1.328,0.01574127576883751,1.1412274363505441,0.044291264766279974,0.02522539623444384
0.981,0.0008,-0.328,0.015718231562184996,1.141227436350544,0.04420773562602267,0.025225396234443826
0.982,-0.0014,-1.328,0.01579694669226295,1.1544738972777304,0.04449305710572464,0.026126661002143038
0.983,-0.0112,-1.328,0.015804087749226148,1.1544738972777304,0.04451894154417196,0.026126661002143038
0.984,0.0055,0.672,0.01580177739526118,1.1544738972777304,0.044510567123507636,0.026126661002143038
0.985,-0.0057,0.672,0.015754966330346218,1.1544738972777304,0.0443408894224769,0.026126661002143038
0.986,-0.0039,-0.328,0.015479061433258353,1.1544738972777304,0.04334080731099254,0.026126661002143038
0.987,-0.0094,-1.328,0.01523382629973215,1.1544738972777304,0.0424518949620793,0.026126661002143038
0.988,0.0019,0.672,0.015526860769070111,1.158619895168055,0.04351406723204044,0.026408747051091853
0.989,-0.0057,-1.328,0.01489114466672264,1.158619895168055,0.04120976488492476,0.026408747051091853
0.99,0.0034,0.672,0.014699868115008348,1.1779664768096898,0.04051643809103693,0.027725052780212003
0.991,-0.0078,0.672,0.014545820654863588,1.188616834600466,0.039958056884916784,0.0284496834791572
0.992,-0.0002,-0.328,0.014586154490563864,1.1864253118032475,0.04010425634711245,0.028300576310412308
0.993,0.0009,-0.328,0.014533326369007591,1.1842297334044753,0.039912768410836616,0.02815119320601847
0.994,0.0171,-1.327999999999778,0.014513039447350834,1.1713198297061476,0.03983923369775197,0.027272827171373477
0.995,0.0106,-0.328,0.014460753499897745,1.1649871683718394,0.03964971099887361,0.026841964575110545
0.996,0.0088,0.6720000000002221,0.014573099379269266,1.169095883345177,0.04005693502948826,0.02712151396315784
0.997,0.007,1.672,0.014595816969548507,1.1754064086291351,0.04013928027197616,0.027550870463386057
0.998,0.0023,-0.3280000000004441,0.014604843881062333,1.169095883345177,0.040172000433242656,0.02712151396315784
0.999,-0.0115,-2.328,0.014603177055940142,1.1820300768047471,0.0401659586340384,0.028001532628354035
1.0,-0.0319,1.6719999999997779,0.01456588318271789,1.1779664768096898,0.040030778229952775,0.027725052780212003
1.0010000000000001,-0.02929999999999629,0.672,0.014580552612307476,1.1779664768096898,0.0400839510234518,0.027725052780212003
1.002,-0.0126,0.671999999999778,0.01457812847443728,1.1779664768096898,0.04007516416629434,0.027725052780212003
1.0030000000000001,0.0028999999999987118,-0.328,0.014581419595625037,1.1779664768096898,0.040087093608146745,0.027725052780212003
1.004,-0.0029,-1.327999999999556,0.014462821258779682,1.1738888101110045,0.03965720607667221,0.027447615859501895
1.0050000000000001,-0.011899999999998247,0.672,0.014255418648043895,1.1525731458437798,0.03890542659373696,0.02599733738061198
1.006,-0.004,-1.327999999999334,0.014261696019355277,1.1525731458437798,0.03892818040065348,0.02599733738061198
1.0070000000000001,0.0003000000000033084,1.672,0.014370922063770691,1.1525731458437798,0.03932409585659867,0.02599733738061198
1.008,0.0152,3.67199999999889,0.01437152233037076,1.1484053180548337,0.03932627166389744,0.025713766065627346
1.0090000000000001,0.028899999999995468,-1.328,0.014401216338100075,1.1506692546274198,0.03943390457024238,0.025867800134077273
1.01,0.0085,-0.32800000000022206,0.01439205644046211,1.1464945056829616,0.039400702369529576,0.025583757916438032
1.0110000000000001,0.011000000000001531,-1.328,0.014405318134114739,1.1464945056829616,0.03944877249343809,0.025583757916438032
1.012,0.0179,0.672,0.01453960824237007,1.1442223090610584,0.039935538536494904,0.025429161849468654
1.0130000000000001,0.0022999999999996,0.672,0.01449892914990156,1.1442223090610584,0.039788087610039546,0.025429161849468654
1.014,0.0005,-1.328,0.014312420711600075,1.1419455913242198,0.03911204396327962,0.02527425817417851
1.0150000000000001,0.017099999999996538,-1.328,0.013900090321324382,1.1223433568072727,0.03761745560443375,0.02394055829498714
1.016,0.0015,-0.328,0.01384149144514704,1.128915254375287,0.03740505021244324,0.02438769808330775
1.0170000000000001,-0.01660000000000593,-0.328,0.014115134944316498,1.1289152543752867,0.03839693535595416,0.02438769808330773
1.018,-0.0433,-0.328,0.014207186344044378,1.128915254375287,0.03873059727778528,0.02438769808330775
1.0190000000000001,-0.025199999999996357,-0.328,0.01407026076643773,1.1312181975947069,0.03823427835697443,0.02454438609205846
1.02,-0.0088,-1.327999999999334,0.014140631913354587,1.1354491149113728,0.038489355109649015,0.024832249902137234
1.0210000000000001,-9.999999999338308e-05,1.672,0.01429812301803269,1.1331547703402312,0.03906021861431644,0.02467614692955472
1.022,0.0297,-1.327999999999334,0.014573010721016744,1.1219780633045477,0.040056613666825544,0.023915704398864607
1.0230000000000001,0.009699999999992739,1.672,0.014843450213488638,1.1219780633045477,0.041036885135417575,0.023915704398864607
1.024,-0.023,0.6719999999991119,0.014927622241402263,1.1219780633045477,0.04134198642318839,0.023915704398864607
1.025,-0.0187,-3.328,0.015048976225181521,1.1196561148533175,0.04178186244429559,0.023757723309197662
1.026,-0.0068,0.671999999999778,0.015059117855208136,1.1506692546274198,0.041818623164666856,0.025867800134077273
1.027,0.0112,-0.328,0.015007469842480086,1.1529287456530088,0.04163141281005474,0.02602153173570957
1.028,0.0079,-1.328,0.015046443173478885,1.1551838172175104,0.04177268080336784,0.026174962645361396
1.029,0.0228,-1.328,0.015048249854997232,1.1487622080175761,0.0417792295449332,0.025738048200390228
1.03,0.0093,0.672,0.015043879044442732,1.1487622080175763,0.04176338651534446,0.025738048200390246
1.031,0.0162,1.672,0.015043022347882495,1.1487622080175763,0.041760281217417865,0.025738048200390246
1.032,0.0049,0.672,0.015053836806032124,1.1487622080175761,0.04179948076137302,0.025738048200390228
1.033,-0.0049,-0.328,0.01516605403010932,1.1445805033224241,0.04220623845065136,0.025453532726304025
1.034,0.0005,-0.328,0.015187409743607364,1.1380990675657423,0.042283647250831446,0.025012547792764954
1.035,-0.0074,-0.328,0.015204187286433819,1.1380990675657423,0.042344461395968036,0.025012547792764954
1.036,0.0063,0.672,0.015309917873264595,1.1380990675657423,0.04272770674479029,0.025012547792764954
1.037,0.0302,-1.328,0.015310352514698642,1.1403834647179913,0.04272928220476831,0.025167973961314545
1.038,-0.0126,1.672,0.01535381478582663,1.1472093634671947,0.042886821416063065,0.025632395521484864
1.039,-0.0068,2.672,0.015446054135134153,1.1449385855226504,0.043221164605296264,0.025477895978706165
1.04,-0.0224,1.672,0.015439260031267733,1.1384591883887651,0.04319653777984992,0.025037049749301828
1.041,0.0109,-0.328,0.015442191327935367,1.1426632949431819,0.043207162953203836,0.025323089404571012
1.042,0.0066,-0.328,0.01542462322790477,1.1426632949431819,0.04314348324777341,0.025323089404571012
1.043,-0.0054,-0.328,0.015430153783226179,1.1449385855226504,0.04316353004470197,0.025477895978706165
1.044,-0.0018,-0.328,0.015430881283443509,1.1513815204398623,0.04316616704013457,0.025916261386144505
1.045,-0.0181,-1.328,0.015339603145395656,1.1449385855226528,0.0428353079869073,0.02547789597870633
1.046,0.0087,-1.328,0.015412513404025902,1.147209363467197,0.043099588346442154,0.025632395521485017
1.047,0.0051,-0.328,0.01557733632819641,1.1472093634671956,0.04369702775315547,0.025632395521484927
1.048,0.0019,1.672,0.015579827052986302,1.133878038243272,0.0437060559702451,0.024725356743572336
1.049,-0.0009,0.672,0.015730348436407183,1.1361709222729683,0.044251656082979464,0.024881360343608952
1.05,-0.009,-0.328,0.015719927281015646,1.116467304332376,0.044213882157260576,0.023540762523279763
1.051,0.003,0.672,0.015406591701268455,1.1027644007796105,0.04307812374374841,0.022608442241268324
1.052,-0.0036,-0.328,0.015215433991078229,1.1027644007796107,0.042385227718881265,0.02260844224126834
1.053,-0.0017,0.672,0.015369234634441509,1.1071040626835493,0.04294271427959794,0.0229037048324801
1.054,-0.0107,-0.328,0.015366624222488398,1.1071040626835493,0.04293325222826987,0.0229037048324801
1.055,0.0042,1.672,0.015442284086093192,1.100401910493902,0.04320749917693641,0.022447702759965004
1.056,0.018,0.672,0.015694540421540157,1.1117955403880824,0.04412186152154087,0.023222904321821745
1.057,0.0013,0.672,0.015781729213485224,1.1187958708591301,0.0444378977792026,0.02369919389459797
1.058,0.0125,0.672,0.015814842874089522,1.1388191953333233,0.044557926020693285,0.02506154395775802
1.059,0.0028,0.672,0.01588655721177996,1.0776336495466008,0.04481787148385162,0.020898592282352857
1.06,-0.0063,-0.328,0.015620986973183412,1.0707470483934685,0.04385524976975256,0.02043004064258795
1.061,-0.0276,-0.328,0.015599257054072843,1.0731748229675917,0.04377648457342637,0.02059522194645475
1.062,-0.0128,0.672,0.015560205138312912,1.073174822967592,0.043634931731186447,0.020595221946454766
1.063,-0.0048,-0.328,0.015470738419794903,1.070747048393468,0.043310638593560206,0.020430040642587924
1.064,0.0072,0.672,0.015494938223854159,1.0752159427886694,0.04339835646807615,0.02073409597412914
1.065,0.0006,-1.328,0.015729456883834127,1.091276484040011,0.044248424441246485,0.02182682557636627
1.066,-0.0294,-0.328,0.015765359999948762,1.0844765205512428,0.044378563719496986,0.02136416860347701
1.067,-0.0163,-1.328,0.015986883276479846,1.1315805082283519,0.04518152687265042,0.02456903703927085
1.068,-0.0043,0.672,0.01651624950960706,1.138099067565792,0.04710033913644941,0.02501254779276834
1.069,-0.0151,-1.328,0.015959880889391608,1.140383464718041,0.04508365037759957,0.02516797396131793
1.07,0.0212,-0.328,0.016255838984898605,1.1536396164395224,0.04615642001739061,0.02606989807278579
1.071,0.0509,0.672,0.01687232706650277,1.179705132925825,0.04839102588652567,0.027843347735312152
1.072,0.0462,1.672,0.01688013568923522,1.1797051329258184,0.0484193300739195,0.0278433477353117
1.073,0.0158,0.672,0.016746294736021242,1.1734177259866743,0.04793419209881974,0.027415564164621646
1.074,0.0197,-0.328,0.016720609802418643,1.1626281437551487,0.047841091023406626,0.026681460891534586
1.075,-0.0056,2.672,0.016562678813443067,1.1734177259866814,0.047268633054771116,0.02741556416462213
1.076,-0.0023,0.672,0.016459163178991234,1.134600845088768,0.046893416321154145,0.02477453518808503
1.077,-0.011,0.672,0.016457183686287104,1.1323047817032086,0.04688624118485135,0.02461831527053998
1.078,-0.0084,-0.328,0.01642147291410358,1.1346008450887708,0.0467567991023621,0.024774535188085228
1.079,0.0036,-0.328,0.016444930612641694,1.1414613242246745,0.04684182704109089,0.025241309533981314
1.08,-0.0076,-1.328,0.016290142241746068,1.1372527743281808,0.04628076022990912,0.02495496756191319
1.081,-0.0058,-0.328,0.016392498360002127,1.1372527743281808,0.04665177402469604,0.02495496756191319
1.082,-0.0185,0.672,0.01631192961833744,1.1303667527367167,0.04635973369437164,0.024486455354455164
1.083,-0.0138,-0.328,0.016322948650677,1.1346008450887708,0.04639967476553411,0.024774535188085228
1.084,0.009,0.672,0.016321188164056907,1.1346008450887703,0.04639329346822897,0.024774535188085197
1.085,0.0188,0.672,0.016333778576883205,1.1368922713627487,0.04643893037709389,0.02493043960511167
1.086,0.004,0.672,0.016324028516936748,1.1368922713627487,0.046403588994460704,0.02493043960511167
1.087,-0.0149,1.672,0.01635483555875565,1.1346008450887701,0.04651525635432284,0.02477453518808518
1.088,-0.017,-0.328,0.016239029686103166,1.141461324224674,0.04609549076528473,0.025241309533981283
1.089,0.0033,-0.328,0.01652254574875074,1.1414613242246743,0.04712316133425628,0.0252413095339813
1.09,-0.0046,-1.328,0.016517405260750115,1.1214851740850242,0.04710452842796144,0.023882169125528045
1.091,-0.0025,0.672,0.016430581519877807,1.1300040529395121,0.046789815383665966,0.024461777929272014
1.092,0.0041,0.672,0.01671776703798145,1.1300040529395117,0.04783078675591878,0.024461777929271983
1.093,-0.0018,-1.328,0.016785244842845694,1.1323047817031955,0.048075375910657386,0.02461831527053909
1.094,-0.0036,-0.328,0.016781837385398502,1.1323047817031953,0.04806302478070446,0.024618315270539076
1.095,-0.0184,0.672,0.016781638864025537,1.1323047817031953,0.04806230519335409,0.024618315270539076
1.096,-0.0243,0.672,0.016684235258528704,1.1323047817031904,0.047709242944442856,0.024618315270538742
1.097,-0.0076,-0.328,0.01667167988179803,1.1280620712905414,0.047663733032136744,0.02432964907996226
1.098,0.0218,0.672,0.016967598801284442,1.1414613242246516,0.048736360669238456,0.02524130953397976
1.099,0.0099,0.672,0.016979195783230632,1.1303667527366934,0.04877839665451457,0.024486455354453575
1.1,0.0063,-0.328,0.017133588602259824,1.1498322132676106,0.04933802969503855,0.02581084938392221
1.101,-0.0165,0.672,0.017169482510466946,1.1562478798508966,0.04946813559706527,0.02624735950421809
1.102,-0.0251,-1.328,0.017207074029707465,1.1562478798508953,0.049604394889063236,0.026247359504218
1.103,-0.0008,-0.328,0.017320800304216018,1.1562478798508953,0.050016622486116526,0.026247359504218
1.104,0.0155,-0.328,0.017391320717987525,1.1539948876193042,0.05027224029156961,0.026094070068541968
1.105,0.0304,1.672,0.01736260048103603,1.1562478798508948,0.05016813704615445,0.026247359504217967
1.106,0.017,1.672,0.01737334988958342,1.1430219777603987,0.050207100802545694,0.025347493521845323
1.107,0.0102,2.672,0.017312187033393253,1.1472093634672342,0.04998540166270187,0.025632395521487553
1.108,0.0214,0.672,0.017312868021888708,1.1513815204399018,0.04998787006547261,0.025916261386147194
1.109,-0.0007,-0.328,0.017267528197664944,1.1555386136318004,0.049823525221931855,0.02619910233894924
1.11,0.0022,0.672,0.017267417176404138,1.1555386136318004,0.049823122799292394,0.02619910233894924
1.111,-0.0003,-1.328,0.017256137995607844,1.1555386136318004,0.049782238758937794,0.02619910233894924
1.112,0.0066,-0.328,0.017034918501521945,1.1577886018623182,0.048980376736617565,0.026352187387933285
1.113,-0.009,-1.328,0.016989552600455746,1.1577886018623182,0.048815937371435775,0.026352187387933285
1.114,-0.0271,-2.328,0.0169834726270769,1.1790099781536647,0.04879389907969589,0.02779605068686352
1.115,-0.0202,-0.32800000000066615,0.017013787191928875,1.1790099781536647,0.04890378134110511,0.02779605068686352
1.116,-0.0266,-3.328,0.01714980335432879,1.1856135144348263,0.04939680387287115,0.028245343114867424
1.117,-0.0447,-1.327999999999556,0.016899240757369257,1.1856135144348263,0.04848858088128541,0.028245343114867424
1.118,-0.0081,0.672,0.01683385627121051,1.181562238575225,0.04825157945193007,0.027969701778169303
1.119,0.0398,1.672000000000222,0.016831558214638918,1.1793576067583142,0.048243249606056776,0.02781970269590482
1.12,0.046,2.672,0.016764029818155793,1.1730683371512918,0.04799847707011121,0.027391792392728112
1.121,0.0051,1.6719999999995558,0.0166315924195455,1.1793576067583142,0.04751842660837729,0.02781970269590482
1.122,0.0208,-0.328,0.016095249666619005,1.1771488459878385,0.04557432630973252,0.027669422687255845
1.123,-0.003,0.6720000000002221,0.015417918082658397,1.170497555993136,0.04311917887374243,0.027216881184666836
1.124,0.0013,1.672,0.015377485117972144,1.174586995743401,0.042972620095251005,0.027495119122090413
1.125,-0.0026,-1.327999999999778,0.015325243851350123,1.1768005649122142,0.042783259352540695,0.027645726285292934
1.1260000000000001,-0.006299999999999267,-0.328,0.015357758247071423,1.1464945056830016,0.04290111541769144,0.025583757916440752
1.127,-0.003,0.6720000000002221,0.015425660737269219,1.157434495152753,0.04314724394418305,0.026328094620582727
1.1280000000000001,0.011799999999998223,1.672,0.015386657696723814,1.157434495152753,0.04300586826163932,0.026328094620582727
1.129,0.0038,0.672,0.015365522851652802,1.1596808050397776,0.04292926005095655,0.026480929401860382
1.1300000000000001,0.020499999999995494,0.672,0.015361224811766211,1.1619227722124672,0.042913680795747984,0.026633468712865056
1.131,0.0002,-1.328,0.015344110430330777,1.1555386136318004,0.04285164569994739,0.02619910233894924
1.1320000000000001,-0.007799999999997335,-1.328,0.015416171422726799,1.1555386136318004,0.04311284769451773,0.02619910233894924
1.133,0.0042,-0.32799999999977797,0.015321021994637737,1.1596808050397776,0.04276795624114299,0.026480929401860382
1.1340000000000001,0.006399999999999623,0.672,0.015522298490013738,1.1619227722124672,0.04349753017988936,0.026633468712865056
1.135,0.0047,-0.328,0.015496881122285922,1.1596808050397776,0.043405398959842495,0.026480929401860382
