time_sec,bts_raw,diy_raw,bts_rms,diy_rms,bts_norm_rms,diy_norm_rms
0.0,0.0107,-1.4529999999999965,0.011972275750144975,1.2596020854105763,0.0947684338452734,0.12571162312527742
0.001,-0.0133,-0.453,0.01198948852804409,1.2598698758472981,0.0949595477827438,0.12577420149259871
0.002,-0.0034,-1.453,0.01199165202062642,1.2620427225559765,0.09498356909926345,0.12628196122118726
0.003,-0.0235,-1.453,0.012274057282223087,1.2739845375975793,0.09811912233898039,0.12907257352722842
0.004,-0.0205,0.547,0.012278704184266956,1.276133351780578,0.09817071701776194,0.12957471723667133
0.005,-0.0084,-2.453,0.0123360201879498,1.2823361427610722,0.09880709815322408,0.13102421086738536
0.006,0.0249,-1.453,0.012569654208101154,1.2885090742932146,0.10140114298316756,0.1324667268197706
0.007,0.0199,1.547,0.01310636470535427,1.30817439473809,0.10736025411635744,0.13706219953849277
0.008,0.0068,2.547,0.013116370180498431,1.3084322441552645,0.1074713451768632,0.13712245484760333
0.009000000000000001,0.03419999999999996,1.547,0.013381832680628206,1.3086900427687205,0.11041878247884263,0.1371826982846926
0.01,0.0087,-1.4529999999999863,0.013491634766627398,1.3107819641462155,0.11163791800250776,0.13767154705005788
0.011,-0.0074,0.547,0.013682561284987455,1.3631009515060237,0.11375778028767568,0.14989766254902112
0.012,-0.0101,-3.453,0.013687355032030227,1.365109495053654,0.11381100539044241,0.15036702724121487
0.013000000000000001,-0.02310000000000001,0.547,0.013833830346447206,1.3671150876845217,0.11543732475879279,0.15083570235107938
0.014,-0.0294,1.547,0.013851417140914823,1.3781467379984884,0.11563259141231544,0.15341362363145838
0.015,-0.0047,-0.453,0.01386016013152495,1.3890907817479354,0.1157296650729739,0.15597107265061189
0.016,0.018,-2.453,0.013860790793143892,1.3999492735161183,0.11573666732594631,0.15850852953197977
0.017,-0.0026,0.5469999999999862,0.013862201763224218,1.4001902224037708,0.11575233336482071,0.1585648354560514
0.018000000000000002,-7.632783294297944e-18,-1.453,0.014153711010230002,1.4004311298353571,0.1189889684001901,0.15862113169249953
0.019,-0.0022,-3.453,0.014510455621378912,1.4060857018391686,0.12294991344390216,0.15994251526478387
0.02,-0.0086,0.547,0.014516597169519281,1.4080329294464535,0.12301810321862355,0.1603975513966132
0.021,-0.0027,-0.453,0.014543380221097753,1.4099774678676877,0.12331547616299285,0.16085195910841926
0.022,-0.0044,-1.453,0.01485816342114042,1.4155939076582622,0.12681052252693742,0.1621644317887542
0.023,-0.0121,-0.453,0.014970706599170457,1.4158321941162386,0.12806009246938457,0.16222011554534188
0.024,0.0045,-1.453,0.015389967482296284,1.4177660354885842,0.13271515736774797,0.16267202352690066
0.025,-0.0109,-0.4529999999999931,0.015640422237289592,1.4644028299486525,0.1354959632705196,0.17357030088936018
0.026000000000000002,0.0028000000000000433,0.5470000000000069,0.015657088226621336,1.4404393671297724,0.13568100619977236,0.1679704206362533
0.027,0.0153,1.547,0.015657421913669308,1.4404393671297722,0.13568471113606995,0.16797042063625325
0.028,0.004,0.547,0.01567184554551839,1.44404137488952,0.13584485710968663,0.1688121525794955
0.029,0.0115,0.547,0.015672685112504327,1.4440413748895202,0.13585417884458573,0.16881215257949556
0.03,0.0024,0.547,0.015685031663980747,1.4440413748895202,0.1359912629387784,0.16881215257949556
0.031,-0.0162,-0.453,0.01568609011179766,1.4387704929504974,0.13600301491344993,0.16758043127486272
0.032,-0.0185,-0.453,0.01612630289828697,1.450949858676314,0.1408907093602083,0.17042655539886173
0.033,-0.0204,-3.4529999999999927,0.0166623037644643,1.4868894967065345,0.14684194144041557,0.17882507738336703
0.034,-0.0312,-2.453,0.01753165955155414,1.4868894967065345,0.1564944222025105,0.17882507738336703
0.035,-0.0009,-1.453,0.017630285186407843,1.4903792461758882,0.1575894652875304,0.17964057634899766
0.036000000000000004,0.020599999999999754,1.547,0.017635830449921765,1.4668402160587928,0.15765103449795467,0.17413987927001967
0.037,-0.015,1.547,0.017720697141376262,1.4652014129310702,0.1585933116631523,0.17375691703526147
0.038,0.0375,0.547,0.017769215868675668,1.4852728154867747,0.1591320164015501,0.17844728468677193
0.039,0.0164,0.547,0.018235592141914562,1.478260968974293,0.16431020474766478,0.1768087276418307
0.04,0.0101,2.547,0.018861278055972906,1.478260968974293,0.17125721233448818,0.1768087276418307
0.041,-0.0072,-1.453,0.018905873129671735,1.511964065850776,0.17175235264108588,0.1846846055186486
0.042,-0.0437,-2.453,0.01900088423781735,1.510374224300656,0.17280726353853423,0.18431308482611028
0.043000000000000003,-0.00019999999999979808,-0.453,0.019001539302288775,1.510374224300656,0.17281453673703623,0.18431308482611028
0.044,0.0289,-0.453,0.019012921089044295,1.5087827074962141,0.17294090902250026,0.18394117265327273
0.045,0.0236,0.5470000000000278,0.019013752220787116,1.4989380175494926,0.17295013710066745,0.18164062513861343
0.046,0.0093,2.5469999999999584,0.019015560303544957,1.4973343452492505,0.17297021229231568,0.18126587241967393
0.047,0.005,-0.453,0.019015989613706288,1.4874138843908238,0.1729749789346211,0.1789476184476706
0.048,0.001,-0.453,0.019017532233984138,1.4957289535443246,0.172992106689191,0.18089071790319758
0.049,-0.0098,1.547,0.019017691283566077,1.4941218368923597,0.17299387262099092,0.18051516029402404
0.05,-0.0064,-0.453,0.01908057126685937,1.4957289535443248,0.17369203077220208,0.18089071790319763
0.051000000000000004,0.0023000000000001656,0.547,0.019093474456376713,1.5074481959518873,0.17383529523358301,0.18362931852346262
0.052000000000000005,0.02619999999999984,1.547,0.019047099569994046,1.5124797600253692,0.17332039361873153,0.18480511504795882
0.053,0.0034,0.547,0.019046352890723876,1.5240702035976548,0.173312103218647,0.18751361742825984
0.054,0.0119,-1.453,0.018996027454124865,1.5287920402954749,0.1727533385381448,0.1886170355895819
0.055,-0.0241,-1.453,0.01888912988742712,1.5321863543598078,0.17156645197065698,0.1894102328184367
0.056,-0.0371,-2.453,0.018874328143727335,1.520657773293715,0.17140210781095927,0.18671618672224852
0.057,-0.0051,-0.453,0.01872727756895391,1.5253901731869144,0.16976940131134885,0.18782207333438092
0.058,-0.0265,-0.453,0.018622280264919768,1.5253901731869144,0.16860361341149027,0.18782207333438092
0.059000000000000004,0.017200000000000038,0.547,0.018625138279070315,1.5058535866698324,0.16863534601972227,0.1832566836877758
0.06,0.0228,3.5469999999999584,0.018315905802569515,1.4975947333955861,0.16520192948903956,0.18132672098942484
0.061,-0.0036,0.547,0.01832115118363294,1.4975947333955864,0.16526016909652413,0.1813267209894249
0.062,0.0201,0.547,0.018342336338896405,1.495989621121081,0.16549538844705852,0.18095163177139503
0.063,0.007,1.547,0.0183214232209156,1.4774268122293561,0.16526318953381397,0.1766137984732346
0.064,-0.0049,1.547,0.01818524114634071,1.4809388601525029,0.16375115628517528,0.17743450823298182
0.065,-0.0013,1.547,0.017950615557966006,1.4725402773838117,0.1611461020464922,0.17547189297341162
0.066,0.002,-0.453,0.01794603791911391,1.4741709220812202,0.16109527639879787,0.17585294871272059
0.067,0.0286,-0.453,0.017860070196060025,1.4671060164414156,0.1601407744500428,0.1742019925933389
0.068,0.032,-1.453,0.01787706339281044,1.4654675105529968,0.16032945037209417,0.17381909981868005
0.069,-0.0042,0.547,0.017917815697952588,1.4654675105529964,0.16078192431571672,0.17381909981867993
0.07,-0.0088,0.547,0.01821021299595921,1.4289892027104338,0.1640284194053109,0.16529469926362417
0.07100000000000001,-0.030399999999999833,-1.453,0.01863255447093744,1.437642229643802,0.16871768819813587,0.16731677407893816
0.07200000000000001,-0.01829999999999925,-0.453,0.01871806732653735,1.4393124120382634,0.16966713974127562,0.1677070691494178
0.073,0.0357,0.547,0.01871467992461365,1.444311371008346,0.1696295293263137,0.1688752463796552
0.074,0.0279,3.547,0.01867538253817265,1.4459738501840929,0.16919320938428845,0.1692637413303988
0.075,-0.0072,0.547,0.018800620511657283,1.4509498586763134,0.1705837299832147,0.17042655539886156
0.076,-0.001,-0.4530000000000139,0.019124737772076857,1.4682116381531687,0.1741824126713873,0.17446035880851607
0.077,-0.0067,-1.4529999999999863,0.01926320707826932,1.4717456765433383,0.17571984111439282,0.17528620739076856
0.078,-0.0016,-0.45299999999998614,0.01951749603200681,1.4632943304174342,0.1785432182292802,0.17331126217352996
0.079,-0.0062,0.547,0.019513824888455822,1.4632943304174344,0.17850245742337426,0.17331126217353002
0.08,-0.0018,-0.453,0.01992930921674161,1.4632943304174344,0.183115591131445,0.17331126217353002
0.081,-0.0374,-2.453,0.02025183677030701,1.4632943304174344,0.18669662326152023,0.17331126217353002
0.082,-0.0419,-3.453,0.020289352645747882,1.4733772006571195,0.18711316303884012,0.17566746863570154
0.083,-0.0545,-1.453,0.020264594241526736,1.4733772006571195,0.18683826980871077,0.17566746863570154
0.084,-0.0186,-1.453,0.020170719524212524,1.4545258383433453,0.18579597628932698,0.17126220499067038
0.085,-0.0044,0.547,0.020008041303094012,1.437099680743411,0.18398975561066255,0.16718998902718635
0.08600000000000001,-0.01729999999999994,-0.453,0.020324221481127155,1.4370996807434113,0.18750031265893036,0.1671899890271864
0.08700000000000001,-0.01309999999999925,2.547,0.02025976491410496,1.428443367236032,0.1867846496560359,0.16516714619178097
0.088,0.041,1.547,0.020253678690291686,1.428443367236032,0.18671707414881106,0.16516714619178097
0.089,0.0482,-0.453,0.019906776522063373,1.426760461468011,0.18286541001442738,0.16477387787119605
0.09,0.013,-3.453,0.019849045139025887,1.4354269237410218,0.1822244169107824,0.16679909231176898
0.091,0.019,-0.453,0.0198787815592007,1.4109714296952331,0.18255458118636833,0.16108423218399615
0.092,0.0016,0.5469999999999862,0.019968881734391868,1.4072847804906488,0.18355496586271056,0.16022272088085432
0.093,0.0066,-0.453,0.01954572931621568,1.3998823555461435,0.17885669314567681,0.15849289186636056
0.094,0.0018,-0.453,0.019894287162332155,1.4104186213156087,0.18272674031632827,0.16095504965506832
0.095,-0.0026,-0.453,0.01995627431292682,1.4157950587431858,0.18341498532199504,0.16221143759909423
0.096,0.0013,-0.453,0.02003015717138563,1.4245282332596365,0.18423530869306218,0.16425224163026614
0.097,-0.0024,1.547,0.02001882076478809,1.408714182636641,0.1841094402647167,0.16055674943555817
0.098,0.0008,-0.453,0.02002992746244587,1.4140971004034402,0.1842327582285057,0.16181465173182596
0.099,0.0155,0.547,0.020037299772505245,1.4140971004034402,0.18431461318602377,0.16181465173182596
0.1,0.0128,-2.453,0.02005049746315461,1.4089909483005243,0.18446114750142012,0.16062142517076525
0.101,0.0008,-1.453,0.020370290186573593,1.4194596050529982,0.18801181473858514,0.16306778380715337
0.10200000000000001,0.0029999999999996948,-2.453,0.021206910632102026,1.4177660354885824,0.19730083412001817,0.16267202352690024
0.10300000000000001,-0.01899999999999979,1.547,0.021286956510177316,1.4443113710083448,0.1981895856641853,0.16887524637965495
0.10400000000000001,-0.003999999999999891,-1.453,0.02128435485367988,1.4787884163920135,0.19816069940189313,0.17693198371718882
0.105,0.0039,-1.453,0.021366597415888356,1.4736418219660437,0.1990738407892647,0.1757293064282441
0.106,-0.0081,1.547,0.02149859797955802,1.5151387442767106,0.20053944660949197,0.18542647739091192
0.107,-0.0017,1.547,0.021287363508913953,1.5000201769926336,0.19819410458214032,0.18189350859465483
0.108,-0.0075,-1.453,0.021308982523396955,1.5016209809326766,0.19843414108329616,0.18226759102342133
0.109,0.0051,0.547,0.021226898383576345,1.5016209809326766,0.19752275866397184,0.18226759102342133
0.11,-0.0097,-1.453,0.021226091477655275,1.5016209809326766,0.19751379956575726,0.18226759102342133
0.111,-0.0115,-0.453,0.021114547379175997,1.464669072655258,0.1962753224305206,0.17363251757676146
0.112,0.0051,-2.453,0.021112829697937287,1.4630278375344101,0.19625625096937857,0.1732489870238774
0.113,-0.0061,-1.453,0.02123332820601454,1.4613847591953362,0.19759414915600057,0.17286502574020018
0.114,-0.0042,0.547,0.021227112972437973,1.4613847591953362,0.1975251412498928,0.17286502574020018
0.115,-0.0024,0.5470000000000278,0.02136556643536166,1.4613847591953362,0.1990623937846576,0.17286502574020018
0.116,-0.0039,1.5469999999999444,0.021393570036856616,1.4528731449841756,0.19937331852768403,0.17087599682967108
0.117,-0.0082,-0.45300000000002777,0.021672610482833983,1.454525838343345,0.20247151212878625,0.17126220499067035
0.11800000000000001,0.012100000000000284,-1.4529999999999723,0.021696301875357937,1.456176655972967,0.20273455829925024,0.17164797482349756
0.11900000000000001,0.03260000000000011,-0.453,0.021617757273680472,1.4611179180262,0.20186247546743746,0.17280266920162077
0.12,0.0404,1.547,0.021656869034428747,1.4847476716134698,0.2022967344023876,0.17832456691311846
0.121,0.0181,0.547,0.022489805027248254,1.5080072036784251,0.21154484520597497,0.18375994974119744
0.122,-0.0026,1.547,0.02234541794438072,1.5275162461705043,0.20994171152886532,0.1883189027870963
0.123,-0.0001,0.547,0.022296239002462786,1.5371779208338998,0.20939567640974327,0.19057668253989832
0.124,-0.0221,1.547,0.02201421741184598,1.53561418374116,0.20626438307926842,0.19021126204400135
0.125,-0.0367,-2.453,0.0220250701761974,1.53561418374116,0.206384881614705,0.19021126204400135
0.126,-0.0232,-1.453,0.022013865219386034,1.5436696409203723,0.20626047267688236,0.19209369430884404
0.127,-0.0349,0.547,0.022038285741454326,1.545225226072702,0.20653161439235143,0.19245720982587916
0.128,-0.0012,0.547,0.022028063551136554,1.5498826137059662,0.20641811713742536,0.19354556726552402
0.129,0.0421,0.547,0.02205050759897828,1.5737062093175593,0.2066673140062252,0.19911276277611004
0.13,0.0361,0.547,0.022042157530694488,1.5956695495086208,0.20657460297275837,0.20424524617209452
0.131,0.0204,1.547,0.02204174317111215,1.6188194550985757,0.2065700023271349,0.20965501103597473
0.132,0.0156,-0.453,0.02184552431971164,1.6262231160473208,0.20439137912541455,0.21138512888500743
0.133,-0.0061,-2.453,0.021772302486383052,1.6365319722242118,0.2035783951342049,0.213794144667635
0.134,-0.0179,-0.453,0.021220740473047315,1.673995845596122,0.19745438721720762,0.22254885621687598
0.135,-0.0357,-1.453,0.021153340815675912,1.6915916312874928,0.19670604700275177,0.22666071156832276
0.136,-0.0127,0.547,0.021156457767514382,1.730866073391724,0.19674065460311976,0.23583852424312518
0.137,0.0142,1.547,0.021089071850116436,1.7522307156864618,0.19599246694395994,0.24083110145975073
0.138,0.0034,-0.453,0.02104879854351902,1.7522307156864618,0.1955453113341045,0.24083110145975073
0.139,-0.0062,1.547,0.020811364585977713,1.7649695521417053,0.19290907569678575,0.24380796499789817
0.14,-0.0148,0.547,0.020577365260826225,1.7859262686247426,0.19031097487556867,0.24870521643815577
0.14100000000000001,0.020299999999999867,0.547,0.021203742063470178,1.7645276512213979,0.1972656534170005,0.24370469977883685
0.14200000000000002,0.0155000000000006,1.547,0.021567615968807446,1.7728981668187562,0.20130575520645735,0.24566075618672126
0.14300000000000002,0.03709999999999988,1.547,0.021569379863133235,1.7758259576672775,0.20132533977275216,0.2463449343575382
0.14400000000000002,0.032899999999999895,-1.453,0.021717025041527734,1.7899574726625491,0.20296464817241167,0.24964724472756358
0.145,0.0292,1.547,0.021938174365493026,1.8039782914314955,0.20542007508372376,0.25292368714951413
0.146,0.0064,1.5469999999999167,0.02239385481070682,1.833009154090479,0.21047950736266763,0.259707738176005
0.147,-0.0083,-1.4529999999999723,0.023130461225457075,1.833009154090479,0.2186580682616679,0.259707738176005
0.148,-0.0055,-0.45300000000002777,0.023747165601285026,1.8290728367134232,0.22550535358716822,0.25878788339056186
0.149,-0.0122,-1.4529999999999168,0.023787814222172243,1.8332218640990208,0.22595667632171051,0.25975744512301324
0.15,-0.0365,1.547,0.023975120834020265,1.8319108504560166,0.2280363466871985,0.25945108207913675
0.151,-0.059,-0.453,0.02450517024458166,1.8222794525019175,0.2339214995951125,0.257200377511912
0.152,-0.032,-3.453,0.024936342895265848,1.826230412622485,0.23870882117009443,0.25812365407370125
0.153,0.0006,-3.453,0.025678879438554743,1.8503912434781193,0.2469532244462733,0.2637696560989396
0.154,0.0222,-0.453,0.026037464935235587,1.8624588030162443,0.2509346088917195,0.2665896528945403
0.155,0.0339,3.547,0.02625514609424954,1.8596674086828282,0.25335152867399446,0.2659373484206637
0.156,0.0218,0.547,0.026252985990835136,1.8635391028614638,0.25332754498749777,0.2668421017921142
0.157,0.0109,0.547,0.02624877343740616,1.8555775138509591,0.2532807728931075,0.2649816050258392
0.158,-0.0188,-0.453,0.026270922987796732,1.8475816171213935,0.2535266999487607,0.26311309109109604
0.159,0.0171,0.547,0.026269273458625845,1.8434649090549853,0.2535083851818667,0.2621510818696774
0.16,-0.0068,1.547,0.026383290200604457,1.8501805073855107,0.2547743161445964,0.2637204104247006
0.161,-0.0024,-0.453,0.026517056133675054,1.8473705605247983,0.2562595229089176,0.26306377052017127
0.162,-0.0302,-0.453,0.026495627968579707,1.8473705605247983,0.25602160541366265,0.26306377052017127
0.163,-0.0047,1.547,0.026548355730464265,1.8336815606528063,0.25660704317663274,0.25986486889867627
0.164,0.0248,1.547,0.026562144999233046,1.8581652208277128,0.2567601457998517,0.2655863110029959
0.165,-0.011,0.547,0.02656780846438699,1.8568718181127908,0.25682302740627455,0.26528406335300686
0.166,-0.0347,0.547,0.026569311699869685,1.8568718181127908,0.2568397178704011,0.26528406335300686
0.167,-0.0303,0.547,0.02659544323468784,1.8501805073855098,0.25712985700660057,0.26372041042470046
0.168,-0.0261,1.547,0.02658291017151876,1.8501805073855095,0.25699070206805164,0.2637204104247004
0.169,0.0137,2.547,0.026562061493557224,1.8744486741239141,0.2567592186340798,0.2693914951391527
0.17,0.0613,2.547,0.026538786544441376,1.8784974828124468,0.25650079624601296,0.2703376373555296
0.171,0.0167,2.547,0.026229950378723534,1.874656682157054,0.2530717799646472,0.26944010330926865
0.17200000000000001,0.010799999999999567,1.547,0.026191442545555783,1.8867757044703246,0.25264422645391954,0.2722721261371872
0.17300000000000001,-0.004800000000000663,-0.453,0.02628302090955388,1.8867757044703246,0.2536610235004714,0.2722721261371872
0.17400000000000002,-0.028699999999999157,3.547,0.02631167951070281,1.893337687252776,0.2539792207223299,0.27380555718103977
0.17500000000000002,0.001699999999999664,1.547,0.026828368904837543,1.8933376872527758,0.2597160370073622,0.2738055571810397
0.176,-0.0104,0.547,0.026576093780267058,1.881260937495991,0.25691501949205564,0.27098341277745835
0.177,0.0004,1.547,0.02648880552433521,1.8784974828124466,0.2559458556311243,0.27033763735552957
0.178,0.0101,2.547,0.026424154920394738,1.8784974828124466,0.25522803823109047,0.27033763735552957
0.179,0.0014,2.547,0.026424853985746812,1.8850882822629023,0.2552357999725576,0.2718778023965234
0.18,-0.0012,2.547,0.026089933390578215,1.8878420892491237,0.25151716756715764,0.2725213233049816
0.181,-0.0232,2.5470000000000277,0.025853005553908792,1.8944003782022156,0.2488865514035362,0.27405389115964296
0.182,-0.0379,3.547,0.02577497653164075,1.8878420892491237,0.24802019306381823,0.2725213233049816
0.183,-0.0245,3.547,0.025728045051057476,1.9011411509817187,0.24749911156853868,0.2756291025831305
0.184,-0.0078,2.547,0.02579026927606237,1.891862234664114,0.24818998881777926,0.2734607673700641
0.185,-0.0057,3.547,0.025991506905976503,1.919564429231718,0.2504243356527593,0.2799343297887905
0.186,-0.0039,2.547,0.026165383977039956,1.919564429231718,0.25235489746454365,0.2799343297887905
0.187,0.0016,2.547,0.02626366935529137,1.922268846958533,0.25344616267132714,0.2805663092125911
0.188,0.0262,2.547,0.0262658590242089,1.9185156770302096,0.25347047462440286,0.2796892530739594
0.189,0.0368,2.547,0.026629339294233768,1.9197675489503634,0.25750620587036455,0.279981795637531
0.19,0.0528,1.547,0.026905895792260742,1.9481061367356984,0.2605768201303486,0.2866040730328916
0.191,0.0438,1.547,0.026871249981617086,1.9658910442778081,0.2601921467599158,0.29076012315390853
0.192,0.0032,-1.453,0.02681395276935215,1.9646685621191908,0.2595559742660738,0.2904744485103248
0.193,-0.0261,-2.453,0.026786532349794844,1.9699498478414834,0.25925152460783724,0.29170860101369256
0.194,-0.0311,-2.453,0.026535286331704242,1.9624200174851154,0.2564619332895455,0.28994899938013197
0.195,-0.045,-3.453,0.026333672469454873,1.9597710077992998,0.25422340913679536,0.2893299679345514
0.196,-0.0579,-0.453,0.02635188029023176,1.952201917073713,0.25442557106218716,0.2875611917769256
0.197,-0.0538,-1.453,0.026344724210948217,1.952201917073714,0.2543461169208078,0.2875611917769258
0.198,-0.0139,-1.453,0.02633869237958517,1.9483062808548572,0.2542791453344255,0.2866508435313427
0.199,0.0337,-0.453,0.02639518733759535,1.9495390232079701,0.2549064103776296,0.28693891581924785
0.2,0.0523,-1.453,0.02637691700179472,1.9468724870918208,0.2547035543462423,0.2863157887255602
0.201,0.0462,1.547,0.02622993333939439,1.9431668389560603,0.2530715907765159,0.2854498376742765
0.202,0.0614,3.547,0.02555916011915243,1.944402839694154,0.24562397761253418,0.28573867139494485
0.203,0.0471,2.547,0.02537000271939431,1.9183124247576293,0.24352375789894015,0.27964175624947185
0.20400000000000001,0.033999999999999,0.547,0.025374249078670485,1.8984066355605962,0.24357090534056405,0.27499008980670925
0.20500000000000002,-0.0019000000000001305,1.547,0.025373763995312427,1.9024044561943974,0.24356551944695043,0.2759243169253813
0.20600000000000002,-0.00660000000000012,-0.453,0.02527881968496034,1.8935436203063531,0.24251135020720602,0.2738536804614231
0.20700000000000002,-0.010899999999999889,-0.453,0.02520283181714608,1.9199706471803337,0.24166765486046535,0.2800292564647098
0.20800000000000002,-0.006900000000000502,-0.453,0.02524811554912396,1.9199706471803335,0.2421704413585176,0.2800292564647097
0.209,-0.025,1.5469999999999722,0.025227524766581872,1.9239236593591416,0.24194182134434677,0.280953012559883
0.21,-0.0283,0.5469999999999723,0.02533872288522412,1.9499389967568352,0.24317645705611726,0.2870323832782284
0.211,0.0044,-0.453,0.02534027956112608,1.942331591950419,0.24319374087066087,0.28525465372908837
0.212,0.0175,-0.4530000000000833,0.02556458761141519,1.9778453349686982,0.24568423920557894,0.29355365082083124
0.213,-0.0105,-3.452999999999917,0.025552450912977785,1.9790596777383054,0.245549485115341,0.29383742341861574
0.214,-0.0069,-0.453,0.025895537550641112,1.9903472679514616,0.24935878531090624,0.29647515378411265
0.215,-0.0037,0.547,0.026057914560981613,1.9841061483826024,0.25116166163817477,0.29501670337170405
0.216,-0.0124,0.547,0.026085084275986808,1.9867227109149486,0.2514633277170044,0.29562815243341317
0.217,0.001,-0.453,0.02586264196635323,1.9929556365000813,0.2489935447509284,0.2970846880421053
0.218,-0.0059,-3.453,0.02568427919934825,1.9929556365000813,0.24701317813606666,0.2970846880421053
0.219,-0.0306,-1.453,0.025557958112984887,1.9867227109149486,0.24561063170562195,0.29562815243341317
0.22,-0.0008,-1.453,0.025629094183289812,1.969125961456209,0.24640045741369923,0.29151607186485573
0.221,0.0112,-2.453,0.024887470611353515,1.954030935300676,0.2381661908830832,0.2879886042560466
0.222,0.0221,1.547,0.024843222218376437,1.9348958057568448,0.23767489978189366,0.2835170287211152
0.223,0.0123,1.547,0.02482192398964193,1.9284752371091594,0.23743842497355921,0.28201664391214
0.224,0.0569,1.547,0.024827457229107827,1.9284752371091594,0.2374998606806538,0.28201664391214
0.225,-0.0011,0.547,0.024726523781842136,1.8960462929955642,0.23637919389215134,0.27443851527758584
0.226,-0.0087,0.547,0.024963032138243236,1.8922411125978678,0.23900515255503463,0.27354930511920333
0.227,-0.0296,0.547,0.02507355322835941,1.894984525061145,0.2402322712008117,0.2741903969929174
0.228,0.0023,1.547,0.02518083313232952,1.8911772083135439,0.24142340286935127,0.2733006876035291
0.229,-0.0034,-1.453,0.02524832816870473,1.8713995073922631,0.24217280207946007,0.26867895335426717
0.23,-0.0084,1.547,0.025744559545667737,1.8514105431511945,0.247682472447811,0.2640078502261571
0.231,-0.0035,0.547,0.02592339715557463,1.831203397308665,0.2496681112562255,0.25928576152676935
0.232,0.001,-2.453,0.02589287500712204,1.8149616321966668,0.2493292230183699,0.25549031925643856
0.233,-0.0189,-1.453,0.025785029391131836,1.7970199462871266,0.2481318102340065,0.25129763252365456
0.234,-0.0369,-3.453,0.026472928884370316,1.7592230018895225,0.25576957686919094,0.24246508757137988
0.23500000000000001,-0.04669999999999942,-1.453,0.026856131594271526,1.7379443182681598,0.26002428689727497,0.23749259753002003
0.23600000000000002,-0.02599999999999887,-1.453,0.02714602363496046,1.7061185115390358,0.26324296604727093,0.23005541251261918
0.23700000000000002,0.014600000000000815,-1.453,0.027176136822719087,1.6929368967637197,0.2635773135835064,0.22697507872103553
0.23800000000000002,0.04399999999999986,0.547,0.027175835284034836,1.672251553576665,0.26357396559135865,0.2221412429053427
0.23900000000000002,0.03899999999999908,3.547,0.027085780119699917,1.6588008377883612,0.26257408067176785,0.21899802448560196
0.24,0.0058,2.547,0.02685363808600203,1.6452401588993528,0.25999660140767583,0.21582910943758762
0.241,0.0102,-0.453,0.026330033007993536,1.637684383958938,0.25418300009798567,0.2140634449672418
0.242,-0.0096,-2.453,0.026413060180903798,1.6286190664113456,0.25510485303915054,0.2119450243906084
0.243,-0.0059,-0.453,0.026554161415340824,1.623947382913241,0.2566715038524734,0.2108533262346478
0.244,0.0039,0.547,0.026639663384446555,1.6239473829132411,0.25762083452257456,0.21085332623464786
0.245,0.0308,-0.453,0.02650754400980565,1.6130747476366265,0.2561539095409277,0.20831256424023453
0.246,-0.0017,1.547,0.026457536437899828,1.6033840386557972,0.255598674120691,0.20604799962908005
0.247,-0.0061,-0.453,0.026625792751798723,1.6717851448009649,0.25746682851401104,0.22203225059013934
0.248,-0.0181,0.547,0.02624788003607895,1.7084761529907844,0.25327085343406464,0.23060635583451466
0.249,0.0073,0.547,0.02631856295200211,1.7084761529907844,0.2540556477568136,0.23060635583451466
0.25,0.0237,-1.453,0.026109747796247914,1.70988181004723,0.25173716744796515,0.23093483553932712
0.251,-0.0031,0.547,0.02558126030347072,1.706840907148289,0.24586935655535475,0.23022422488075495
0.252,0.0079,0.547,0.025206758069200367,1.7068409071482893,0.24171124814296713,0.23022422488075497
0.253,0.0047,1.547,0.024448957033167445,1.6670005294954737,0.23329736279196583,0.22091416206635456
0.254,-0.0221,-1.453,0.023999119083131293,1.6491423860204988,0.22830279989462876,0.21674099787224352
0.255,-0.0258,-3.453,0.023762267485205674,1.6522894817146847,0.22567303021183696,0.21747642409864953
0.256,-0.0095,-3.452999999999778,0.02377571145515168,1.6433047354038077,0.22582229897290937,0.2153768317389921
0.257,-0.0186,0.546999999999889,0.023775866879264328,1.6433047354038077,0.2258240246510259,0.2153768317389921
0.258,-0.0158,-1.453000000000111,0.02376056237097164,1.647921543766079,0.22565409828248698,0.21645570644819703
0.259,-0.0292,-3.4529999999998333,0.0238257351600845,1.6568812547653435,0.2263777135185801,0.21854944845358015
0.26,0.0074,-0.45299999999977797,0.023829969232941572,1.656881254765344,0.22642472454376117,0.21854944845358024
0.261,0.0339,3.5469999999998336,0.02381829106656907,1.656881254765344,0.22629506154741255,0.21854944845358024
0.262,0.0292,0.5470000000001111,0.023816584778837725,1.6583306459765441,0.22627611658869023,0.21888814813500657
0.263,0.0423,2.547,0.02389949187173913,1.659778771516609,0.22719663627827658,0.21922655204921215
0.264,0.0382,0.547,0.023894901610700837,1.6597787715166106,0.2271456704861083,0.21922655204921254
0.265,-0.0162,-1.453,0.02411481512199496,1.6643498825021703,0.22958737613598615,0.2202947480080465
0.266,0.0071,1.547,0.02440368969060964,1.6629057376751053,0.23279475826608695,0.21995727432317755
0.267,0.0002,0.547,0.024436401645180857,1.6614603375947874,0.2331579599803657,0.2196195073055813
0.268,-0.0059,0.547,0.02447697968424164,1.6660268348404186,0.23360849904298456,0.22068662510675024
0.269,0.0235,0.547,0.024485552946361098,1.6340319860348473,0.2337036882036313,0.2132099376437723
0.27,-0.0029,-1.453,0.02430102708665165,1.634031986034847,0.23165489260417163,0.21320993764377222
0.271,-0.0076,-0.453,0.024428350852331346,1.6293758223249748,0.2330685718101211,0.2121218662155643
0.272,-0.0032,0.547,0.02443068978168706,1.613838792556924,0.2330945410058695,0.20849110939015708
0.273,-0.0071,-0.453,0.02448315937110879,1.613838792556925,0.23367711227301852,0.20849110939015733
0.274,-0.018,-1.453,0.024799977083396728,1.6474482469400913,0.23719474788132008,0.2163451045051582
0.275,-0.0343,-1.453,0.024219004763022946,1.6384369528186238,0.230744196531694,0.21423930834426336
0.276,-0.0257,-1.453,0.02423269787539981,1.6369699476072783,0.23089623152789887,0.21389649255105728
0.277,-0.0232,-1.453,0.02435962779264969,1.64452900502289,0.23230553782410482,0.21566292408366677
0.278,-0.021,-0.453,0.024181413723679088,1.6476849123473742,0.2303268222075311,0.21640040944797276
0.279,-0.0503,-0.453,0.024180420967758912,1.6401403999002564,0.23031579961176163,0.2146373768432422
0.28,-0.0304,-0.453,0.024212269945349797,1.6369699476072783,0.23066941966934185,0.21389649255105728
0.281,-0.0195,-1.453,0.024244547316762823,1.6505985727491639,0.23102779619508876,0.21708128555805592
0.28200000000000003,0.02970000000000195,2.547,0.024646637654254955,1.6505985727491639,0.23549221606196424,0.21708128555805592
0.28300000000000003,0.06479999999999894,0.547,0.024862131103287805,1.644291885381176,0.23788484564128756,0.2156075129934878
0.28400000000000003,0.04589999999999968,-0.453,0.025171860263394248,1.6411294532469964,0.2413237768634459,0.21486850288489737
0.28500000000000003,0.03999999999999852,1.547,0.02513171309379972,1.631605380068353,0.24087802175613712,0.2126428784112837
0.28600000000000003,0.013399999999999206,1.547,0.024825704004797205,1.6269422716434028,0.23748039458382528,0.21155318411357973
0.28700000000000003,-0.0009000000000007271,0.547,0.024698523467960018,1.622265759440295,0.23606830565157896,0.210460357566034
0.28800000000000003,-0.013999999999999778,1.547,0.024702410853381845,1.622265759440295,0.23611146739681177,0.210460357566034
0.289,-0.01,1.547,0.024339001965699703,1.620784117413604,0.23207652871092746,0.2101141213818001
0.29,0.0009,0.547,0.024028756841721968,1.5772510894880973,0.22863186872798383,0.19994114491005546
0.291,-0.0485,-0.453,0.024047543829190304,1.5550276271844778,0.22884046115677856,0.19474787511218408
0.292,-0.0275,-0.453,0.02428863754241762,1.5711463468826141,0.23151733116023113,0.19851456362565895
0.293,-0.0337,-2.453,0.024345574116332955,1.5886144290954878,0.23214949947674637,0.20259657670460554
0.294,-0.0163,-1.453,0.024391709883226035,1.5933897091854778,0.23266174614145274,0.2037124837369532
0.295,0.042,2.547,0.02440181752103737,1.5933897091854778,0.23277397151680881,0.2037124837369532
0.296,0.0652,4.547,0.024289604141191856,1.5948968005267246,0.23152806333250345,0.20406466702136677
0.297,0.03,3.547,0.024328039019065405,1.5871013721051914,0.231954806818631,0.20224299934286005
0.298,0.0238,-1.453,0.024337645419242205,1.5886144290954878,0.23206146693900584,0.20259657670460554
0.299,0.0063,0.547,0.0244669791530523,1.5886144290954878,0.2334974628753426,0.20259657670460554
0.3,0.0011,0.547,0.024481229145889957,1.596402469091859,0.23365568093033007,0.2044165178256244
0.301,0.0152,1.547,0.024376573197344657,1.593144978119376,0.23249368310967497,0.2036552939779128
0.302,0.0021,0.547,0.024485895857217155,1.6009109782555644,0.23370749555211895,0.2054700847340302
0.303,0.0061,-1.453,0.024487707900128792,1.6009109782555644,0.23372761471346165,0.2054700847340302
0.304,-0.0048,-1.453,0.024507590037696064,1.591636228010278,0.23394836662335558,0.203302723065826
0.305,-0.0082,-0.453,0.024410854704909158,1.591636228010278,0.23287431161318978,0.203302723065826
0.306,0.0067,-0.453,0.024406193449490063,1.5675876617515823,0.2328225575684958,0.19768295549193843
0.307,-0.0068,-1.453,0.024393539276988462,1.543164369805373,0.23268205794975994,0.1919756204828392
0.308,-0.0189,1.547,0.024323003402350794,1.5431643698053736,0.23189889623037144,0.19197562048283937
0.309,-0.0254,1.547,0.024279206838213063,1.5431643698053727,0.23141262179697697,0.19197562048283914
0.31,-0.0273,0.547,0.024206777219964556,1.5135938524654584,0.23060843379117799,0.18506546073766758
0.311,-0.0033,0.547,0.024393595981828622,1.5186050543933494,0.23268268754513033,0.18623649895248762
0.312,0.0265,0.547,0.024187599369036666,1.48907054140354,0.23039550159484506,0.1793347528514835
0.313,-0.0094,-3.453,0.02413083505785808,1.4890705414035394,0.22976524591614414,0.1793347528514834
0.314,-0.0332,-1.453,0.023777293477867577,1.46387019926605,0.22583986421381205,0.1734458335674106
0.315,-0.0376,-0.453,0.02358893984928165,1.4622280674734098,0.2237485687932312,0.17306209347658533
0.316,-0.0177,-0.453,0.02354240892147839,1.457022978644889,0.2232319346462764,0.17184574697579763
0.317,-0.0141,-1.453,0.023605337036830168,1.4484857338983435,0.22393062720903165,0.16985072861666237
0.318,0.0088,-0.4530000000000555,0.023615058843221983,1.4484857338983437,0.22403856868772581,0.16985072861666242
0.319,-0.0061,-1.4529999999999446,0.023662618962034657,1.4641365388277212,0.22456662997022905,0.17350807288830075
0.32,-0.0249,-0.453,0.023546176136000196,1.4641365388277212,0.22327376213076364,0.17350807288830075
0.321,0.0117,-0.452999999999889,0.023656221231825612,1.4605840894364222,0.22449559579908657,0.17267792194781048
0.322,0.0273,1.547000000000111,0.0236439450460832,1.4605840894364222,0.22435929297753726,0.17267792194781048
0.323,0.0414,3.546999999999778,0.02364375262478514,1.4641365388277212,0.22435715651867277,0.17350807288830075
0.324,0.0197,-0.453,0.023639604383969382,1.464136538827721,0.2243110984889624,0.1735080728883007
0.325,-0.0082,-0.452999999999889,0.023579283216210632,1.4605840894364222,0.22364135093567644,0.17267792194781048
0.326,-0.0263,1.547,0.023443006400627256,1.4605840894364222,0.2221282657750641,0.17267792194781048
0.327,-0.0035,-1.453,0.02332825870095894,1.4553731209923533,0.220854218969382,0.1714602014743523
0.328,-0.0006,0.547,0.02322300704427475,1.4501434274923377,0.21968560698518666,0.17023810525303884
0.329,0.0129,0.547,0.023130819571015312,1.4861025682376772,0.2186620469820703,0.1786411847119836
0.33,0.0151,2.547,0.022577023928936533,1.491206157555158,0.21251323902486854,0.17983381239083523
0.331,0.0445,0.547,0.022389303276998694,1.4962923395306873,0.2104289715610912,0.18102237225064122
0.332,0.0327,1.547,0.022402880790115615,1.492816413134119,0.21057972305559366,0.18021010351734032
0.333,0.0437,0.547,0.022376577636544968,1.503220080151073,0.21028767843175444,0.18264127508584327
0.334,0.0341,2.547,0.02161958095878604,1.5016209809326708,0.20188272389237352,0.18226759102342
0.335,0.0256,-0.453,0.02112807418829009,1.5016209809326704,0.19642551095711147,0.18226759102341988
0.336,0.0069,-0.453,0.02133521887998201,1.4933387195760361,0.19872544405840195,0.18033215822839224
0.337,-0.0152,-1.453,0.021343079240900918,1.4933387195760355,0.1988127178577826,0.18033215822839208
0.338,-0.0123,-0.453,0.021442813116818414,1.4933387195760355,0.19992006577323773,0.18033215822839208
0.339,-0.0043,-0.453,0.021494154506611365,1.4833915374575215,0.20049011060946595,0.17800765992276166
0.34,-0.0111,0.547,0.021979652350894434,1.4750069201222027,0.20588060627484606,0.17604830816292683
0.341,-0.0356,-2.453,0.02258213525473488,1.4785247162032769,0.2125699902131277,0.1768703611757887
0.342,-0.0192,-3.453,0.022393758568965225,1.4801487680014405,0.21047843878801378,0.1772498762593681
0.343,-0.0161,-1.453,0.022321839489299156,1.4852728154867645,0.2096799193058716,0.17844728468676954
0.34400000000000003,-0.008000000000000666,0.547,0.023494290561578444,1.478260968974283,0.222697675197918,0.17680872764182837
0.34500000000000003,-0.019999999999998123,0.547,0.023583263255294393,1.4831286557036751,0.2236855414170178,0.17794622863658266
0.34600000000000003,0.013799999999999745,0.547,0.023439801717778215,1.4578256042451667,0.22209268409491847,0.1720333078172171
0.34700000000000003,0.00920000000000121,0.547,0.022559359673268626,1.3843501213347646,0.2123171123175489,0.1548632556863005
0.34800000000000003,0.030999999999998896,0.547,0.022446595306226377,1.3349195262123381,0.21106508650753075,0.1433121115291501
0.34900000000000003,0.011099999999998996,1.547,0.022368508758360665,1.3310222460377497,0.21019808945954965,0.1424013791172506
0.35000000000000003,-0.007000000000000905,0.547,0.022359748680999457,1.3292160021814268,0.2101008260842329,0.14197928864644646
0.35100000000000003,-0.023299999999999176,1.547,0.022399473119929902,1.3292160021814268,0.21054188760157172,0.14197928864644646
0.352,-0.0084,0.547,0.02236765908750984,1.318030766890808,0.2101886555411661,0.13936547699895196
0.353,-0.0109,-0.453,0.022424007560796422,1.3162066948160422,0.2108142941605314,0.13893922035695794
0.354,-0.004,-1.453,0.02242440367353499,1.3122538403308155,0.21081869221095614,0.13801550111226737
0.355,0.0254,1.547,0.02246527429923357,1.3346274002251637,0.21127247987090939,0.14324384633061174
0.356,0.0054,1.547,0.022472138408899556,1.373613912442348,0.21134869226574676,0.15235437436875962
0.357,0.0018,0.547,0.022615916230307478,1.3918351563568048,0.21294506129643048,0.1566123893624532
0.358,-0.0061,-1.453,0.022793718860812762,1.404421611724403,0.2149192087006218,0.15955364386320478
0.359,-0.0224,-1.453,0.022936862277117324,1.3992801529722223,0.21650853391432462,0.1583521666995698
0.36,-0.031,-1.453,0.022801074254785395,1.3903884016740662,0.21500087583837232,0.15627430579580878
0.361,-0.0121,-2.453,0.022693414605483672,1.3992801529722223,0.21380552784716905,0.1583521666995698
0.362,-0.024,0.547,0.022932255647882743,1.4029878361972932,0.21645738638563128,0.1592185933188684
0.363,0.0097,-0.453,0.022810882209599734,1.4029878361972932,0.21510977382532634,0.1592185933188684
0.364,0.0238,-0.453,0.0228013255654175,1.3703959086709088,0.21500366614710173,0.15160237805210422
0.365,-0.0066,-0.453,0.02258373082221136,1.3648406447252979,0.21258770584187267,0.15030420119407042
0.366,-0.0186,0.547,0.022273158285561263,1.364840644725298,0.20913941058719313,0.15030420119407048
0.367,0.0068,0.547,0.02271923854159035,1.3756453261936996,0.214092251706575,0.15282908346393764
0.368,-0.0161,-2.453,0.02267553482133949,1.3701113467418522,0.21360700812136169,0.15153588045368308
0.369,-0.0012,0.547,0.02286661550358401,1.3808747881162775,0.21572858209229864,0.15405112556928588
0.37,0.023,0.547,0.0228975313193707,1.3860845203059518,0.21607184122918713,0.1552685571497479
0.371,0.0002,-0.453,0.02276258233722032,1.3967248746321457,0.21457349903901063,0.1577550387792046
0.372,0.0031,-1.453,0.022791129751958156,1.396724874632146,0.21489046175514656,0.15775503877920466
0.373,0.0056,-0.453,0.02294453549078492,1.391554978590345,0.21659372981272412,0.1565469162731248
0.374,-0.0063,0.547,0.02295441613297244,1.3405987850474825,0.21670343484954388,0.14463926402140806
0.375,0.0232,-1.453,0.02292952036281729,1.3423897129608031,0.21642701644174267,0.14505777539984877
0.376,0.0112,-0.453,0.022914777004121964,1.3441782547174275,0.2162633205323249,0.1454757291714083
0.377,-0.007,-0.453,0.023195478082785197,1.3349195262123437,0.21937995218294754,0.14331211152915138
0.378,-0.0038,-3.453,0.023227975831256215,1.3349195262123437,0.21974077556111582,0.14331211152915138
0.379,-0.001,-1.453,0.02323229420506851,1.3441782547174275,0.21978872258207746,0.1454757291714083
0.38,-0.009,-1.453,0.023424223383101645,1.353373643694671,0.22191971742465055,0.14762454537307734
0.381,-0.021,0.546999999999778,0.023375757981666023,1.325596130980619,0.22138160476475727,0.14113338230104872
0.382,-0.0276,-3.4529999999998333,0.0229514995924658,1.3237824834460477,0.21667105242160092,0.1407095617083529
0.383,-0.0294,-0.453,0.02273291776916475,1.3183265705059504,0.21424413253944347,0.1394346016006739
0.384,-0.0019,-0.4529999999999445,0.02231436880036437,1.3165029082800308,0.20959697204504527,0.13900844073383883
0.385,0.0498,0.5470000000000556,0.022067207808365224,1.293815965097422,0.20685273688167422,0.13370686282367322
0.386,0.0146,1.5469999999999444,0.021945173350488487,1.2996748487790213,0.20549778500298366,0.13507599078659807
0.387,0.0207,0.5469999999999445,0.021949632246999286,1.3015220903008036,0.20554729225125853,0.13550766175997667
0.388,-0.0204,-0.4529999999999445,0.021912976394428352,1.3357955208625945,0.20514030133106975,0.14351681755101656
0.389,-0.047,0.546999999999889,0.022008700290384535,1.37474890673896,0.2062031263308122,0.15261960449000814
0.39,-0.0518,-1.452999999999889,0.022078954231703852,1.392955303875743,0.20698315773695958,0.15687415002781607
0.391,-0.0388,0.547,0.02205758797765948,1.392955303875743,0.20674592764177416,0.15687415002781607
0.392,0.0209,-1.453,0.021779048088989887,1.3764954033966723,0.20365329174196678,0.15302773299044903
0.393,0.0807,1.547,0.021752813517117376,1.339387827158726,0.20336200858257253,0.14435628241646037
0.394,0.0262,1.547,0.021779362315391456,1.344758293715855,0.20365678060618225,0.14561127506299654
0.395,0.033,-0.453,0.021764822826917954,1.3539497433471368,0.20349534827333843,0.14775917070214803
0.396,0.0141,-1.453,0.02170842169700856,1.3539497433471377,0.20286912500606918,0.14775917070214822
0.397,0.0198,0.547,0.021689497071924482,1.4027098860728044,0.20265900438311296,0.15915364079405023
0.398,0.0147,0.547,0.02188614243176623,1.4273069405249783,0.20484236311956497,0.16490158133805213
0.399,0.0005,-0.453,0.02167518767156465,1.425622693239194,0.20250012672480375,0.1645079995260954
0.4,0.0134,0.547,0.02170982320482944,1.4328921478987036,0.20288468598522164,0.16620675549914996
0.401,0.0094,-0.453,0.022015409189504325,1.4328921478987027,0.20627761541876705,0.16620675549914976
0.402,-0.016,-0.453,0.02208570495177876,1.4278532104292616,0.20705811116410758,0.16502923592925137
0.403,-0.0062,0.547,0.022071388423302276,1.4365130801789967,0.20689915436212683,0.16705290980195278
0.404,0.0144,2.547,0.02205570650266733,1.4381845738699714,0.206725037574168,0.1674435113015786
0.405,-0.0099,-3.453,0.022466938080395526,1.4431874394873851,0.21129095287804478,0.1686126014531835
0.406,-0.0263,-2.453,0.02240452199598319,1.4586277881921614,0.2105979454086264,0.1722207654512864
0.40700000000000003,-0.029200000000000146,-2.453,0.022399601790156824,1.448442248245319,0.21054331623057315,0.16984056671095177
0.40800000000000003,-0.03179999999999852,-1.453,0.02239926075818498,1.4520244035544139,0.21053952974338763,0.17067765945212096
0.40900000000000003,-0.005000000000000611,0.547,0.022396424952646713,1.4467826054766322,0.21050804371797702,0.1694527345834406
0.41000000000000003,-0.01599999999999727,1.547,0.02259190495986837,1.4517558418984773,0.21267846351284314,0.17061490086313122
0.41100000000000003,0.03319999999999883,-1.453,0.02242404062585666,1.4567120997173604,0.21081466128278745,0.17177309951326133
0.41200000000000003,0.012099999999998955,0.547,0.022524044108842105,1.440980658593156,0.21192500265279288,0.1680969118449691
0.41300000000000003,-0.006699999999999029,-1.453,0.02296720738328173,1.440980658593156,0.2168454564468773,0.1680969118449691
0.41400000000000003,0.01079999999999914,-0.453,0.023405738773816957,1.440980658593156,0.221714482308988,0.1680969118449691
0.41500000000000004,-0.004699999999997063,-0.453,0.023336994523866752,1.458360442570753,0.22095121304684823,0.17215829103023153
0.41600000000000004,0.048199999999997266,1.547,0.023331518819305033,1.4600069244518548,0.22089041615134722,0.17254304766756592
0.417,-0.001,-0.453,0.02381998161638306,1.4600069244518548,0.22631383176761377,0.17254304766756592
0.418,0.0308,1.547,0.02389068933752778,1.4684771903027865,0.22709890150340706,0.17452241412372882
0.419,0.0134,1.547,0.023856870756518114,1.452873144984162,0.22672341288592182,0.17087599682966792
0.42,-0.0022,1.547,0.02386163502873219,1.452873144984162,0.2267763107288702,0.17087599682966792
0.421,-0.0163,-0.453,0.023768469823236837,1.4613847591953226,0.22574189493835614,0.17286502574019702
0.422,-0.038,-1.453,0.023801954644958965,1.466574367502777,0.22611367781746594,0.17407775468934442
0.423,-0.0419,-0.453,0.023858638734873615,1.466574367502777,0.22674304279730872,0.17407775468934442
0.424,-0.0165,0.547,0.024011526261589172,1.4836543726325775,0.22844055713183248,0.17806908032421792
0.425,-0.0001,0.547,0.024531200060216977,1.5172376680872912,0.23421050934048018,0.18591696251355397
0.426,0.0446,0.547,0.024778668266261964,1.5287920402954616,0.23695815550969185,0.1886170355895788
0.427,0.0128,-1.453,0.02486027345968601,1.5303627483256907,0.2378642201742516,0.18898408508273246
0.428,-0.0045,1.547,0.0248879669569416,1.531931845891051,0.2381717018215407,0.18935075823585187
0.429,0.0326,1.547,0.025056669622101752,1.5069307799020397,0.2400448120649585,0.18350840661928242
0.43,-0.0007,-0.453,0.025284447514083604,1.5264535798329983,0.24257383614581868,0.18807057455991066
0.431,0.0036,-0.453,0.02555513088612042,1.5457298235311958,0.24557924092945801,0.1925751262290695
0.432,-0.0083,-1.453,0.02581377110330748,1.5441747467050428,0.2484509302398372,0.19221172949977974
0.433,-0.0047,-0.453,0.025682685588969363,1.5193751489749336,0.2469954842370291,0.18641645781206614
0.434,-0.008,-1.453,0.025543820892194504,1.5193751489749336,0.2454536657617183,0.18641645781206614
0.435,-0.0108,-1.453,0.025556978964558934,1.5290882647208448,0.245599760194228,0.18868625852796334
0.436,0.0082,0.547,0.025068751259520777,1.5275162461704954,0.24017895481122367,0.1883189027870942
0.437,-0.0084,-3.453,0.025037333415456917,1.5177930703262554,0.2398301216408274,0.18604675118616837
0.438,-0.0239,-3.453,0.024986048933783082,1.550637174957958,0.2392607086569813,0.19372189623294933
0.439,-0.0181,-2.453,0.024902484918149177,1.550637174957958,0.2383328951365701,0.19372189623294933
0.44,-0.0054,0.547,0.02445591191683782,1.5506371749579584,0.23337458305302333,0.19372189623294944
0.441,-0.0069,0.547,0.02390058555959767,1.5472833374485762,0.22720877952408117,0.1929381577314286
0.442,0.016,0.547,0.023779873891785153,1.5552783562238,0.22586851461916682,0.19480646650220113
0.443,0.0194,1.547,0.02375276539388405,1.5503856953450026,0.22556752823549572,0.19366312944580794
0.444,-0.001,1.5469999999999444,0.022381539669246924,1.5423653151371777,0.21034277201473597,0.19178889411147126
0.445,0.0125,0.5470000000001666,0.02222958970736877,1.5343030099514254,0.20865566748790043,0.1899048615763802
0.446,0.0104,3.5469999999999446,0.022344161393527195,1.5358680820103678,0.20992776001083283,0.19027059403265342
0.447,0.0307,2.5469999999998336,0.02276278340071876,1.530913388905593,0.21457573145245912,0.1891127610313322
0.448,0.0064,-0.45300000000011104,0.022756808193721587,1.538993451357935,0.21450938856793908,0.1910009431572932
0.449,-0.0165,-2.4529999999998333,0.02271475792660213,1.5820606689691812,0.21404250331745928,0.20106506716475772
0.45,-0.0372,0.546999999999889,0.02273382902005917,1.582060668969181,0.21425425018271269,0.20106506716475767
0.451,-0.0292,-1.4529999999998335,0.022795316272008138,1.5805413380569997,0.2149369448002274,0.20071002368722005
0.452,0.0028,1.5469999999999444,0.022800774771126405,1.6135971629655297,0.2149975506632255,0.20843464439644385
0.453,0.0071,0.5470000000000556,0.022787594027043726,1.6459892731587904,0.21485120450601636,0.21600416552945761
0.454,0.043,1.547,0.02278531416639531,1.6445290050228976,0.21482589115171896,0.21566292408366855
0.455,0.0191,2.547,0.02274136725293272,1.6308496587268244,0.21433794738571366,0.2124662783493785
0.456,-0.0026,-0.453,0.022724946836635757,1.6028975910374945,0.21415563106049243,0.20593432455496857
0.457,0.0013,-1.453,0.02259743962209374,1.6028975910374945,0.2127399150168746,0.20593432455496857
0.458,0.005,-0.453,0.02243656476473122,1.5871013721051992,0.2109537171346535,0.20224299934286186
0.459,0.0372,1.547,0.022229725276586152,1.5838247514553525,0.20865717271657913,0.20147730519370316
0.46,0.0144,1.547,0.02222450643664325,1.5838247514553525,0.2085992277958719,0.20147730519370316
0.461,-0.0244,0.547,0.022442506144663477,1.5838247514553525,0.21101968443635905,0.20147730519370316
0.462,-0.0509,0.547,0.022318102196032325,1.5838247514553525,0.20963842403788568,0.20147730519370316
0.463,-0.0461,-0.453,0.022341494621293517,1.5823071144156584,0.20989815076676413,0.20112265754723402
0.464,-0.0156,-2.453,0.022349195945218933,1.5774982863136835,0.2099836587741147,0.19999891087788293
0.465,0.0043,0.547,0.022324977089109504,1.5823071144156584,0.2097147561612285,0.20112265754723402
0.466,0.0515,0.547,0.022476484145029577,1.5916362280102856,0.21139694309126042,0.20330272306582778
0.467,0.0196,1.547,0.02235367419060475,1.5916362280102856,0.21003338085347104,0.20330272306582778
0.468,-0.0099,0.547,0.022426421102730087,1.600910978255572,0.21084109178174607,0.20547008473403197
0.46900000000000003,-0.0048999999999992175,0.547,0.022217174612900643,1.5931449781193836,0.20851782235902136,0.20365529397791457
0.47000000000000003,0.009199999999998789,1.547,0.022176879136975552,1.5886144290954956,0.20807042060252254,0.20259657670460737
0.47100000000000003,-0.012600000000000227,-1.453,0.022252614925340117,1.580788020367755,0.2089113171043313,0.20076766942111207
0.47200000000000003,-0.016700000000000603,-1.453,0.022263321698503633,1.585586871270699,0.20903019469566927,0.2018890845776824
0.47300000000000003,-0.027600000000001276,-2.453,0.021944936876162873,1.5807880203677551,0.2054951594221655,0.20076766942111213
0.47400000000000003,-0.05059999999999951,-3.453,0.021676547008036926,1.580788020367755,0.20251521947433473,0.20076766942111207
0.47500000000000003,-0.04189999999999895,-2.453,0.021796967418242993,1.5840709224506972,0.2038522505381856,0.20153483144131346
0.47600000000000003,-0.022999999999997963,0.547,0.02228374106398007,1.5873470349515255,0.2092569114615348,0.20230040684412587
0.47700000000000004,0.013700000000000866,0.547,0.021856759129060002,1.5906163998227218,0.20451611951676096,0.20306440543317741
0.47800000000000004,0.029300000000000256,1.547,0.022236686935344054,1.5951412628233281,0.20873446820161623,0.20412179397324876
0.47900000000000004,0.033900000000000236,2.547,0.02224568903930616,1.5906163998227218,0.20883441880481346,0.20306440543317741
0.48,0.0382,2.547,0.022166970976414867,1.5906163998227218,0.20796041002846297,0.20306440543317741
0.481,0.0421,-0.453,0.022168404238022656,1.5998970621166224,0.2079763235707683,0.20523314865314402
0.482,0.0094,1.547,0.02251511039880593,1.6013980293361176,0.2118258114292008,0.2055839008276749
0.483,-0.0124,-0.453,0.022767596942048364,1.5981507207851218,0.21462917633172668,0.20482505644996918
0.484,-0.0084,1.547,0.022866110815023006,1.5996533266111774,0.21572297852158767,0.20517619154080016
0.485,0.0025,-0.453,0.023050432775100972,1.6041526991888304,0.21776951021793714,0.2062276233743129
0.486,-0.0074,-0.453,0.023935199907474156,1.6009109782555722,0.22759310356256107,0.20547008473403203
0.487,0.0131,-3.453,0.024011293099090163,1.6086394870484233,0.2284379683223145,0.20727611435930604
0.488,-0.0004,-0.453,0.024080737005555432,1.5770038539141937,0.22920900588962004,0.19988336988736227
0.489,-0.0026,0.547,0.02409295390573958,1.544720463782694,0.2293446504620162,0.19233925490418471
0.49,-0.0004,0.547,0.024049064107211873,1.5447204637826957,0.22885734084467407,0.19233925490418513
0.491,-0.0305,1.547,0.024160680035084304,1.5770038539141895,0.2300966155036011,0.19988336988736127
0.492,-0.0175,-0.453,0.024153786088172476,1.5802946172393915,0.23002007182501805,0.2006523689548887
0.493,-0.0135,0.547,0.02448636667002953,1.5881234575019652,0.23371272299947882,0.20248184444941422
0.494,-0.0027,0.547,0.024531995163710806,1.588123457501964,0.23421933739602666,0.20248184444941394
0.495,0.04,0.547,0.024886659594339295,1.5802946172393904,0.23815718613929046,0.20065236895488844
0.496,0.0457,-0.453,0.02499388113660659,1.5787735867703088,0.2393476698162689,0.20029692831792537
0.497,0.0191,1.547,0.0249816439895854,1.5436696409203556,0.23921180044269477,0.19209369430884016
0.498,-0.0049,3.547,0.02481750004790868,1.5193751489749276,0.23738930582912265,0.18641645781206476
0.499,-0.0093,-0.453,0.02482518273548259,1.5209555819664107,0.23747460691655956,0.18678577987404119
0.5,-0.0214,-0.453,0.024848973205261454,1.504299159176523,0.23773875314445828,0.18289343869724747
0.501,-0.0106,-3.453,0.02458904195150462,1.5027012082603095,0.23485272942020857,0.18252002297478823
0.502,-0.014,-3.453,0.02442220866495203,1.502701208260311,0.23300037493791242,0.1825200229747886
0.503,-0.0053,-0.453,0.024539476930938525,1.4978971274191015,0.23430240765943833,0.1813973856647992
0.504,0.0026,1.547,0.024974024922817382,1.5130369087876843,0.23912720573878235,0.18493531185531142
0.505,0.0049,-1.453,0.02489659412268857,1.5082657492554774,0.2382674894756182,0.1838203677318028
0.506,-0.0107,-2.453,0.02482453058782566,1.483391537457519,0.23746736610352762,0.1780076599227611
0.507,0.0114,-0.453,0.024901810503182405,1.5002800989869123,0.23832540708899613,0.18195424823208164
0.508,-0.0094,0.547,0.024905156763268772,1.4952074820600585,0.238362560705028,0.18076885830847325
0.509,-0.0014,0.547,0.0249679089960242,1.4952074820600585,0.23905930043857013,0.18076885830847325
0.51,0.0351,1.547,0.024729667268708424,1.4852728154867634,0.23641409611164918,0.17844728468676926
0.511,-0.0233,-1.453,0.0246917961329349,1.4804121789040283,0.2359936118692698,0.17731143119919476
0.512,-0.0158,-0.453,0.024624875580400465,1.4839171612536093,0.23525059116874655,0.17813048984673893
0.513,-0.0089,-0.453,0.024098709118818673,1.4839171612536095,0.22940855074812766,0.178130489846739
0.514,-0.0028,-1.453,0.023668937862222867,1.4855353178080863,0.22463678888952318,0.17850862730560035
0.515,0.0265,1.547,0.023738732586317906,1.4701123417724837,0.22541172159443823,0.17490452302406614
0.516,0.0421,1.547,0.023903920534219688,1.4935998043037428,0.22724580783729786,0.18039316957813425
0.517,0.0181,1.547,0.023343094841394015,1.5018806258848871,0.22101894503695976,0.18232826592052165
0.518,-0.0036,0.547,0.023284187898839192,1.497073911813233,0.22036489966427336,0.18120501326644448
0.519,0.0003,-1.453,0.02341601312212572,1.495468240531899,0.2218285586754954,0.18082979341740668
0.52,0.0185,0.547,0.02353173108838505,1.4938608434012095,0.22311337837731848,0.18045417026481467
0.521,-0.0177,-1.453,0.02356767320347144,1.4839171612536093,0.2235124446509574,0.17813048984673893
0.522,0.0062,-0.453,0.023574993061082846,1.4839171612536093,0.22359371722753033,0.17813048984673893
0.523,-0.0242,-0.453,0.02351718685289921,1.495728953544314,0.2229518933382686,0.18089071790319508
0.524,-0.0282,-1.453,0.02336482622038538,1.4804121789040285,0.22126022912428392,0.17731143119919482
0.525,-0.0463,-1.453,0.022931378860033342,1.4545258383433346,0.2164476513864808,0.1712622049906679
0.526,-0.0101,-1.453,0.022567631850245243,1.438770492950486,0.21240895852173045,0.16758043127486008
0.527,0.0429,1.547,0.022456685683406027,1.4370996807434002,0.2111771202376275,0.16718998902718382
0.528,0.0078,-1.453,0.022427462776969383,1.440710038282645,0.21085265751893273,0.168033672181137
0.529,0.0267,1.547,0.022265143057043208,1.440710038282645,0.20905041728868032,0.168033672181137
0.53,-0.0026,1.547,0.022057491888244896,1.4163457686680812,0.2067448607584112,0.1623401297525163
0.531,-0.0395,0.547,0.021724927025396832,1.4004393230096674,0.2030523841125314,0.15862304630706828
0.532,-0.0348,0.547,0.021336624813638683,1.410971429695222,0.19874105417772864,0.16108423218399356
0.533,-0.0217,0.547,0.021329274889133252,1.4004393230096677,0.19865944776762007,0.1586230463070683
0.534,0.0302,1.547,0.02131571279801011,1.4004393230096677,0.19850886750393065,0.1586230463070683
0.535,0.0654,0.547,0.021301658294612873,1.4078388194189597,0.1983528199734751,0.16035219096944506
0.536,0.0208,1.547,0.02130637516953779,1.4448512118852814,0.19840519156304298,0.16900139860938176
0.537,-0.0201,0.547,0.021340222579666772,1.4448512118852812,0.19878100027101792,0.1690013986093817
0.538,-0.0251,0.546999999999667,0.021651015207092946,1.409544316598514,0.20223173919952298,0.1607507385437126
0.539,-0.0108,-2.453000000000111,0.021659628160964707,1.409544316598514,0.20232736905876655,0.1607507385437126
0.54,-0.0238,-3.452999999999778,0.02168358600714475,1.40783881941896,0.2025933736713639,0.1603521909694451
0.541,-0.0038,-1.452999999999667,0.021683982622415,1.4078388194189597,0.20259777730141143,0.16035219096944506
0.542,0.0433,1.547,0.022178349865333076,1.3990014662146601,0.20808675013916114,0.15828704203531446
0.543,0.0245,1.546999999999889,0.022173351538411604,1.409544316598514,0.208031253580481,0.1607507385437126
0.544,0.0419,0.546999999999889,0.022154561090986267,1.4078388194189597,0.2078226227356903,0.16035219096944506
0.545,0.0263,-0.45299999999977797,0.022667417242129364,1.4078388194189597,0.21351687842035308,0.16035219096944506
0.546,-0.0068,1.5469999999997779,0.022331145616308227,1.4239364538090755,0.20978324548516278,0.16411395218168193
0.547,-0.0111,-0.452999999999889,0.022012812575093084,1.4239364538090755,0.20624878513889397,0.16411395218168193
0.548,0.0089,0.546999999999889,0.021941404904878576,1.4135009538383634,0.20545594384969193,0.16167534175801448
0.549,0.0198,-0.453,0.022235476139490232,1.3651263053378462,0.20872102470258005,0.15037095553735505
0.55,-0.01,-0.45300000000011104,0.02231287801662064,1.366885097042747,0.20958041983291245,0.1507819571948385
0.551,-0.006,-1.453,0.02221199888552967,1.3686416285901002,0.20846035611836355,0.15119243068943847
0.552,-0.0241,-1.453,0.022208563350933956,1.3313151630919582,0.20842221128504548,0.14246982917557724
0.553,-0.0469,-2.453,0.02216526784881941,1.3024689088187766,0.2079415001568147,0.1357289181936627
0.554,-0.0382,-1.453,0.0222808076943222,1.304312193238941,0.20922434217907165,0.13615966445530922
0.555,0.0024,-0.453,0.022290240836347217,1.3213763038680457,0.20932907860951214,0.1401472757980851
0.556,0.0198,-2.453,0.022432860550165617,1.3346274002251626,0.2109125891403799,0.1432438463306115
0.557,0.0043,-0.453,0.022410653965188966,1.3346274002251624,0.21066602882817853,0.14324384633061144
0.558,0.0184,-0.453,0.022605438747289954,1.3403078968802558,0.21282872951977047,0.14457128808171074
0.559,0.0141,-0.453,0.02269935899028771,1.3495296578555716,0.21387152851204705,0.146726267000027
0.56,-0.0044,-1.453,0.022698973516217236,1.3495296578555716,0.21386724858304126,0.146726267000027
0.561,-0.0163,-1.453,0.022529335247635014,1.3773906862146152,0.2119837503095826,0.15323694635043114
0.562,-0.0054,0.547,0.02240994854726113,1.4098209192966196,0.2106581965538913,0.16081537619640848
0.5630000000000001,-0.008599999999996381,0.547,0.022370262636356896,1.4151996274357073,0.21021756281426712,0.16207229476961119
0.5640000000000001,0.02400000000000049,0.547,0.022363665653049394,1.4256226932391918,0.21014431633059594,0.16450799952609488
0.5650000000000001,0.028399999999996903,2.547,0.022363148951421503,1.4306694867981113,0.21013857937847918,0.16568735493919629
0.5660000000000001,0.0004999999999987898,1.547,0.022337084700987317,1.4379134273266823,0.20984918730261046,0.16738014866551304
0.5670000000000001,-0.010400000000001809,-1.453,0.021941352462874514,1.4379134273266823,0.2054553615847058,0.16738014866551304
0.5680000000000001,-0.02669999999999968,-0.453,0.02188093873383166,1.42926204227712,0.20478458632098478,0.16535845753233935
0.5690000000000001,-0.023799999999999124,-0.453,0.02201113191146845,1.437913427326682,0.2062301246853199,0.16738014866551298
0.5700000000000001,-0.01589999999999978,-0.453,0.022595985418172534,1.4342960302778394,0.21272376895149828,0.16653482049009163
0.5710000000000001,-0.013899999999998755,-1.453,0.022595985418172534,1.4429172330605002,0.21272376895149828,0.1685494585073742
0.5720000000000001,-0.0026999999999989233,-2.453,0.02252854345215541,1.4393124120382528,0.21197495898300733,0.1677070691494153
0.5730000000000001,0.007000000000001843,0.547,0.022637443406022625,1.440980658593159,0.2131840781092687,0.16809691184496986
0.5740000000000001,0.02359999999999626,1.547,0.022590267082004633,1.440980658593159,0.21266027811072685,0.16809691184496986
0.5750000000000001,-0.01009999999999949,0.547,0.022416137886400525,1.4356985398863427,0.21072691695336443,0.1668625646863629
0.5760000000000001,-0.005499999999998556,-0.453,0.02196150465820361,1.4303969156929754,0.20567911195321625,0.16562365940567703
0.577,0.0075,-1.453,0.021955896912852813,1.4354269237410107,0.20561684900527125,0.1667990923117664
0.578,0.0115,1.547,0.021543021102390113,1.4250755683177574,0.2010326777409765,0.1643801451309818
0.579,0.0151,0.547,0.021528976377080736,1.421425500474992,0.2008767387768943,0.1635271823104708
0.58,-0.0012,1.547,0.021370709382839033,1.447903746262014,0.19911949606927226,0.16971472735937887
0.581,-0.0099,1.547,0.02136911212893586,1.4429172330605005,0.19910176171608626,0.16854945850737424
0.582,-0.0075,-0.453,0.021051680966501615,1.441251228089943,0.19557731495425737,0.1681601396344419
0.583,-0.0098,-0.453,0.020793077565255762,1.4448512118852814,0.19270603441226686,0.16900139860938176
0.584,-0.0033,-2.453,0.02069371533289307,1.4534098057597407,0.19160281286522884,0.17100140592026947
0.585,-0.0051,-3.453,0.020546488836026743,1.4448512118852812,0.18996815309787402,0.1690013986093817
0.586,-0.0141,-0.453,0.019532654810569906,1.4793156757492836,0.17871152655669925,0.17705519584580975
0.587,-0.0388,0.547,0.01962009677525,1.486322546605801,0.1796823970500099,0.17869259015906266
0.588,-0.0061,-0.453,0.019548304240264307,1.4847052480396747,0.1788852825968685,0.17831465319843723
0.589,-0.0105,-0.453,0.019408392884698002,1.493035402309255,0.17733184304075406,0.1802612778057458
0.59,0.0014,0.547,0.019382580774555618,1.4776907083437176,0.17704525048534878,0.17667546679933815
0.591,0.0557,0.547,0.019277362893446923,1.4431874394873934,0.17587701351227952,0.1686126014531854
0.592,0.0169,1.547,0.01927578844679564,1.4395832950818062,0.17585953238862667,0.16777037020978214
0.593,0.01,-0.453,0.018803451278785785,1.4345678605426746,0.17061516006702573,0.16659834290101166
0.594,-0.048,0.547,0.018646062398830307,1.4417922147567535,0.16886766708601803,0.16828655961704472
0.595,-0.0092,-2.453,0.018187651324388484,1.441792214756754,0.1637779165570741,0.1682865596170448
0.596,0.026,-0.453,0.01799844750047026,1.4417922147567543,0.16167718139477774,0.16828655961704492
0.597,0.0071,-0.453,0.01798607553489755,1.431486888710054,0.16153981512718824,0.16587836876971554
0.598,0.0364,0.547,0.017953098879519208,1.4314868887100545,0.16117367443270547,0.16587836876971565
0.599,0.0208,0.547,0.017931521981514976,1.431486888710055,0.16093410555194984,0.16587836876971573
0.6,-0.0031,0.547,0.017861285530596852,1.4331642444399018,0.16015426834219887,0.16627034013462233
0.601,0.0099,0.547,0.017861285530596852,1.4384556693026007,0.16015426834219887,0.16750686199389558
0.602,-0.0021,1.547,0.01785906239945737,1.434839639309284,0.16012958485716988,0.1666618532776151
0.603,0.0233,0.547,0.01769974956610203,1.434839639309284,0.15836073016964905,0.1666618532776151
0.604,0.007,2.547,0.017098257728382745,1.4188657115843628,0.1516823500652528,0.16292900034615707
0.605,-0.0257,-2.453,0.016686608776116853,1.4151996274357208,0.14711180064062185,0.16207229476961435
0.606,-0.0039,-2.453,0.016692471367344006,1.4168962645467045,0.14717689314920865,0.16246877188672784
0.607,-0.0317,-1.453,0.016589571650050615,1.3990014662146741,0.14603439481153227,0.15828704203531774
0.608,0.0227,1.547,0.01660943136918263,1.4362416180762216,0.1462548978089346,0.16698947342465262
0.609,-0.0005,0.547,0.016968300572090547,1.4362416180762216,0.1502394322522753,0.16698947342465262
0.61,-0.0215,-3.453,0.017000916716925187,1.4619182954155843,0.1506015701884636,0.17298970467189995
0.611,-0.0027,-3.453,0.017004645884973163,1.4583604425707695,0.1506429752419253,0.1721582910302354
0.612,-0.0085,-1.453,0.017113839380162577,1.4547938886452656,0.15185535356540775,0.17132484408435683
0.613,0.0071,1.547,0.01710525192684905,1.4531415001462908,0.15176000683955032,0.17093870716433793
0.614,0.0024,1.547,0.01711089748046994,1.4567120997173753,0.1518226895737384,0.1717730995132648
0.615,0.0242,-2.453,0.016942344340241736,1.4567120997173746,0.1499512395096747,0.17177309951326467
0.616,0.0043,1.547,0.016703782837353225,1.4309420059829114,0.14730248470594112,0.1657510383397586
0.617,0.0079,0.547,0.016708087012442464,1.4258961769742524,0.14735027407809753,0.1645719083267172
0.618,0.0242,1.547,0.016849117445075147,1.4222482151488847,0.14891613877707632,0.16371943764898736
0.619,0.0511,0.547,0.017183163298691004,1.4275801016062053,0.15262505890341282,0.16496541473960355
0.62,0.0185,1.547,0.017500018692527847,1.427580101606205,0.15614311289096866,0.1649654147396035
0.621,-0.0031,0.547,0.01744198223542301,1.4292620422771265,0.15549873254172195,0.16535845753234085
0.622,-0.023,0.547,0.017400326381939873,1.4239364538090824,0.15503622647648876,0.16411395218168354
0.623,-0.0193,-0.453,0.017632963642800002,1.4115240215733411,0.157619204261126,0.16121336411996184
0.624,0.0036,-0.453,0.019047833180703154,1.420283458493685,0.17332853891822994,0.16326030525736385
0.625,-0.0113,-0.453,0.019000416179301875,1.4359701046550262,0.17280206667220718,0.16692602505505355
0.626,-0.0088,1.547,0.018974128131274054,1.434296030277838,0.17251018976561758,0.16653482049009133
0.627,-0.0065,-0.453,0.018982214313868193,1.4342960302778378,0.1725999708691517,0.16653482049009127
0.628,0.0,0.547,0.019134442485524046,1.4306694867981096,0.17429016436665606,0.16568735493919587
0.629,-0.0057,-3.453,0.01910034988256882,1.4202834584936779,0.17391163327611525,0.1632603052573622
0.63,-0.0002,-1.453,0.019044002463340245,1.4185908724782355,0.17328600635998442,0.1628647748168662
0.631,0.0147,-0.453,0.01904381255868478,1.4098209192966178,0.17328389784347054,0.16081537619640807
0.632,-0.0114,-1.453,0.01905044172568409,1.4046992231469895,0.17335750166354028,0.1596185172387736
0.633,-0.0077,1.547,0.019093204901613328,1.415199627435705,0.1738323023597717,0.16207229476961066
0.634,-0.0174,0.547,0.019074536448404972,1.4205579701307363,0.17362502602006397,0.16332445426233824
0.635,-0.0145,-3.453,0.019088090123235577,1.4044216117244002,0.17377551283743023,0.15955364386320411
0.636,-0.0278,-2.453,0.019267422808288075,1.3663144515283319,0.17576664847854512,0.15064860641111202
0.637,-0.0111,-0.453,0.019222844795640074,1.3846317569920037,0.17527169760125513,0.1549290694615242
0.638,0.0093,1.547,0.01884216281454356,1.3883785595025444,0.171044975293107,0.15580463763585908
0.639,-0.0041,0.547,0.01883707192463668,1.3938400143108818,0.17098845100510218,0.15708089279003273
0.64,0.0127,0.547,0.019040373352069425,1.4044216117244002,0.17324571223961932,0.15955364386320411
0.641,-0.0029,0.547,0.01905229313429063,1.4044216117244002,0.1733780579032557,0.15955364386320411
0.642,-0.0086,-1.453,0.018246801570581127,1.4027098860727976,0.16443466333661635,0.15915364079404862
0.643,-0.0031,-2.453,0.018315820167166773,1.3938400143108818,0.16520097867685218,0.15708089279003273
0.644,0.0081,0.547,0.018300447509661113,1.3992801529722192,0.16503029564576271,0.15835216669956909
0.645,-0.0024,-0.453,0.01770749365786541,1.4081157571358112,0.15844671302945854,0.1604169069106952
0.646,-0.0014,-0.453,0.017745938232308908,1.40071772369131,0.1588735641768639,0.15868810411992965
0.647,0.0023,-0.453,0.01756427336469989,1.427033727155588,0.15685653424989413,0.16483773571758828
0.648,0.0012,0.547,0.01755033802229269,1.4373709807923534,0.1567018097671263,0.16725338753508237
0.649,-0.0118,0.547,0.017172208926570526,1.440980658593157,0.15250343221417473,0.1680969118449694
0.65,-0.01,-1.453,0.017089804612263258,1.4567120997173615,0.15158849488888565,0.17177309951326158
0.651,-0.0053,0.547,0.017099608529650555,1.455061889567163,0.15169734804817828,0.171387471638717
0.652,-0.0039,-1.453,0.017071566657809737,1.4534098057597387,0.1513859983884691,0.171001405920269
0.653,-0.0104,0.547,0.017121379033409385,1.4448512118852792,0.15193906653885134,0.16900139860938124
0.654,0.0084,0.547,0.01707667196454258,1.4484422482453199,0.15144268274688158,0.16984056671095196
0.655,-0.005,0.547,0.01709065796895219,1.4278532104292623,0.15159796973122922,0.16502923592925153
0.656,0.007,-0.453,0.017229223554786535,1.415475125011158,0.15313646716969648,0.16213667417271355
0.657,0.0092,-3.453,0.017311640536646355,1.40298783619729,0.15405154514316333,0.15921859331886767
0.658,0.0393,-0.453,0.017217828258165598,1.3975621301071934,0.15300994488383218,0.15795069207175927
0.659,0.0176,2.547,0.017797044391467284,1.388659378147699,0.15944099724100916,0.1558702604883488
0.66,0.0057,0.547,0.01779732158664724,1.3869281991240041,0.1594440749465718,0.15546571147543467
0.661,0.0253,0.547,0.017992374828223193,1.3501073977629183,0.1616097563509582,0.1468612756305841
0.662,-0.0001,-0.45300000000011104,0.01805422661843795,1.3122538403308122,0.16229649844667438,0.1380155011122666
0.663,0.0097,-1.452999999999778,0.018325990767272336,1.3177348968740143,0.16531390312426,0.1392963368802199
0.664,0.001,0.546999999999889,0.018390852044478174,1.3177348968740143,0.16603405963524387,0.1392963368802199
0.665,-0.0016,-0.45300000000011104,0.018391412702602045,1.3177348968740143,0.1660402846375216,0.1392963368802199
0.666,-0.0038,-1.452999999999778,0.01824592048888666,1.3098264825572794,0.16442488066278824,0.13744826619442652
0.667,-0.0241,0.546999999999778,0.018439322889519195,1.300323181142355,0.16657223273563482,0.13522749575173282
0.668,-0.043,-1.452999999999889,0.018423162806209863,1.298474234023907,0.16639280689459987,0.13479542620753165
0.669,-0.0408,-0.452999999999889,0.018351115141709576,1.2870218562400442,0.16559285973157373,0.13211918760680463
0.67,-0.0071,0.546999999999889,0.017649825596332533,1.2966226503619973,0.15780642298618783,0.1343627405450432
0.671,0.007,-0.45300000000011104,0.01763668963228174,1.2870218562400442,0.157660574022881,0.13211918760680463
0.672,0.0287,-1.452999999999667,0.017641822155658324,1.2870218562400442,0.15771756056842332,0.13211918760680463
0.673,0.0724,1.547000000000111,0.017493846004240098,1.2966226503619973,0.15607457736635064,0.1343627405450432
0.674,0.0194,2.546999999999667,0.017387356060641176,1.3024689088187744,0.15489221664912803,0.13572891819366217
0.675,-0.0016,-0.453,0.017450194951028643,1.3216713587178797,0.155589918544697,0.14021622542525947
0.676,-0.0078,-0.452999999999889,0.01746130621479178,1.3216713587178797,0.15571328720607702,0.14021622542525947
0.677,-0.0252,0.546999999999889,0.01750103814527695,1.316206694816039,0.1561544319023501,0.13893922035695716
0.678,0.0012,-0.453,0.01776891948064849,1.3219663477132693,0.15912872559728686,0.14028515966329724
0.679,-0.0035,-0.453,0.017803694317848718,1.3313151630919562,0.15951483155305876,0.14246982917557677
0.68,0.0009,0.547,0.01803537180216873,1.3024689088187744,0.16208715291287318,0.13572891819366217
0.681,-0.0111,-1.453,0.018375225370813434,1.298474234023907,0.16586055625588597,0.13479542620753165
0.682,-0.0148,1.547,0.018360639464718016,1.3098264825572794,0.16569860854693352,0.13744826619442652
0.683,-0.005,-1.453,0.01886053638376,1.3231932494598715,0.17124897752789556,0.14057186709432376
0.684,-0.0079,0.547,0.01924045609541311,1.3119566675129826,0.17546723633784508,0.13794605654964634
0.685,-0.0267,-0.453,0.019919276851121305,1.3159104146739502,0.183004201505257,0.13886998439846443
0.686,0.0053,-2.453,0.02027134562625214,1.281105107878261,0.18691323061549114,0.13073653758814172
0.687,-0.0076,-1.453,0.020237992997764277,1.2631885901987774,0.1865429154814284,0.1265497322705591
0.6880000000000001,0.00430000000000282,-1.453,0.020905623971719717,1.274855086820764,0.19395564020010292,0.12927600703936792
0.6890000000000001,0.029699999999997468,1.547,0.020913335524232416,1.2650891088775431,0.19404126177573408,0.12699385326844326
0.6900000000000001,0.006900000000000322,0.547,0.020990758950485994,1.274855086820764,0.1949008961665625,0.12927600703936792
0.6910000000000001,0.009800000000001488,-0.453,0.020984956650623457,1.284546819460069,0.1948364730746239,0.1315408108632325
0.6920000000000001,0.023199999999998156,0.547,0.021058944986795516,1.282675131275561,0.19565796756758735,0.1311034270934652
0.6930000000000001,0.006600000000000722,-1.453,0.02107592149151083,1.282675131275561,0.1958464581575226,0.1311034270934652
0.6940000000000001,0.0131000000000002,1.547,0.02114269357559119,1.274549194170858,0.19658783040879405,0.12920452479063257
0.6950000000000001,0.01489999999999899,1.547,0.021163484616042148,1.2842432352766298,0.1968186738919307,0.1314698680664069
0.6960000000000001,0.0057999999999994774,2.547,0.021227715250368352,1.312895960969638,0.1975318283580052,0.13816555449614734
0.6970000000000001,0.0010999999999995226,1.547,0.02122983841063994,1.3128959609696382,0.1975554018637904,0.1381655544961474
0.6980000000000001,-0.0032000000000009994,-1.453,0.02133743690200306,1.3128959609696382,0.1987500708167511,0.1381655544961474
0.6990000000000001,-0.012199999999997914,-2.453,0.021415633953122855,1.31106474490705,0.19961829478534404,0.13773762841778528
0.7000000000000001,0.006599999999999123,-0.453,0.02143924256043945,1.31106474490705,0.19988042178941692,0.13773762841778528
0.7010000000000001,-0.0013000000000013211,-0.453,0.021416855780141256,1.3052569878496685,0.19963186076369818,0.13638044793405113
0.7020000000000001,-0.013200000000000722,0.547,0.02149281763072794,1.3034150395550101,0.20047526724045903,0.1359500139036916
0.7030000000000001,-0.0196999999999989,-1.453,0.021637918522031598,1.3376399692569692,0.20208632635189583,0.1439478358149294
0.704,-0.0098,-1.453,0.021669190764400836,1.3747947233623568,0.20243354290274793,0.15263031110643344
0.705,-0.0337,-1.453,0.02168554295596521,1.374794723362357,0.20261510172692226,0.15263031110643346
0.706,-0.0173,-1.453,0.022383268385312936,1.3837866780603074,0.21036196599586326,0.15473158795154002
0.707,-0.0261,-0.453,0.022526185393980724,1.3944445662562508,0.21194877739946577,0.15722216696757696
0.708,-0.0504,0.547,0.022606894892274285,1.3578276047902362,0.212844897136823,0.14866536526524715
0.709,-0.0011,-0.453,0.022323229412327245,1.3686876496537814,0.2096953516587571,0.15120318508030772
0.71,0.0341,0.547,0.022260520895782315,1.3430174251774956,0.20899909730747973,0.145204461764564
0.711,0.0152,0.547,0.022321374378358596,1.3468799970101222,0.20967475516654835,0.14610708338879316
0.712,0.0326,1.547,0.022177887279739537,1.363697403887454,0.20808161403883402,0.1500370439872521
0.713,0.017,1.547,0.022195247910841334,1.3692573061251783,0.20827436959440337,0.15133630474040613
0.714,0.0028,1.547,0.022180903857383385,1.3636974038874559,0.2081151071818107,0.1500370439872525
0.715,0.0072,1.547,0.022196504410110743,1.3636974038874567,0.20828832053969604,0.15003704398725273
0.716,0.027,0.547,0.02219596303327874,1.3820493954215187,0.2082823096181222,0.15432561262082306
0.717,0.0016,-0.453,0.02222204652455132,1.3947241635509116,0.2085719153255388,0.15728750440987513
0.718,0.0179,-0.453,0.022255393509026593,1.3930005216799424,0.20894216779397745,0.15688471670971588
0.719,0.0092,1.547,0.022215753581371796,1.3981650726495776,0.2085020446076125,0.1580915901574147
0.72,0.0172,0.547,0.022019085105151343,1.3981650726495778,0.206318429209384,0.15809159015741475
0.721,0.0053,0.547,0.02210119394455685,1.4070076792147945,0.20723008586886593,0.16015796671846572
0.722,0.0032,1.547,0.022091455760228886,1.4070076792147943,0.20712196254550477,0.16015796671846566
0.723,0.0014,-1.453,0.021911374343581154,1.4121210027281708,0.2051225137172848,0.16135286912412902
0.724,-0.0152,-2.453,0.020949781233772415,1.4015975343734048,0.19444591947218007,0.1588937018877637
0.725,-0.0129,-0.453,0.02093681939904822,1.37654116188991,0.19430200387148502,0.15303842602278037
0.726,-0.0147,-1.453,0.02099259043708088,1.3782853874903502,0.19492123121164498,0.1534460238132455
0.727,-0.0314,-1.453,0.02100619538709338,1.4050216106330997,0.1950722873387394,0.1596938540684698
0.728,-0.0111,1.547,0.021080117723035325,1.4138213343058,0.195893049029367,0.1617502095793573
0.729,0.0294,1.547,0.021358272685010223,1.4242544868536084,0.19898141107769657,0.16418827144761508
0.73,0.0352,0.547,0.021356233309959727,1.4346117667533047,0.19895876784148198,0.16660860308434805
0.731,-0.0127,1.547,0.021357859373033423,1.4382283696696556,0.19897682206366568,0.16745374568363242
0.732,-0.0446,-2.453,0.021329423142957923,1.4432310834718187,0.19866109383383576,0.168622800358427
0.733,-0.0388,-0.453,0.021303152230847836,1.4346117667533047,0.1983694071878031,0.16660860308434805
0.734,-0.0544,-1.453,0.021343051634174985,1.4396270483301021,0.19881241133955965,0.16778059464825307
0.735,-0.0403,-1.453,0.02132971892331921,1.4379572313846614,0.19866437789116825,0.16739038497739905
0.736,0.0253,0.547,0.021232445286002898,1.4379572313846614,0.19758434607128725,0.16739038497739905
0.737,0.0536,1.547,0.021448502802181326,1.457022978644894,0.19998323850334832,0.17184574697579882
0.738,0.0109,0.547,0.02145269356508482,1.4877183477778337,0.20002976865694616,0.1790187667003917
0.739,0.0185,1.547,0.021519070675777827,1.484222341935065,0.20076675550804018,0.1782018057197674
0.74,0.0117,1.547,0.02133469989818754,1.474213648802237,0.19871968178953414,0.17586293326808766
0.741,0.0179,-0.453,0.02149484693271251,1.4742136488022382,0.20049779863515085,0.17586293326808794
0.742,0.0121,-1.453,0.021892608954263707,1.4992401406350528,0.20491416109334218,0.18171122650009544
0.743,0.0171,1.547,0.02185040690223673,1.5222782522508238,0.2044455905709385,0.18709486688967988
0.744,0.0124,1.547,0.021887777780451804,1.562484007033932,0.20486052044014788,0.19649031253010704
0.745,0.0167,2.547,0.021873306009986503,1.562484007033932,0.2046998399821764,0.19649031253010704
0.746,-0.0033,-0.453,0.02183286419959236,1.562484007033932,0.2042508134701191,0.19649031253010704
0.747,-0.0215,-0.453,0.021887332067400712,1.5480798536395348,0.20485557167611482,0.19312429090102692
0.748,-0.0183,-0.453,0.021887565586519952,1.5384866444854828,0.20485816444519686,0.19088251044918944
0.749,-0.0155,0.547,0.022003868655364058,1.5335404116789364,0.20614948055680665,0.18972665448504947
0.75,-0.0021,-0.453,0.022009051221770947,1.5170221726253068,0.2062070227314648,0.1858666046503636
0.751,-0.0188,-0.453,0.022107187838321954,1.5514319692658716,0.20729663623307457,0.19390762702585712
0.752,-0.0253,-3.453,0.022149961806018362,1.551431969265872,0.20777155675058803,0.19390762702585723
0.753,-0.0156,-3.453,0.02212129537002533,1.5660542896986593,0.20745327253824405,0.19732463082305693
0.754,0.0119,0.547,0.022104006234421665,1.5660542896986576,0.20726131079911966,0.1973246308230565
0.755,0.0557,1.547,0.02212892991723318,1.5627335397526902,0.20753803912189764,0.19654862435902926
0.756,0.0263,1.547,0.02187053698819587,1.5815676628702209,0.20466909545851777,0.20094985947799326
0.757,0.0212,0.547,0.02199753811800365,1.5861183402298142,0.20607919242967562,0.20201328042332384
0.758,0.0164,1.547,0.02184232049707024,1.60940563755381,0.20435580699617756,0.20745515155098612
0.759,-0.0054,0.547,0.021253632473791577,1.6170935486799107,0.19781958798900395,0.2092516941470242
0.76,-0.0174,-1.453,0.021334764324358466,1.621784975325023,0.19872039711504838,0.21034800596253383
0.761,0.0007,-2.453,0.021325960803884835,1.621784975325023,0.19862265138968213,0.21034800596253383
0.762,0.0088,-1.453,0.021367787270166968,1.629414479247741,0.19908705177342625,0.21213089972378807
0.763,0.0055,-0.453,0.021159962823793746,1.629414479247741,0.19677957133756732,0.21213089972378807
0.764,0.0084,0.547,0.02152007091250526,1.6357785269447025,0.2007778611634145,0.2136180764852354
0.765,0.0005,-2.453,0.021529090028753594,1.6588388090023616,0.20087800065448472,0.21900689775458962
0.766,-0.0114,-2.453,0.021529425747916824,1.6588388090023616,0.20088172815341285,0.21900689775458962
0.767,-0.027,-0.453,0.021456717024945202,1.6796893380136626,0.20007444124034196,0.22387933487103276
0.768,-0.0409,1.547,0.021593052577756244,1.6884804855908697,0.201588178561978,0.22593368628475935
0.769,-0.0282,-0.453,0.021618035885680318,1.68848048559087,0.2018655689039896,0.22593368628475938
0.77,-0.0203,1.547,0.022700797472082205,1.6796893380136626,0.21388750001422624,0.22387933487103276
0.771,0.0024,-0.453,0.022901318433497807,1.7192356991446462,0.21611388965952905,0.23312069069900396
0.772,0.0055,1.547,0.02289704462019492,1.7178376961230009,0.21606643739510575,0.2327939996204288
0.773,-0.0334,-0.453,0.02291166000526424,1.7091975521386569,0.21622871240990088,0.230774935345469
0.774,-0.0179,0.547,0.02297891655645328,1.7091975521386569,0.2169754637125525,0.230774935345469
0.775,0.0154,0.547,0.02296482711001383,1.6988705987299262,0.21681902820855636,0.2283616905274979
0.776,0.0109,2.547,0.023073389777111274,1.6988705987299262,0.21802440243071183,0.2283616905274979
0.777,0.0308,1.547,0.023129547561843513,1.7031078733320397,0.2186479238299129,0.22935187423136028
0.778,0.0344,1.547,0.0229858742850111,1.700054853876776,0.21705271556047204,0.2286384321262229
0.779,-0.0019,1.547,0.022973312423612776,1.6958099507944222,0.2169132408744067,0.2276464657678176
0.78,0.0028,-1.453,0.022790683554432683,1.687056997030325,0.21488550761198139,0.22560103964095138
0.781,-0.0015,1.547,0.022593610078656907,1.687056997030325,0.21269739549276193,0.22560103964095138
0.782,0.0104,0.547,0.022652743120326245,1.6796893380136628,0.2133539512500177,0.22387933487103281
0.783,0.014,1.547,0.022212464459266834,1.6734922850750111,0.20846552539612997,0.22243118212946525
0.784,-0.0024,-0.453,0.021913927228781823,1.6749273020635207,0.20515085847055295,0.2227665227835921
0.785,-0.0173,-0.453,0.021505571541537725,1.6703851370836562,0.20061687425632194,0.22170509104606137
0.786,-0.0308,-3.453,0.021547028063424192,1.6672721985849785,0.20107716713745868,0.22097764681316248
0.787,-0.0087,-3.4529999999995558,0.021406040793037283,1.6658305871793166,0.19951178167005937,0.22064076514859524
0.788,-0.0174,0.546999999999889,0.02074795295346775,1.6658305871793164,0.19220501462997627,0.22064076514859518
0.789,-0.0095,-0.452999999999889,0.02072550400608877,1.6643877271206926,0.19195576336148212,0.22030359169368371
0.79,0.0271,0.5470000000002221,0.020664009004934928,1.6569192699699595,0.1912729827043366,0.2185583320024752
0.791,0.0427,2.547,0.02067395404692765,1.6479597656536948,0.19138340277393126,0.21646463829562299
0.792,0.0188,2.547000000000111,0.020618509889408866,1.6525635691921747,0.19076780479693714,0.21754047398427837
0.793,0.0144,3.546999999999778,0.020594929377068857,1.647959765653695,0.19050598973214738,0.21646463829562304
0.794,0.0104,1.547,0.020528252425867408,1.6404165172971101,0.18976567374379746,0.2147019010887516
0.795,0.0067,1.547,0.020494282155504966,1.6328384216538325,0.1893885009153353,0.21293102062503533
0.796,0.0165,1.5469999999997779,0.020426876597565195,1.6098901186889663,0.18864009518670963,0.20756836708925244
0.797,0.0015,-0.453,0.0204275663077277,1.6098901186889663,0.18864775305725454,0.20756836708925244
0.798,-0.0228,-0.453,0.02031493488824811,1.6146024759240811,0.18739720336761195,0.20866957005085926
0.799,-0.0131,-0.4530000000003331,0.020391234247167052,1.616089785331364,0.18824435720849295,0.20901713061182883
0.8,-0.0218,-3.452999999999667,0.02037698568239579,1.6146024759240811,0.18808615500936515,0.20866957005085926
0.801,-0.0138,-0.45300000000022206,0.020400024782520183,1.6237460494931388,0.18834195875971588,0.2108062778154756
0.802,-0.0069,-2.452999999999889,0.020691166043005388,1.6252249912663712,0.19157450803081782,0.21115188299340898
0.803,0.0177,-1.452999999999778,0.020617702001496156,1.6355401386643456,0.1907588347956429,0.2135623689343763
0.804,0.0144,0.5470000000002221,0.020602854238408554,1.6029368865176168,0.19059397968144048,0.20594350728389368
0.805,-0.0005,2.546999999999889,0.02062978006486153,1.602936886517617,0.19089293785909395,0.20594350728389374
0.806,0.0293,1.547000000000111,0.01986425030957853,1.593673926552853,0.18239324032971316,0.20377890081678776
0.807,0.0014,2.547,0.019695964159919293,1.5858724870500107,0.18052475466914097,0.2019558284441524
0.808,-0.0023,1.547,0.019764020745952827,1.5891448855273658,0.18128038878025854,0.20272053593873038
0.809,-0.0186,-1.453,0.019707703606290015,1.5846028998525719,0.1806550980589634,0.20165914610194377
0.81,-0.0335,0.547,0.019702805900622164,1.5830860087907348,0.1806007187007773,0.20130467277863914
0.811,-0.0202,1.547,0.01963679611844314,1.587632334076622,0.1798678103080857,0.20236707671354048
0.812,-0.0133,1.547,0.01965927133287994,1.5732105851354379,0.18011735322043165,0.19899694328493708
0.8130000000000001,-0.04269999999999602,-2.453,0.01971678955336301,1.5843568115137403,0.18075597957448317,0.20160163916984644
0.8140000000000001,-0.006799999999998434,-3.453,0.019714835080852443,1.5891448855273658,0.18073427901346034,0.20272053593873038
0.8150000000000001,0.007300000000001455,1.547,0.0196982303010769,1.5891448855273658,0.1805499156955617,0.20272053593873038
0.8160000000000001,0.020400000000000435,2.547,0.019698172482487637,1.5780324794471075,0.18054927373420498,0.20012374331974728
0.8170000000000001,0.0242999999999996,1.547,0.019673514098865596,1.5668412635561355,0.18027549103548637,0.19750853410103894
0.8180000000000001,0.02070000000000546,-0.453,0.019491317013528835,1.5668412635561355,0.1782525518807245,0.19750853410103894
0.8190000000000001,0.0698999999999961,-0.453,0.019060928608275646,1.5668412635561355,0.17347393780392442,0.19750853410103894
0.8200000000000001,0.03479999999999646,3.547,0.018933026427692973,1.5668412635561355,0.17205383644169966,0.19750853410103894
0.8210000000000001,0.0029000000000006547,-0.453,0.018890023565670867,1.5589055475525082,0.17157637450431165,0.19565408344510268
0.8220000000000001,0.008799999999997069,-0.453,0.018921244370071453,1.560445944332,0.17192301993800982,0.1960140496808935
0.8230000000000001,-0.01759999999999948,-1.453,0.01895538526497297,1.550929227011273,0.17230208721533335,0.19379014415432025
0.8240000000000001,-0.012900000000001433,-1.453,0.018860299814897997,1.552477538062946,0.17124635089743734,0.1941519598296867
0.8250000000000001,-0.025799999999999556,-0.453,0.018782780816977537,1.550929227011273,0.1703856553718127,0.19379014415432025
0.8260000000000001,-0.021799999999999577,1.547,0.01882971102078409,1.5589055475525082,0.17090672269100582,0.19565408344510268
0.8270000000000001,-0.0179999999999989,0.547,0.01879888099287684,1.5397942558086064,0.1705644160592576,0.1911880784250051
0.8280000000000001,-0.008099999999999677,-1.453,0.018874048745472015,1.5397942558086062,0.17139900564459137,0.19118807842500504
0.8290000000000001,-0.005200000000001476,-0.453,0.01855931961416568,1.5317184177351195,0.16790455960728526,0.18930088346921692
0.8300000000000001,-0.018500000000000242,0.547,0.018560402912609613,1.5235997742966414,0.16791658749913912,0.18740368558021525
0.8310000000000001,-0.02069999999999726,0.547,0.018559033144197292,1.5186050543933332,0.16790137892349632,0.18623649895248381
0.8320000000000001,0.004000000000001088,1.547,0.018742126448962435,1.5186050543933332,0.16993426882675441,0.18623649895248381
0.833,0.0138,0.547,0.018948812210606354,1.5413537521326444,0.1722291064153385,0.19155250792068268
0.834,0.0345,-0.453,0.019083172846057036,1.5317184177351195,0.1737209161762328,0.18930088346921692
0.835,0.0425,0.547,0.01922675047382959,1.5317184177351195,0.17531506245158118,0.18930088346921692
0.836,0.0058,-0.453,0.01915866649663481,1.5366705151842983,0.1745591242156612,0.19045810990709502
0.837,-0.0098,1.547,0.01891041497775067,1.5019225643199388,0.17180278090286008,0.18233806626599203
0.838,-0.005,-0.453,0.018935811300278185,1.4679889458651303,0.17208475695715816,0.17440831916150298
0.839,-0.0093,0.547,0.01908520960756025,1.4679889458651307,0.17374353039416143,0.1744083191615031
0.84,-0.0133,-0.453,0.01944088160280197,1.5283230644119103,0.17769256615451332,0.18850744338208644
0.841,-0.0095,-1.453,0.019931491283411457,1.5609456214886548,0.1831398186765595,0.19613081628777448
0.842,0.007,-0.453,0.019628081419578947,1.5369242389486861,0.17977105077144578,0.19051740111674523
0.843,0.0042,0.547,0.01954961406646263,1.5141089915470385,0.17889982563249185,0.18518584055056636
0.844,-0.0037,0.547,0.01963160688970337,1.4774694447937673,0.17981019416136584,0.1766237610257
0.845,-0.0015,-0.453,0.02006758702385195,1.5141089915470438,0.18465089335497442,0.1851858405505676
0.846,-0.0037,-0.453,0.020207722567360014,1.5141089915470438,0.18620682207585557,0.1851858405505676
0.847,0.0021,-1.453,0.02019530545095101,1.5141089915470463,0.18606895449731234,0.1851858405505682
0.848,-0.0254,0.547,0.020620351620413098,1.52385567435634,0.190788253585973,0.18746348535547752
0.849,-0.0135,-0.453,0.02053311747901379,1.5238556743563403,0.18981969056015666,0.18746348535547758
0.85,-0.0099,1.547,0.020497545192482914,1.5254314652780099,0.18942473050294878,0.18783172263954534
0.851,0.0394,0.547,0.02038182703231062,1.492032610645305,0.18813990864810484,0.18002694133779137
0.852,0.0184,3.547,0.020350547589493128,1.493641975247497,0.18779261215048149,0.18040302425719162
0.853,-0.0135,-0.453,0.020340046694384873,1.4818135473849101,0.18767602042874634,0.17763890873208427
0.854,0.0159,0.547,0.02027614658571963,1.4766774963429417,0.18696653579800415,0.17643869526434589
0.855,0.0003,-0.453,0.020260542606562158,1.4766774963429405,0.1867932843963728,0.1764386952643456
0.856,0.005,0.547,0.020274270201987996,1.4512619719502944,0.1869457022588009,0.17049949130853825
0.857,0.0268,-1.453,0.02006477249934753,1.4426906363586238,0.18461964361345687,0.1684965064609255
0.858,0.0068,-1.453,0.02010149094176963,1.4270778651652647,0.18502732947045203,0.16484805006867637
0.859,0.0032,-0.453,0.020280976617686575,1.4183603894118195,0.18702016377326305,0.16281091458881597
0.86,-0.0066,1.547,0.020710833934470405,1.412993713094524,0.19179288116045734,0.1615568076610659
0.861,-0.0094,0.547,0.02045899044263125,1.4290332803220664,0.18899665607501367,0.16530499950064964
0.862,-0.0174,-2.453,0.020430306339510373,1.4203278062742573,0.1886781757040725,0.16327066862857498
0.863,-0.0047,-1.453,0.020398235931174107,1.4152441345221092,0.1883220970949514,0.1620826953680618
0.864,0.0022,0.547,0.020001240881063104,1.3990464886042333,0.18391425034135594,0.15829756305192313
0.865,0.0,-1.453,0.019991673941025394,1.366360550974827,0.1838080283479702,0.15065937911879862
0.866,0.0058,-1.453,0.019994522373007098,1.3572531511357897,0.183839654565123,0.14853112457974296
0.867,0.0041,-0.453,0.01990804502351586,1.3313624744161998,0.18287949422028263,0.14248088507982493
0.868,-0.0039,1.547,0.019791615212082257,1.320195425041014,0.1815867708822817,0.13987132319161968
0.869,-0.0176,-0.453,0.01968619870076006,1.3201954250410135,0.18041632851259226,0.1398713231916196
0.87,-0.0158,0.547,0.018513469312381015,1.3313624744161965,0.16739548246938038,0.14248088507982415
0.871,-0.0111,0.547,0.018205541838652986,1.2780085611273544,0.16397655541969694,0.13001292384607593
0.872,-0.0126,-0.453,0.018226109990137712,1.2895409882199207,0.16420492416062724,0.132707868697501
0.873,-0.0275,0.547,0.018276209911246063,1.291402725446796,0.16476118493655148,0.133142927086685
0.874,-0.0054,-0.453,0.018244251280025693,1.2969719026517148,0.16440634739176427,0.13444435525220486
0.875,-0.0203,1.547,0.018351102389172508,1.2911007533342276,0.16559271813981055,0.1330723610051908
0.876,-0.0015,-1.453,0.018227264814369436,1.2929602446527155,0.16421774620523297,0.13350689456129355
0.877,0.0351,1.547,0.018124202302111266,1.2814585893691637,0.16307344035066992,0.13081914059237804
0.878,-0.0019,0.547,0.01805220944860983,1.2814585893691641,0.16227410175564297,0.13081914059237815
0.879,0.0028,0.547,0.01825583601536641,1.287070795739153,0.16453497302084596,0.13213062398963157
0.88,-0.0016,-0.453,0.018547519701357876,1.3156619437458859,0.16777354485698032,0.1388119206931454
0.881,0.0262,1.547,0.01845689365101896,1.3138345829018965,0.16676732137468278,0.13838489551807368
0.882,0.0298,2.547,0.018353088575431182,1.3232408511760818,0.16561477081943435,0.14058299085855744
0.883,0.0266,-0.453,0.018435666094090752,1.3232408511760818,0.16653163123732062,0.14058299085855744
0.884,0.0236,-0.453,0.018505688218231384,1.3325807252145752,0.1673090887710779,0.14276557092179679
0.885,-0.0062,-1.453,0.018192857982553465,1.3436448441451359,0.1638357262231724,0.14535107960163826
0.886,-0.0022,-0.453,0.01771277691375564,1.3436448441451359,0.15850537316216715,0.14535107960163826
0.887,-0.0131,0.547,0.01775191717750448,1.3436448441451359,0.15893994856670166,0.14535107960163826
0.888,-0.0295,0.547,0.017944866952409707,1.3325807252145752,0.16108227512388462,0.14276557092179679
0.889,-0.0382,-4.453,0.018118494924193054,1.3343824145295098,0.16301007117964048,0.1431865970686935
0.89,-0.0516,-3.453,0.018115991172509463,1.3325807252145752,0.16298227195713821,0.14276557092179679
0.891,-0.0249,-0.453,0.018131795961368966,1.3513553608244577,0.1631577529543097,0.14715290475604653
0.892,-0.0067,0.547,0.018115501427542067,1.3643153126153789,0.16297683430555032,0.15018143943251314
0.893,0.023,1.547,0.018116282817097193,1.3643153126153789,0.1629855100948653,0.15018143943251314
0.894,0.0429,3.547,0.018132242103747975,1.368117755989007,0.16316270648518222,0.15107000999188824
0.895,0.0247,1.547,0.01814616252122808,1.366360550974813,0.16331726525608178,0.15065937911879537
0.896,0.0149,1.547,0.01827101911557663,1.3663605509748131,0.16470355139216927,0.15065937911879543
0.897,0.0417,1.547,0.018267908601499416,1.368117755989007,0.1646690152704382,0.15107000999188824
0.898,-0.0127,-0.453,0.018662333466412717,1.368117755989007,0.16904832518843166,0.15107000999188824
0.899,-0.0051,0.547,0.01878272109166688,1.366360550974813,0.17038499224007692,0.15065937911879537
0.9,0.0018,0.547,0.01882930192246889,1.366360550974813,0.17090218046137337,0.15065937911879537
0.901,0.008,0.547,0.018838751503165725,1.3554818616550321,0.17100709941083064,0.14811720239075052
0.902,0.0023,-1.453,0.01857160528185757,1.3593090153792804,0.16804096770717541,0.14901154736618274
0.903,0.0073,-0.453,0.018799315661369224,1.308933108418755,0.1705692421952573,0.1372394988624774
0.904,0.012,0.547,0.01912739857310539,1.3201954250410002,0.17421195561700412,0.13987132319161646
0.905,0.0075,-0.453,0.01937964885728585,1.320195425041,0.1770126973287899,0.1398713231916164
0.906,0.0035,0.547,0.019409575589506175,1.3480842248449432,0.1773449746441524,0.1463884922871408
0.907,-0.0122,1.547,0.01940349085546699,1.3463008721246488,0.17727741567792948,0.14597175111086835
0.908,-0.027,0.547,0.019232545261878807,1.351643871461782,0.17537940213965378,0.14722032510480726
0.909,-0.0459,-0.453,0.019283174152317076,1.356965833113273,0.17594153607632143,0.14846398292610077
0.91,-0.0093,-2.453,0.019362751248789042,1.356965833113273,0.1768250827256976,0.14846398292610077
0.911,0.0171,0.547,0.019363289548866316,1.351643871461782,0.17683105948598066,0.14722032510480726
0.912,-0.0068,-1.452999999999778,0.019366590254509153,1.3498652215195386,0.1768677073097968,0.1468046828929934
0.913,0.0149,0.546999999999778,0.019288557878614426,1.3310695677733737,0.1760013117346713,0.14241243745447282
0.914,0.0029,-1.452999999999778,0.019335154149694993,1.3271609820352612,0.1765186713897972,0.14149906311213084
0.915,-0.008,0.547,0.019528837191017275,1.3253494758910185,0.17866913942379464,0.14107574292830774
0.916,0.0084,0.546999999999889,0.019752220980004693,1.3196045893512187,0.18114937566054048,0.1397332542849211
0.917,0.0113,-0.453,0.019829528132874762,1.3156619437458856,0.18200771906485438,0.13881192069314535
0.918,0.0034,-0.45299999999977797,0.020023798160966066,1.3675476248343263,0.18416470442878705,0.15093677940585368
0.919,0.0201,1.5469999999997779,0.0202423329900654,1.356678454242421,0.18659110253305483,0.1483968270531701
0.92,0.0089,-0.45299999999977797,0.020172241705437244,1.3622670036426057,0.18581287710853842,0.14970278219271485
0.921,-0.0091,1.546999999999889,0.020705045538890094,1.3605022419023063,0.1917286124481395,0.14929038543287948
0.922,-0.0161,0.5470000000001111,0.020838963083445093,1.3643153126153789,0.19321550255886297,0.15018143943251314
0.923,-0.0139,1.5469999999997779,0.02080689832930533,1.3751241217509063,0.19285948672843822,0.15270728627255967
0.924,-0.0236,-0.452999999999889,0.020654339090007627,1.3841139364999555,0.19116561737797313,0.1548080630456322
0.925,-0.0146,0.546999999999889,0.020716905431930006,1.4335241697237646,0.19186029316057998,0.16635444895082022
0.926,0.0101,-0.452999999999889,0.020617518878195008,1.433524169723754,0.19075680157268898,0.16635444895081772
0.927,-0.008,0.5470000000001111,0.020656172466782672,1.4457477325557098,0.19118597340977692,0.16921090123580845
0.928,0.0284,1.547000000000111,0.020373157440142897,1.4354708036757746,0.1880436499323329,0.16680934635485065
0.929,0.0332,2.546999999999667,0.020565436660393562,1.439085247725503,0.19017853130309254,0.16765398446133023
0.93,0.0028,-0.45299999999977797,0.02058748473670616,1.4548371844452346,0.19042333168931985,0.17133496162442693
0.931,0.0069,1.547,0.020628624223689607,1.4564876491878462,0.19088010452337373,0.17172064899317058
0.932,0.0179,1.547,0.02046641612134122,1.482339730721572,0.18907910358609933,0.17776186941179728
0.933,0.0212,1.547,0.020301037963148336,1.4622280674733668,0.1872429054332451,0.17306209347657528
0.934,0.0064,1.547,0.020301037963148336,1.467414693368812,0.1872429054332451,0.17427412548345506
0.935,0.009,0.547,0.020193517293961592,1.4690510274687143,0.18604910054200857,0.17465651074566804
0.936,-0.0131,-0.453,0.0203354460746809,1.4655104910205483,0.1876249396240335,0.17382914367057783
0.937,-0.028,-0.453,0.020558414991051162,1.467148948908559,0.19010056951891646,0.1742120252283045
0.9380000000000001,-0.025499999999998146,0.547,0.020524348318397032,1.467148948908558,0.18972232633320843,0.17421202522830428
0.9390000000000001,-0.008800000000000722,-0.453,0.020311977591139015,1.465510491020547,0.1873643684180122,0.17382914367057753
0.9400000000000001,-0.015299999999998922,-2.453,0.019956091955301274,1.404188802922274,0.18341296060035803,0.1594992401476965
0.9410000000000001,-0.005599999999998579,-2.453,0.01929419177686387,1.3660751484559308,0.1760638650589557,0.15059268508789697
0.9420000000000001,0.007200000000000166,-0.453,0.01914068402206931,1.3768701424656171,0.174359464315335,0.1531153035526884
0.9430000000000001,0.008699999999998145,-1.453,0.019208556231616297,1.3768701424656171,0.17511305128934737,0.1531153035526884
0.9440000000000001,-0.007999999999996735,-0.453,0.019071653390229662,1.366075148455928,0.17359301534734925,0.1505926850878963
0.9450000000000001,0.0213999999999978,-0.453,0.01873930980274592,1.3141313310548837,0.16990299552781024,0.13845424084327226
0.9460000000000001,0.0015999999999955813,0.547,0.018689125574694945,1.308635181509144,0.16934579868962715,0.1371698780805975
0.9470000000000001,-0.03819999999999943,-1.453,0.01866122004433144,1.2972725081104075,0.1690359628330195,0.13451460196841747
0.9480000000000001,-0.03309999999999842,-0.453,0.018191091071477598,1.285809426903794,0.16381610816182007,0.13183586214797297
0.9490000000000001,-0.018899999999996614,-0.453,0.018152692359032854,1.2876765592752182,0.16338976622142437,0.1322721812966578
0.9500000000000001,0.011600000000001321,-0.453,0.018147216995251132,1.285809426903794,0.16332897310961286,0.13183586214797297
0.9510000000000001,0.02350000000000122,-1.453,0.018289297819400304,1.2898433254974264,0.1649065003339422,0.13277852011223512
0.9520000000000001,0.03450000000000037,0.547,0.018383453002654496,1.299423273349551,0.16595190787422545,0.13501720160866057
0.9530000000000001,0.03779999999999969,1.547,0.018581055057457236,1.2994232733495508,0.16814588882064407,0.13501720160866051
0.9540000000000001,0.03499999999999732,0.547,0.018634091623568366,1.2994232733495508,0.16873475524527437,0.13501720160866051
0.9550000000000001,0.010799999999998923,2.547,0.018830014710001477,1.299423273349551,0.170910094560581,0.13501720160866057
0.9560000000000001,0.0010999999999990453,-0.453,0.01881614281683594,1.3012708719996244,0.17075607455645542,0.13544895603724263
0.9570000000000001,-0.007500000000000888,1.547,0.019273395366563625,1.299423273349551,0.17583296195423753,0.13501720160866057
0.9580000000000001,-0.015500000000000255,1.547,0.02012730733877538,1.2898433254974266,0.1853139696230169,0.13277852011223518
0.9590000000000001,-0.01779999999999727,-0.453,0.02041773709087471,1.2879793342045744,0.18853861899731167,0.13234293498367095
0.96,0.0068,-1.453,0.019921139968037405,1.2994232733495508,0.18302488774264938,0.13501720160866051
0.961,0.0101,-0.453,0.019901317283128314,1.2858094269037939,0.18280479593722349,0.1318358621479729
0.962,0.0014,-0.453,0.01982825746632397,1.2858094269037939,0.18199361081985424,0.1318358621479729
0.963,-0.0142,0.547,0.01988949285739678,1.2798870736541055,0.18267350901926493,0.13045190235612164
0.964,-0.0275,-0.453,0.01993761183984897,1.2798870736541068,0.18320777537983768,0.13045190235612195
0.965,-0.0296,-0.453,0.019943181744396833,1.2758216957283968,0.18326961818032667,0.12950188817245964
0.966,-0.0184,0.547,0.019928458978411,1.285506140896839,0.18310615091231805,0.13176498903025086
0.967,-0.0281,3.547,0.019962286019317467,1.2855061408968396,0.18348173346026572,0.13176498903025102
0.968,-0.0299,-0.453,0.019930812984632996,1.2873737131368213,0.18313228750691957,0.13220141096922405
0.969,-0.0052,-1.453,0.019967254963452183,1.2892385800416808,0.18353690378107168,0.13263720071439258
0.97,0.0493,-0.453,0.019878816766559636,1.2836358515136963,0.1825549720946246,0.13132793213812238
0.971,0.0261,-1.453,0.019909527899712297,1.2836358515136967,0.18289595863470448,0.1313279321381225
0.972,0.0051,1.547,0.019888716010460588,1.2720498894724588,0.18266488366677053,0.1286204770203731
0.973,0.0112,1.547,0.01982424986003651,1.2761272833547952,0.18194911425910634,0.12957329914205098
0.974,0.017,3.547,0.01979477447839024,1.2935632502180552,0.1816218483013465,0.13364780737441165
0.975,0.0015,1.5469999999991118,0.01965481308113127,1.2935632502180556,0.18006785313096807,0.13364780737441176
0.976,-0.0127,-2.453,0.019617584807078755,1.297573043928664,0.17965450659962354,0.13458483241076735
0.977,-0.0083,-0.45300000000022206,0.019853271357459987,1.303415039554975,0.18227134072809326,0.1359500139036834
0.978,-0.0281,-1.453,0.01985894914635264,1.3207859964284492,0.18233438137137353,0.14000933033505902
0.979,-0.0099,-2.4529999999993337,0.019803838818856993,1.3095287588965294,0.18172248991813414,0.13737869290857388
0.98,-0.0131,0.547,0.019554470744165973,1.2867188560086842,0.17895374945608097,0.13204838127029542
0.981,-0.0043,-3.4529999999995558,0.019571942562314232,1.2926099084472842,0.17914773952442736,0.13342502656026337
0.982,0.0146,-1.453,0.019718691478669007,1.281105107878231,0.18077709670247574,0.1307365375881347
0.983,0.0266,-1.452999999999556,0.01966758510363939,1.281105107878231,0.1802096612415063,0.1307365375881347
0.984,0.011,0.547,0.019554495664412364,1.271387139481713,0.17895402614624906,0.12846560288494555
0.985,0.0248,0.547,0.019595048075160375,1.2596885251740169,0.1794042806570197,0.12573182272364236
0.986,0.0303,0.547,0.019577289753559886,1.2577798461825058,0.1792071095331124,0.1252857947904147
0.987,0.0057,0.546999999999778,0.0195444847993608,1.2577798461825058,0.17884287524145598,0.1252857947904147
0.988,0.0021,-0.453,0.019392994224839522,1.2596885251740169,0.1771608713048396,0.12573182272364236
0.989,0.0053,0.546999999999778,0.019712042590889454,1.2694960494020022,0.18070327392205085,0.1280236852007503
0.99,0.0082,-0.453,0.02045884048275661,1.281105107878231,0.18899499106647913,0.1307365375881347
0.991,0.0056,1.5469999999997779,0.02040161786788821,1.2729691486444201,0.18835964682954368,0.1288352932730767
0.992,0.0175,0.547,0.020411900999396878,1.2647808542863486,0.18847382071615665,0.12692181907158254
0.993,0.002,-0.453,0.02045715667090247,1.2764327978212204,0.1889762956580279,0.1296446930153198
0.994,-0.0241,-0.453,0.020458892475727877,1.2723563829910671,0.18899556834584202,0.12869209968257064
0.995,-0.0205,-1.452999999999778,0.020445785888968376,1.278313625972089,0.1888500455593931,0.13008421264990444
0.996,-0.0108,-0.453,0.020420237898381533,1.280191690856534,0.1885663855305398,0.1305230865530605
0.997,-0.0021,-0.45299999999977797,0.020472631928944635,1.280191690856534,0.18914811786564267,0.1305230865530605
0.998,-0.0047,0.547,0.02020336288233502,1.2761272833548047,0.18615841637538463,0.1295732991420532
0.999,-0.0025,-0.453,0.019943085621258436,1.276127283354805,0.18326855092252733,0.12957329914205326
1.0,-0.0228,-1.453,0.019882589498770788,1.276127283354805,0.18259686084216556,0.12957329914205326
1.0010000000000001,-0.020200000000001533,1.547,0.019856135573310438,1.276127283354805,0.18230314219396665,0.12957329914205326
1.002,-0.0271,-1.453,0.019833963645900017,1.2701597861350815,0.1820569666856583,0.12817878992217244
1.0030000000000001,-0.015800000000003065,-0.453,0.019614050979094105,1.2742432280888578,0.17961527041215583,0.12913302538198437
1.004,-0.0296,0.547,0.019548682467430443,1.2823711039950594,0.1788894820632999,0.13103238075190116
1.0050000000000001,-0.0018999999999902745,0.547,0.019247530361183117,1.286415784409187,0.1755457821015761,0.13197755825618726
1.006,0.0419,-0.453,0.019221131911187687,1.2770436074841363,0.17525267939896108,0.12978742952196
1.0070000000000001,0.059299999999996536,0.547,0.019220900677260108,1.2829790865107253,0.17525011200242374,0.13117445659917937
1.008,0.0437,-0.453,0.01920764754374762,1.2732754208857147,0.1751029621034221,0.1289068642262842
1.0090000000000001,0.010299999999997091,1.547,0.01914482534112543,1.2732754208857147,0.17440544549256132,0.1289068642262842
1.01,-0.0028,-1.453,0.01924746906729736,1.2848503319126694,0.1755451015539086,0.13161173689770148
1.0110000000000001,0.0011999999999959586,0.547,0.01924464622298935,1.2808007079169266,0.17551375943738728,0.13066540415699254
1.012,-0.017,-0.453,0.019372236695816725,1.2826751312755313,0.17693039989999407,0.13110342709345826
1.0130000000000001,-0.020299999999996713,0.547,0.01947863220780993,1.311362119846881,0.17811171214055035,0.13780712021310362
1.014,-0.0055,0.547,0.01942786210534939,1.3207859964284552,0.17754801032298906,0.14000933033506044
1.0150000000000001,0.002399999999996292,1.547,0.019272006042088365,1.3724779795429554,0.17581753624710025,0.15208892491096454
1.016,-0.0143,0.547,0.01936598835661795,1.4104186213155683,0.17686102442126964,0.16095504965505888
1.0170000000000001,0.0012999999999969358,0.547,0.019281303758168035,1.4264871434321111,0.17592076903961532,0.16471000779183306
1.018,-0.0125,0.547,0.019497788061772735,1.3823314998277716,0.17832440010398637,0.15439153593523844
1.0190000000000001,-0.007099999999995271,-1.453,0.019279815865036413,1.4200088937888709,0.17590424892202675,0.16319614385129705
1.02,0.0142,-0.453,0.01927460219386437,1.4200088937888709,0.1758463613903218,0.16319614385129705
1.0210000000000001,-0.0005999999999994226,-0.453,0.018927874825256732,1.421699791598667,0.17199663806084314,0.1635912797849752
1.022,0.002,-1.453,0.018747379898509976,1.416345768668052,0.16999259801883587,0.1623401297525095
1.0230000000000001,0.008799999999997513,2.547,0.018785000682979384,1.4075618272145967,0.1704103026039304,0.16028746229532975
1.024,-0.0024,-0.453,0.01877292948139435,1.402431880860917,0.1702762757270116,0.15908867539618282
1.025,-0.0082,-1.453,0.018703861469838018,1.3536617241683704,0.16950941173102288,0.1476918651994383
1.026,-0.0321,-1.453,0.0187231413343323,1.3483267209774905,0.16972347658673612,0.1464451597777439
1.027,-0.0093,-2.453,0.018690414107605136,1.329509317186726,0.16936010530529777,0.14204783169961577
1.028,-0.0242,-0.453,0.01867258157377126,1.3295093171867256,0.1691621102009607,0.14204783169961568
1.029,-0.0109,-1.453,0.01847925848433431,1.3426801501080263,0.1670156387224588,0.1451256459433423
1.03,-0.0087,-1.453,0.018484309400431102,1.325596130980604,0.16707171918017158,0.1411333823010452
1.031,0.025,-0.453,0.018512448490133546,1.325596130980604,0.16738414825242162,0.1411333823010452
1.032,0.0109,1.547,0.018539931260375262,1.2851537726853468,0.1676892901919896,0.1316826461817122
1.033,-0.0022,0.547,0.018624814601114356,1.279228384003256,0.16863175221464338,0.13029797705757035
1.034,-0.0141,-0.453,0.018624814601114356,1.2732754208857542,0.16863175221464338,0.12890686422629344
1.035,-0.0033,-0.453,0.018667981731330344,1.2713871394817524,0.16911103802622054,0.12846560288495476
1.036,-0.0066,-0.453,0.01855478603791176,1.3231932494598804,0.1678542231878074,0.14057186709432584
1.037,0.014,0.547,0.01869994852545581,1.4035884480092455,0.1694659662039633,0.1593589467498794
1.038,0.0436,1.547,0.018692373279118588,1.412397100810253,0.16938185803947645,0.1614173888560834
1.039,0.0555,1.547,0.018730486593360646,1.4140971004034373,0.16980503119592674,0.1618146517318253
1.04,0.001,1.547,0.018747530970401688,1.4140971004034384,0.16999427537412595,0.16181465173182558
1.041,0.0086,1.547,0.01873829043066669,1.4245282332596343,0.1698916774121086,0.1642522416302656
1.042,0.0154,1.547,0.018771799868302682,1.4194596050529997,0.1702637336023742,0.16306778380715373
1.043,0.0091,0.547,0.01871299637692978,1.4231147151206103,0.16961083685095213,0.16392192491544205
1.044,0.0033,-1.453,0.018722628586430663,1.4248019270709233,0.16971778353294864,0.1643161995223624
1.045,0.0188,0.547,0.018570517000593548,1.4248019270709233,0.16802888449093561,0.1643161995223624
1.046,-0.0147,0.547,0.0184665957652686,1.419459605053002,0.16687504421099103,0.16306778380715425
1.047,-0.0191,0.547,0.01843881907769236,1.4194596050530017,0.16656663889932702,0.1630677838071542
1.048,-0.0072,-0.453,0.01843855394913931,1.419459605053002,0.16656369516984842,0.16306778380715425
1.049,-0.0108,-0.453,0.018435870973782482,1.419459605053002,0.16653390602206622,0.16306778380715425
1.05,0.0054,-0.453,0.01845292159975093,1.4211511564113883,0.16672321958227504,0.16346307246474678
1.051,-0.0215,-0.453,0.018324326754875987,1.4526047402459519,0.1652954275497229,0.17081327490985593
1.052,-0.0179,-1.453,0.018215431429456586,1.4597398314138734,0.16408635981324252,0.172480632271242
1.053,-0.0342,-2.453,0.01801240039628422,1.4717456765433325,0.16183210077349447,0.17528620739076722
1.054,-0.0074,-1.453,0.018017769968082666,1.4768988785396886,0.1618917192740611,0.17649042876385396
1.055,-0.0038,-2.453,0.01829298832026438,1.480412178904035,0.1649474760646177,0.17731143119919632
1.056,-0.0005,-1.453,0.018295179369222814,1.4957289535443208,0.1649718033403248,0.1808907179031967
1.057,0.0024,0.547,0.017829342023817536,1.4973343452492445,0.1597995987244888,0.18126587241967254
1.058,-0.0,1.547,0.017177059973458912,1.5007998079286193,0.15255729351867342,0.1820756959486335
1.059,0.0267,1.547,0.016706254559936122,1.5058535866698262,0.1473299283084741,0.18325668368777437
1.06,-0.0059,0.547,0.016829464861728816,1.5010595949227916,0.1486979356138916,0.18213640403868187
1.061,0.0244,0.547,0.016849459277795253,1.5058535866698237,0.1489199341549914,0.18325668368777379
1.062,0.0204,2.547,0.016854477167493314,1.5058535866698237,0.1489756479197079,0.18325668368777379
1.063,0.0022,1.547,0.016785613604061615,1.5074481959518795,0.14821105391676365,0.1836293185234608
1.064,-0.0124,3.547,0.016665363432040965,1.5156533582817602,0.14687591301207903,0.185546734501774
1.065,-0.0352,-3.453,0.016669592608283126,1.5140673906661406,0.1469228696700126,0.18517611908613477
1.066,0.0035,-2.453,0.01673868398893224,1.5042572870005226,0.14768999313366907,0.1828836538354639
1.067,0.0404,-1.453,0.016701147936629763,1.5026592915567958,0.14727322933211034,0.18251022770763273
1.068,0.0071,-3.453,0.016710119932186105,1.5010595949227898,0.14737284564086595,0.18213640403868145
1.069,0.0027,-1.453,0.016684405487531716,1.4994581916537615,0.1470873374680092,0.18176218155626012
1.07,-0.0332,0.547,0.01681273214790559,1.4943827848010596,0.1485121518408095,0.18057613967133954
1.071,0.0002,-0.453,0.01682006350054723,1.4943827848010591,0.14859355204701324,0.18057613967133943
1.072,-0.0129,0.547,0.01692223405430252,1.4959896211210726,0.14972795446225087,0.18095163177139306
1.073,-0.0089,-1.453,0.017080440321062023,1.4925129897211538,0.15148452291099943,0.18013919829001832
1.074,-0.0054,0.547,0.017238970817502555,1.4774268122293488,0.1532446912906452,0.17661379847323289
1.075,-0.0086,-1.453,0.017339728992961923,1.4774268122293484,0.15436341203155265,0.1766137984732328
1.076,0.0063,-0.453,0.018324222439276196,1.4739063957655443,0.16529426933080366,0.17579113311858977
1.077,-0.0016,-0.453,0.01806535481690697,1.470377550652546,0.1624200551345508,0.1749664981226416
1.078,-0.0085,-2.453,0.01891062453029119,1.4547938886452558,0.17180510757037187,0.17132484408435453
1.079,-0.0108,0.547,0.018806869687435692,1.4547938886452556,0.17065311475050537,0.17132484408435447
1.08,-0.0166,0.547,0.018785619640794865,1.449562105406935,0.17041717490925717,0.17010225952442498
1.081,0.011,-0.453,0.018811572897413427,1.4459738501840858,0.17070533461779602,0.16926374133039715
1.082,0.023,-0.453,0.018653788227237626,1.4476344201518525,0.16895344716729238,0.16965179012959125
1.083,0.0266,-0.453,0.01865925280783248,1.4390414780040877,0.16901412055308912,0.16764375617335325
1.084,0.0168,-0.453,0.018661844127642494,1.4390414780040877,0.16904289204686193,0.16764375617335325
1.085,0.0139,3.547,0.018694440741213608,1.4752712491062736,0.16940481312690428,0.17611007764379902
1.086,0.0382,4.547,0.018697968486564725,1.4804121789040319,0.16944398177872771,0.1773114311991956
1.087,0.002,1.547,0.01868651752955044,1.4903792461758805,0.16931684149401421,0.17964057634899583
1.088,-0.0121,0.547,0.018660328482046098,1.4986778627923971,0.1690260637929081,0.18157983110821715
1.089,0.0096,0.547,0.0181562743581925,1.4986778627923971,0.16342953725474788,0.18157983110821715
1.09,0.0057,1.547,0.017291839517150718,1.4903792461758802,0.1538316938894076,0.17964057634899577
1.091,-0.0125,-1.453,0.017302595281314823,1.4820341623726438,0.15395111542914702,0.17769046294704424
1.092,-0.0092,-1.453,0.01740511768949911,1.4820341623726438,0.15508942449360397,0.17769046294704424
1.093,-0.0063,0.547,0.017377691931735245,1.4771628689697627,0.15478491556511598,0.17655211913003996
1.094,-0.0038,-0.453,0.01735432824536581,1.480675542946049,0.15452550792492817,0.17737297518845194
1.095,-0.006,-0.453,0.017400781463789518,1.4806755429460492,0.15504127926254496,0.177372975188452
1.096,-0.0038,-0.453,0.01732535337462875,1.479052069565631,0.15420379915329868,0.17699359527190314
1.097,0.0019,-0.453,0.017309505508057776,1.4774268122293484,0.15402783986313434,0.1766137984732328
1.098,-0.0035,0.547,0.01731687030702208,1.485797773751992,0.15410961142476115,0.1785699590867664
1.099,-0.0083,0.547,0.017469918312931466,1.4957289535443172,0.15580890756410426,0.18089071790319586
1.1,-0.0069,-3.452999999999778,0.017807727626988876,1.4957289535443172,0.15955961349327372,0.18089071790319586
1.101,-0.0033,-2.453,0.017833084576386916,1.4973343452492431,0.1598411523866528,0.18126587241967224
1.102,0.0003,-2.452999999999778,0.017785346511652863,1.4989380175494853,0.15931111536578293,0.1816406251386117
1.103,-0.0164,-1.453,0.017694837215325127,1.4954682405319026,0.15830618820642195,0.18082979341740751
1.104,-0.0433,-1.4530000000002221,0.017428234752732454,1.483654372632584,0.15534609387045709,0.17806908032421942
1.105,-0.0034,-2.453,0.017444792586671594,1.4885044220318564,0.15552993594746736,0.1792024597553499
1.106,-0.0084,0.546999999999556,0.01744209213638237,1.4731125318131657,0.15549995277503922,0.1756056197349783
1.107,0.0351,-1.453,0.017453307903612852,1.4779971746798433,0.15562448174123703,0.17674708310942167
1.108,0.0177,-1.453,0.01748018821448064,1.4863649240189303,0.15592293455811995,0.17870249308673025
1.109,0.0228,-1.453,0.017491617397308798,1.4763707560668484,0.15604983308345738,0.17636701493884743
1.11,0.0087,1.5469999999997779,0.017311560586604602,1.4833915374575222,0.15405065745569244,0.17800765992276182
1.111,0.0043,0.547,0.017314096596746775,1.4986778627923971,0.15407881484473074,0.18157983110821715
1.112,-0.0076,0.5470000000002221,0.01746632664804925,1.513809835959386,0.15576902921200225,0.18511593264616358
1.113,0.0033,1.547,0.017601524678148527,1.5058535866698248,0.15727013658827552,0.18325668368777406
1.114,0.0067,-0.453,0.017652046529519873,1.5010595949227905,0.15783108206729485,0.18213640403868162
1.115,0.0154,-0.453,0.017608746679356458,1.4640935180258698,0.15735032266256016,0.17349801961091837
1.116,-0.0089,-0.453,0.017300462625267018,1.4275801016062015,0.15392743649150228,0.16496541473960266
1.117,-0.0056,-0.453,0.01730764142912901,1.4098209192966231,0.15400714294448936,0.16081537619640932
1.118,-0.0084,-0.453,0.017362739700971328,1.4044216117244057,0.15461890054348457,0.15955364386320542
1.119,-0.0219,-0.453,0.017558355381439645,1.3680717157544715,0.15679082672206926,0.15105925112109517
1.12,-0.015,-0.45299999999977797,0.017604214475409333,1.3895468237580875,0.1573000014798417,0.15607764241753327
1.121,0.0186,0.547,0.017374015931377346,1.3895468237580875,0.15474410083395182,0.15607764241753327
1.122,0.0233,0.5470000000002221,0.017425434418594427,1.391274744401116,0.15531500168496049,0.15648142999869236
1.123,-0.0249,1.547,0.01746116935782372,1.3950037048065456,0.1557117676794678,0.15735282875674375
1.124,-0.0188,-0.45299999999977797,0.01749270274942596,1.3950037048065456,0.15606188377730057,0.15735282875674375
1.125,-0.0598,0.547,0.01753347001239445,1.3987227239305096,0.15651452379807254,0.15822190439537828
1.1260000000000001,0.009500000000010481,0.547,0.01829734128473458,1.3987227239305096,0.16499580714658743,0.15822190439537828
1.127,0.0567,0.547,0.018477902248236176,1.400439323009671,0.16700058039646556,0.15862304630706908
1.1280000000000001,0.01399999999999829,-0.453,0.018555026470156513,1.40215382052897,0.1678568927135085,0.1590236971176339
1.129,0.0063,-0.453,0.01867609852026067,1.3858031798926542,0.16920115895273125,0.15520281236833908
1.1300000000000001,0.013199999999995804,0.547,0.018648043127019443,1.3858031798926542,0.16888965916454848,0.15520281236833908
1.131,-0.0057,0.547,0.018592003126441752,1.3858031798926542,0.16826744552599354,0.15520281236833908
1.1320000000000001,0.011799999999996535,0.547,0.018565973999539055,1.3875357625635434,0.1679784434276427,0.15560768939128516
1.133,-0.0038,0.547,0.018591785872510598,1.3930005216799426,0.16826503334973372,0.15688471670971593
1.1340000000000001,-0.017899999999997113,-3.453,0.018622966167501226,1.3930005216799426,0.16861122900636008,0.15688471670971593
1.135,-0.0049,-1.453,0.01856208019607257,1.3947241635509129,0.1679352104226869,0.15728750440987543
1.1360000000000001,-0.0009999999999975796,1.547,0.018512131070471505,1.3456746915269637,0.167380623933349,0.14582542266116313
1.137,0.0099,1.547,0.018128177626690934,1.265705392839495,0.16311757848674513,0.12713786903172944
1.1380000000000001,0.006599999999999356,1.547,0.018171377766577953,1.2599980255882846,0.16359723080559047,0.1258041480495473
1.139,0.0037,0.547,0.01817547899017702,1.26411429329075,0.1636427668018752,0.1267660543649141
1.1400000000000001,0.006199999999994027,0.547,0.018175187010457353,1.2622123068286775,0.1636395249431692,0.12632159036940815
1.141,-0.0207,1.547,0.018178382433321514,1.25042785858496,0.16367500380945282,0.12356775218197555
1.1420000000000001,0.011899999999997114,-1.453,0.01824539449355989,1.2462663870576673,0.16441904052248205,0.12259528245146598
1.143,-0.0011,-1.453,0.018225285820009145,1.2520363511042225,0.16419577337745098,0.1239436313094609
1.1440000000000001,-0.0130999999999992,-1.453,0.018241322395624787,1.2501159888163076,0.16437382790923022,0.12349487317562252
1.145,-0.0095,-0.453,0.018241975661491924,1.2501159888163076,0.16438108113778027,0.12349487317562252
1.1460000000000001,-0.012699999999992783,-0.453,0.01834007274729289,1.2501159888163076,0.16547025572840568,0.12349487317562252
1.147,0.0198,1.547,0.018570644650660956,1.256178708027633,0.16803030179307848,0.12491163426095633
1.1480000000000001,0.024200000000002664,1.547,0.01870577675299489,1.256178708027633,0.16953067717159417,0.12491163426095633
1.149,0.0362,-0.453,0.01870596772059649,1.2542646879784871,0.16953279749002767,0.1244643582074797
1.1500000000000001,-0.010900000000001377,0.547,0.01873816717525631,1.2583997097605228,0.16989030890396128,0.12543064705306112
1.151,-0.0171,0.547,0.018955978902774662,1.2157240420843816,0.1723086783918638,0.11545802203997281
