time_sec,bts_raw,diy_raw,bts_rms,diy_rms,bts_norm_rms,diy_norm_rms
0.0,0.0053,-5.036,0.014645957411865612,2.157527719928073,0.026511367642546597,0.03964003003637585
0.001,0.0042,-3.036,0.015295546351403188,2.1561852936207493,0.028287182040900104,0.039601822068923716
0.002,0.005,-1.036,0.015301594402838707,2.153497930522138,0.028303715907423168,0.03952533468094298
0.003,0.0042,0.964,0.015896960629235606,2.150807209654055,0.029931298910732373,0.039448751724553026
0.004,-0.008,2.964,0.017547524404543467,2.1481131183987014,0.034443529244701704,0.03937207284062766
0.005,-0.0349,1.964,0.0178550955806636,2.1718695734186464,0.03528435224803281,0.04004822605308204
0.006,-0.0304,3.964,0.018036242142082364,2.1718695734186464,0.03577956183735967,0.04004822605308204
0.007,-0.0264,4.964,0.018288954376212762,2.1915310369176444,0.03647041415440852,0.04060782813576823
0.008,-0.0228,1.964,0.018300142742952094,2.2123268224737034,0.03650100036291742,0.04119971514910571
0.009000000000000001,-0.013899999999999958,-0.036,0.01831168904819604,2.2479048538993025,0.036532565086163135,0.04221233257123477
0.01,0.0102,-0.036,0.0184981968949135,2.2669069398666712,0.03704243109441528,0.04275316753416942
0.011,0.0392,-1.036,0.018560555740776093,2.2754237708091054,0.03721290465024019,0.04299557249723411
0.012,0.0268,0.964,0.018616318564652765,2.2754237708091054,0.03736534632451429,0.04299557249723411
0.013000000000000001,0.008400000000000015,0.964,0.01864589614920805,2.2564934067999167,0.037446204075200724,0.04245677887558486
0.014,0.0178,1.964,0.01864592057037108,2.259349002665881,0.037446270836579025,0.04253805448327221
0.015,0.0089,-0.036,0.01867219339868203,2.259349002665881,0.037518094206652516,0.04253805448327221
0.016,0.0062,0.964,0.018684577821857517,2.261910608205059,0.037551950135612744,0.04261096257553185
0.017,0.0082,0.964,0.018741546576224438,2.2720102203428167,0.037707688523543205,0.04289841645641411
0.018000000000000002,0.014399999999999965,0.964,0.018814054729988556,2.261910608205059,0.0379059077597636,0.04261096257553185
0.019,0.0045,-0.036,0.018814270845511644,2.2590582503766394,0.03790649856578607,0.04252977912845878
0.02,-0.0045,1.964,0.018816210659447895,2.257485237938574,0.037911801534030225,0.04248500824777244
0.021,-0.0124,-0.036,0.018816381482280195,2.2546272815245465,0.037912268521114977,0.04240366545446523
0.022,-0.0108,0.964,0.01886763942249577,2.2530511755196745,0.03805239496527759,0.042358806525072436
0.023,-0.0044,-0.036,0.018867641979052382,2.2326347475230515,0.03805240195426673,0.04177771673852093
0.024,-0.0033,0.964,0.018909655348817573,2.2120298895322494,0.03816725604492518,0.04119126388135221
0.025,-0.0001,-0.036,0.018915004765391152,2.2016551479176814,0.03818188001771159,0.04089597930016428
0.026000000000000002,0.0005000000000000406,0.964,0.018924844052805773,2.2032680203362935,0.03820877817929799,0.04094188467056606
0.027,0.0122,-0.036,0.01893145267588033,2.187686369912262,0.03822684450908717,0.04049840171064191
0.028,0.0331,-2.036,0.018980946046714645,2.1876863699122615,0.03836214705997912,0.040498401710641896
0.029,0.0297,-4.036,0.019253780491370876,2.1876863699122615,0.03910800848971994,0.040498401710641896
0.03,0.0159,-3.036,0.019358394763632863,2.1564899159696926,0.03939399785876362,0.03961049219161881
0.031,-0.0063,-2.036,0.019363863550014345,2.1217988692009055,0.03940894815887906,0.03862312001439678
0.032,-0.0149,-0.03600000000005551,0.01937997917436984,2.1217988692009055,0.03945300426271192,0.03862312001439678
0.033,-0.0173,-1.0359999999999445,0.019380043215489466,2.0984146822291323,0.03945317933518529,0.03795756224795714
0.034,-0.024,-0.036,0.019468159479884506,1.9748875439549094,0.03969406725909795,0.03444174849126285
0.035,-0.0126,-0.035999999999888975,0.019631888194103705,1.9187221134184085,0.04014166079161921,0.032843175124392464
0.036000000000000004,-0.006799999999999937,1.9640000000000555,0.01982082000783829,1.9153587464506452,0.04065815332207355,0.03274744739994845
0.037,0.0022,2.9639999999999445,0.019821247490648508,1.9135032136165344,0.0406593219536238,0.032694635459549704
0.038,-0.0223,1.9639999999998334,0.019822579808228387,1.9135032136165344,0.040662964178109974,0.032694635459549704
0.039,-0.0257,-1.0360000000000555,0.019822832942799486,1.9045433548103958,0.040663656184991126,0.03243962109356698
0.04,-0.0158,-2.036,0.01982374178310778,1.9045433548103958,0.040666140728072196,0.03243962109356698
0.041,-0.001,-2.036,0.019847941694411703,1.9026772745971017,0.04073229725925171,0.032386508954998464
0.042,0.0176,-3.036,0.019859937943692566,1.904543354810396,0.040765092017448115,0.032439621093566996
0.043000000000000003,0.039200000000000096,-2.036,0.019985883328978354,1.8943598199932838,0.04110939533756914,0.03214977861601929
0.044,0.0534,-2.036,0.02018109335670112,1.8841212447338775,0.041643050941649856,0.03185836958437752
0.045,0.0127,0.964,0.0201811557374695,1.8806959998739083,0.04164322147513639,0.031760880699206455
0.046,-0.028,2.964,0.020212756979989383,1.8791558216683588,0.04172961140276141,0.031717044342285346
0.047,-0.0227,3.964,0.020212796207517363,1.8772645053443857,0.04172971864105436,0.03166321393673249
0.048,-0.0365,1.964,0.020280015859849718,1.8681308478951721,0.04191348043131682,0.03140325293579365
0.049,-0.0405,-3.036,0.02032422609505258,1.8681308478951733,0.04203434020501267,0.03140325293579367
0.05,-0.0441,-1.036,0.020434476059478537,1.8984525337826872,0.0423357361530178,0.032266264917280914
0.051000000000000004,-0.004299999999999671,-2.036,0.020435562222437073,1.8753712816244463,0.042338705452067284,0.031609329243117344
0.052000000000000005,0.043100000000000215,-2.036,0.020497781346276056,1.8753712816244437,0.04250879704267359,0.03160932924311727
0.053,0.0743,-2.036,0.02086141677273654,1.8734761447260346,0.04350288574516848,0.03155539009685894
0.054,0.033,-4.036,0.021163927731882817,1.8734761447260357,0.044329875375401576,0.031555390096858975
0.055,0.0255,-1.036,0.02140628016311293,1.8928307599395509,0.04499240657114635,0.03210625870252634
0.056,0.0303,2.964,0.02118342918305192,1.8928307599395506,0.044383187486595366,0.03210625870252633
0.057,0.0064,2.964,0.021202476700237678,1.8593056348921506,0.04443525865531851,0.031152070841597462
0.058,-0.0065,3.964,0.021038063967976292,1.7887551309351433,0.04398579518780589,0.029144071337851803
0.059000000000000004,-0.026199999999999925,2.964,0.02162773827368917,1.7795363153167132,0.045597817897381994,0.028881686575891612
0.06,-0.0152,1.964,0.02209733877623204,1.8070516761505286,0.04688158873018485,0.029664825289306807
0.061,0.0144,1.964,0.022512003847821222,1.8341543073105617,0.04801517977492547,0.030436216943046275
0.062,0.0105,0.964,0.02239082253203384,1.9030224771454456,0.047683900234452,0.03239633406618673
0.063,-0.0003,0.964,0.02231878795653108,1.9964898329568004,0.04748697564326646,0.0350565901034787
0.064,-0.0099,-0.036,0.02232321287272901,2.0047112196063774,0.04749907226224736,0.035290586168517615
0.065,-0.0068,1.964,0.02225214745849181,2.0018205190157334,0.04730479711661879,0.035208311414604766
0.066,-0.0146,1.964,0.022249471345466523,2.0220284685446375,0.047297481290020336,0.03578346751342561
0.067,-0.0165,-0.036,0.02245032976787711,2.0272920028593613,0.04784657819859949,0.03593327756011719
0.068,-0.0009,-0.036,0.022560169657978347,2.0440966663037865,0.04814685310551862,0.03641156976165244
0.069,-0.0027,-0.036,0.022582073524343035,2.0607642993634636,0.0482067328216014,0.03688596182174094
0.07,-0.0008,-0.036,0.0230554753288506,2.069047765446548,0.049500895467365524,0.03712172478374987
0.07100000000000001,0.013899999999999808,-0.036,0.023419872094569204,2.0596777400729227,0.05049706548180143,0.036855036308898026
0.07200000000000001,0.00010000000000017348,-1.036,0.02383314569797689,2.0596777400729227,0.05162685259904091,0.036855036308898026
0.073,0.0126,-1.036,0.024325919784729453,2.056544911261625,0.0529739742403263,0.03676587013225045
0.074,0.0045,-0.036,0.02490335745527613,2.064845304182483,0.05455254503655702,0.037002114863771196
0.075,-0.0061,-1.036,0.024908881436405045,2.0699999679847823,0.054567646225367195,0.03714882625173379
0.076,-0.005,0.964,0.02490887935764264,2.105544628782238,0.05456764054254844,0.03816049388327322
0.077,0.0137,0.964,0.024967444402897224,2.1217296010873925,0.05472774279225323,0.038621148514127346
0.078,0.0323,-1.036,0.025147201853000647,2.1247663215154464,0.055219154897164086,0.03870757926614951
0.079,0.0201,0.964,0.024942576855243533,2.118378469953398,0.05465976110955001,0.038525769044433576
0.08,-0.0046,-0.036,0.02506412821949101,2.083052813930882,0.05499205227036294,0.03752033469904707
0.081,-0.0079,-1.036,0.026857548442590532,2.0872186160343307,0.05989481655810719,0.037638901230641585
0.082,0.0005,-0.036,0.027113508483029534,2.0821065808137003,0.06059454756882652,0.03749340313196873
0.083,-0.0185,-1.036,0.027266928112532725,2.0903054733784923,0.06101395863092954,0.03772675897321685
0.084,-0.0253,1.964,0.02752966104332442,2.169078114650784,0.061732205037270206,0.03996877590735366
0.085,-0.0273,-0.036,0.027875136932685427,2.2466702788709556,0.06267665008747071,0.04217719425321839
0.08600000000000001,-0.00129999999999995,-0.036,0.02842807848691984,2.254270724675824,0.06418825460179085,0.04239351717861835
0.08700000000000001,0.002299999999999954,-1.036,0.029125112389369892,2.246962634138504,0.06609377171387791,0.042185515231797255
0.088,-0.001,-0.036,0.029463825913147775,2.235161215281536,0.06701973014055618,0.04184962474371899
0.089,0.0019,-0.036,0.02950312364355376,2.22779043839025,0.0671271603494622,0.04163983862583469
0.09,0.0098,-0.036,0.029391002156888238,2.2290897422972127,0.06682064812570547,0.041676819248992046
0.091,-0.0069,-1.036,0.0293531025702849,2.2243037881463277,0.06671704009378646,0.04154060202840659
0.092,-0.0224,-1.036,0.029353041126654825,2.218202597347213,0.06671687212220268,0.04136695070900077
0.093,-0.028,-1.036,0.02930187774665423,2.2075593273553804,0.06657700418212019,0.041064023307165985
0.094,-0.0005,-0.036,0.029046233770465262,2.201411729938213,0.0658781372123533,0.040889051168477616
0.095,0.0113,-1.0359999999999445,0.028567322916228016,2.195246916778469,0.06456891419650625,0.040713589037505535
0.096,0.0004,-0.036,0.02856602058357744,2.1923078261753197,0.06456535394334986,0.04062993701318854
0.097,0.0165,-0.03600000000011102,0.028445338531839063,2.172653392255176,0.06423543926645833,0.040070535005484936
0.098,0.0134,-2.036000000000111,0.02836452614057091,2.134466129574053,0.06401451831284492,0.03898365397399255
0.099,0.0212,-4.036,0.028131242574511515,2.1237125079603416,0.06337677913612429,0.03867758575827917
0.1,-0.0057,-4.0359999999999445,0.0278444101620471,2.1044811900358376,0.06259265074820658,0.03813022642442789
0.101,-0.0165,-3.0359999999998335,0.027495704145165632,2.102792548049016,0.061639375333739956,0.03808216451017696
0.10200000000000001,-0.03909999999999996,-0.035999999999944486,0.027497645091728275,2.0977184660668655,0.06164468139830262,0.037937746631768444
0.10300000000000001,-0.03589999999999996,0.9640000000001665,0.02718842545628576,2.0895486605268507,0.06079935191768779,0.037705218661733736
0.10400000000000001,-0.03309999999999977,3.963999999999889,0.026169733487324754,2.084442339681529,0.05801450175189552,0.03755988320488681
0.105,-0.0164,1.964,0.026060800772048236,2.0899912044751625,0.05771670683504011,0.037717814291513184
0.106,-0.0317,1.964,0.026413358819789234,2.1117871385267053,0.058680512742633854,0.038338167404594295
0.107,-0.0016,-1.036,0.027801889748595286,2.128976359512389,0.062476410526374246,0.038827404834139254
0.108,0.0551,0.964,0.029139343090821616,2.1087317272547947,0.0661326749078803,0.03825120467614272
0.109,0.0474,2.964,0.03097002462418656,2.069365214975816,0.07113730233898097,0.03713075999202597
0.11,-0.0442,2.964,0.031754997379877824,2.047117658877633,0.07328322237706551,0.03649755286948112
0.111,-0.0315,4.964,0.03186779587365586,2.0442869235078946,0.07359158536967776,0.036416984838087134
0.112,-0.0199,5.964,0.03183556150301929,2.0414522629643086,0.07350346462744495,0.03633630508889247
0.113,-0.0095,1.964,0.03191629615283927,2.0494932941773487,0.07372417305529844,0.036565167900350595
0.114,0.0,-2.036,0.0321548714467375,2.10997735687879,0.0743763784981705,0.03828665762865965
0.115,-0.0082,-3.036,0.03218560381893011,2.2616736753713393,0.07446039315068911,0.042604219023241706
0.116,0.0306,-2.036,0.03224816423594448,2.289314014218956,0.0746314177518472,0.043390914845048985
0.117,0.0237,-3.036,0.03245268835846159,2.286783105595291,0.07519053577167532,0.04331888044450889
0.11800000000000001,0.017500000000000408,-3.036,0.032774518471452165,2.3044935906373443,0.07607033915761234,0.043822954025573735
0.11900000000000001,0.04669999999999992,-2.036,0.03349693815820442,2.3550400431223064,0.078045254682347,0.04526160075115572
0.12,0.0414,-1.036,0.03507021915776135,2.3722409957595088,0.08234621315257291,0.04575117208547961
0.121,0.0459,-0.036,0.03669831189181084,2.4692629255612584,0.08679701325553948,0.04851259795726475
0.122,0.0499,-0.036,0.037874952406621,2.5376932182705705,0.090013655412922,0.05046025227714323
0.123,0.0535,-2.036,0.0389364817276279,2.5376932182705705,0.09291561223173793,0.05046025227714323
0.124,0.0062,-2.036,0.039861463672706994,2.543028007934759,0.09544428252815308,0.05061209038456208
0.125,-0.0,-4.036,0.040465440340065266,2.5430280079347587,0.09709540433285607,0.05061209038456207
0.126,0.0171,-3.036,0.04075644489829325,2.5416307501398476,0.0978909383283327,0.05057232181025825
0.127,0.0324,0.964,0.04076223522138738,2.539092642882616,0.0979067676297506,0.05050008252312176
0.128,0.0084,-1.036,0.040748504482057475,2.539092642882616,0.09786923120768738,0.05050008252312176
0.129,0.0386,-0.036,0.04064306768979817,2.6109882028747937,0.09758099327379711,0.052546364841300305
0.13,0.0978,2.964,0.040687075945783566,2.6587292226202,0.0977013008866098,0.05390516369574232
0.131,0.0377,0.964,0.04075057804553887,2.6587292226202,0.09787489981388128,0.05390516369574232
0.132,-0.0325,-2.036,0.04075831238535353,2.6598180240471803,0.09789604357290899,0.053936153023988444
0.133,-0.0417,-6.036,0.040785514298981654,2.6750599354591658,0.09797040683087636,0.05436996637520211
0.134,-0.0499,-6.036,0.04081894536691988,2.786696558990246,0.09806179904552721,0.057547353807995714
0.135,-0.0572,-2.036,0.0411414564623057,2.8205335958781554,0.09894346406775281,0.05851041926420494
0.136,-0.0637,0.964,0.04150743732823133,2.9026094844237385,0.09994396461767793,0.06084645280365984
0.137,-0.0446,1.964,0.04164141203283753,2.903833052734062,0.10031021809733878,0.060881277849862574
0.138,-0.027,0.964,0.04170153089266634,2.919559569834822,0.10047456808915453,0.06132888398678283
0.139,-0.0005,0.964,0.041745595295581146,2.9364118145385434,0.10059502919369039,0.06180853044009087
0.14,-0.0052,0.964,0.041822355148290406,2.953167893518584,0.10080487151605756,0.06228543983675724
0.14100000000000001,-0.0007999999999998918,-1.036,0.041816081883014264,2.953167893518584,0.10078772197097756,0.06228543983675724
0.14200000000000002,0.0031000000000000996,-2.036,0.04187197232534527,2.9657056100492105,0.10094051252232594,0.06264228673592245
0.14300000000000002,0.0066999999999995475,-1.036,0.041818034648263835,2.9781905452213304,0.10079306034488716,0.06299763137875011
0.14400000000000002,-0.009600000000000077,-1.036,0.04172486921088705,3.033997662996239,0.10053836923940071,0.06458600649320402
0.145,-0.0124,-0.036,0.04193371055191316,3.047368628229803,0.10110928945954736,0.06496656921136629
0.146,-0.0098,0.964,0.041999673949036774,3.046202714402803,0.10128961696090509,0.06493338511976217
0.147,-0.0075,-1.036,0.042054148282306386,3.047368628229803,0.1014385362227228,0.06496656921136629
0.148,0.0038,-0.036,0.0423386373798771,3.0548725665976355,0.10221625857125956,0.06518014535432237
0.149,-0.0059,-0.036,0.042436012070217896,3.1318213848163774,0.1024824567261504,0.06737025286781664
0.15,-0.0039,-0.036,0.042390768885341365,3.16816341048743,0.10235877312527458,0.0684046149973495
0.151,-0.0054,0.964,0.04239339626873888,3.1718169497746684,0.10236595573720547,0.06850860156958094
0.152,-0.0129,-0.036,0.042415801597550075,3.1745543448447675,0.10242720632674152,0.06858651296119431
0.153,-0.0092,0.964,0.04224353953519131,3.181758339378468,0.10195628474540343,0.06879155214075101
0.154,-0.0228,3.964,0.042092156396432615,3.181758339378467,0.1015424409418636,0.06879155214075099
0.155,-0.05,2.964,0.0419864911541781,3.1567229633683382,0.10125357848257564,0.06807899844113377
0.156,-0.0919,3.964,0.04206587413301248,3.1494617041052186,0.10147059177855114,0.0678723294001047
0.157,-0.0875,0.963999999999889,0.04194787845155516,3.1476224903825556,0.10114802096904105,0.06781998193218809
0.158,-0.1051,-1.036,0.041953921030218395,3.159388627587693,0.10116453987436753,0.06815486823836268
0.159,-0.0749,-1.0360000000000555,0.04159246576732428,3.1807639641368173,0.10017641119615305,0.06876325035862642
0.16,-0.0308,-2.036,0.041335627249525816,3.202201746958618,0.09947427864709368,0.06937340981679012
0.161,-0.0014,-2.035999999999778,0.041141599094499874,3.192118250260435,0.09894385398865305,0.06908641461150694
0.162,0.025,1.9640000000001665,0.041021356993910366,3.1504193084519168,0.09861514202864473,0.06789958461367661
0.163,0.0391,4.9640000000001665,0.04109548263531111,3.0899464871696,0.09881778307327264,0.0661784148372142
0.164,0.0172,7.963999999999778,0.04112216954955162,3.0825279320291843,0.09889073845116078,0.06596726886085744
0.165,0.0212,3.963999999999667,0.041124116657183,3.0844059615108037,0.09889606135855111,0.06602072109798687
0.166,0.0392,-2.0360000000000555,0.041393993212457146,3.1139562461168144,0.09963383665530269,0.06686177755394886
0.167,0.0487,-3.036000000000111,0.04131098069015848,3.110532071121816,0.09940690109133428,0.06676431911913902
0.168,0.0692,-5.036,0.041254118914870484,3.1250084338907143,0.09925145515756538,0.06717634352188041
0.169,0.1039,-3.036,0.04125369596777437,3.114042291869422,0.09925029892552799,0.0668642265772562
0.17,0.1081,-7.036,0.04099011980128258,3.1096872538033753,0.09852974732276804,0.06674027403567345
0.171,0.0947,-6.036,0.0408092164871822,3.1085447137499878,0.09803520271103555,0.06670775520545205
0.17200000000000001,0.0902999999999999,-1.036,0.040631025032464116,3.108544713749988,0.09754807164753994,0.06670775520545207
0.17300000000000001,0.08629999999999954,-2.036,0.04044017635934553,3.115901326938102,0.09702633890087108,0.06691713819781145
0.17400000000000002,0.06979999999999942,-0.036,0.040765749216541164,3.137867684385294,0.09791637401743676,0.06754234187998417
0.17500000000000002,0.04899999999999888,-0.036,0.041779831183586864,3.212829343888636,0.10068862158598735,0.06967589113392555
0.176,0.0085,-0.036,0.04228862993173771,3.230840630732849,0.10207955066103241,0.07018852609776707
0.177,-0.0087,0.964,0.04237657697635,3.2763378899980062,0.1023199759801986,0.07148346332574061
0.178,-0.0136,5.964,0.042324089521890394,3.3145092627868546,0.10217648835026967,0.07256989210113259
0.179,-0.0276,4.964,0.04304500603506581,3.320340030154639,0.10414729457276949,0.07273584666310286
0.18,-0.0232,-0.036,0.0440155843972768,3.3426151785965486,0.1068006141190838,0.07336983911543846
0.181,-0.0112,0.964,0.04391991605686963,3.3789077294211047,0.10653908069999177,0.07440279309815959
0.182,-0.0149,-3.036,0.04422190965922866,3.491140678171465,0.10736465600560208,0.07759715306378037
0.183,-0.0248,-8.036,0.0441305956766143,3.5736103186117836,0.10711502631638196,0.07994439351976858
0.184,-0.0573,-5.036,0.04393428734424713,3.5585932796829187,0.10657836822090616,0.07951698046067454
0.185,-0.0614,-7.036,0.043659249291507794,3.5149918654056225,0.10582648267541439,0.07827600253251159
0.186,-0.0334,-1.036,0.04328475199370711,3.516638948986797,0.1048027003215271,0.0783228816166871
0.187,-0.0225,2.964,0.04290491329079765,3.5148049841513465,0.10376431589620312,0.07827068354193323
0.188,-0.0192,2.964,0.042737674679846065,3.513157040747237,0.1033071271800592,0.07822377998558627
0.189,0.0254,2.964,0.04274022053379588,3.5123327790971413,0.10331408691078277,0.0782003199549484
0.19,0.0066,-0.036,0.04282600925738913,3.582436890807031,0.10354861191775366,0.08019561429912166
0.191,-0.0227,-3.036,0.04296319528105435,3.5806366271515646,0.10392364434403079,0.080144375423082
0.192,-0.0071,-3.036,0.0430536041144329,3.5806366271515646,0.10417079958064283,0.080144375423082
0.193,-0.0024,-6.036,0.04330393491303038,3.587208278701352,0.10485514164597602,0.08033141693675856
0.194,-0.0418,-3.036,0.043332896340156135,3.6336739163282705,0.10493431497568724,0.08165391602695551
0.195,-0.0261,-0.036,0.043446233393569865,3.66496991072794,0.10524415025622995,0.08254465865385523
0.196,-0.0214,-1.036,0.04368209566711959,3.6659390373580063,0.10588893897707265,0.0825722418131963
0.197,-0.0517,1.964,0.04374431085937062,3.665149135273176,0.10605901981969652,0.08254975972015112
0.198,-0.0317,6.964,0.04375072505569688,3.6659390373580063,0.10607655463517253,0.0825722418131963
0.199,0.0081,5.964,0.043968799627458865,3.6676974311604775,0.10667271620886772,0.08262228899478559
0.2,-0.0074,3.964,0.044072605175350985,3.6676974311604775,0.10695649472687485,0.08262228899478559
0.201,-0.0215,2.964,0.04415230052918374,3.6686658372799976,0.10717436197830746,0.0826498516470468
0.202,-0.0084,1.964,0.04417726578439781,3.6870898986933116,0.10724261076914939,0.08317423494836891
0.203,0.0035,0.964,0.044176115695567585,3.6981002769393356,0.10723946671268568,0.083487610938816
0.20400000000000001,0.014400000000000449,0.964,0.044283741084091825,3.697317245850992,0.1075336877237543,0.08346532440720214
0.20500000000000002,0.030599999999999253,-0.036,0.04424589957071726,3.705954131964507,0.1074302384495812,0.08371114636533322
0.20600000000000002,0.0037000000000001,-2.036,0.04404653467986218,3.712657819112078,0.10688522448435164,0.08390194585946287
0.20700000000000002,0.007299999999999908,-3.036,0.04328824628157782,3.68947779477676,0.10481225283440888,0.08324219894411135
0.20800000000000002,0.003999999999999589,-4.036,0.04257643656481424,3.756277269271495,0.10286634232550068,0.08514343712261732
0.209,-0.0108,-5.036,0.041260942309352455,3.865045036322841,0.09927010861889948,0.08823917152581479
0.21,-0.0188,-2.036,0.04063336956226207,3.912651412944228,0.09755448100816659,0.0895941381847224
0.211,-0.0021,-0.036,0.04055085117875454,3.908277359789873,0.09732889629660138,0.08946964443810573
0.212,0.0317,-0.036,0.04055150657362417,3.9055496647454824,0.0973306879829668,0.08939200912739492
0.213,0.0176,-0.036,0.040641349448938775,3.900593790828019,0.09757629603116838,0.08925095567194467
0.214,-0.004,1.964,0.04066722219350093,3.8709642176898713,0.09764702567190257,0.08840764251582814
0.215,0.0479,4.964,0.04063932047357647,3.785274783472534,0.0975707493177886,0.08596876069735787
0.216,-0.0158,0.964,0.04063986197382457,3.767085433182816,0.09757222964462109,0.08545105771429388
0.217,0.0096,3.964,0.040586413467761935,3.7634861607044576,0.09742611473893308,0.08534861567710031
0.218,0.0174,0.964,0.04029324276978935,3.775459710846441,0.09662465905681251,0.0856894053440009
0.219,-0.0036,-1.036,0.039697753763871614,3.7572941587732025,0.09499674040486822,0.08517237970275873
0.22,0.0153,-0.036,0.03831413952564046,3.747405801001923,0.09121428362879241,0.08489093851688587
0.221,-0.0256,-0.036,0.036758516600091946,3.6851625151243694,0.0869615979356456,0.08311937800146005
0.222,-0.0307,1.964,0.03551782564009406,3.6393543201310927,0.08356985781112979,0.08181559096019331
0.223,-0.0742,3.964,0.03444981020648895,3.643076233973293,0.08065016957565914,0.08192152360034392
0.224,-0.0917,6.964,0.0334265223684462,3.643076233973293,0.07785275544827276,0.08192152360034392
0.225,-0.0654,4.964,0.032753896129856484,3.675258812922152,0.07601396281111937,0.08283750008433821
0.226,-0.0322,5.964,0.032492768355261575,3.6863045288221232,0.07530010450210052,0.08315188185061409
0.227,0.0246,4.964,0.03255208379836601,3.6872680480673874,0.07546225815266075,0.08317930541327948
0.228,0.0789,1.964,0.03261539917516103,3.7317124369232904,0.07563534662585707,0.08444427597708037
0.229,0.0997,-4.036,0.03262775657516066,3.727054153201716,0.0756691286801839,0.08431169249607608
0.23,0.0934,-6.036,0.03258114109537526,3.691402925219499,0.07554169356675969,0.08329699176282773
0.231,0.0639,-9.036,0.03281260149644299,3.696033646287252,0.07617444866440244,0.0834287907590716
0.232,0.0158,-8.036,0.03287755589899267,3.69891584815605,0.07635201782585752,0.08351082362344019
0.233,-0.0032,-5.036,0.03304487777460128,3.6879079048272665,0.07680943416683894,0.08319751693529906
0.234,-0.009,-2.036,0.03307213431507156,3.7175108433004374,0.07688394676098946,0.08404007201895607
0.23500000000000001,-0.004000000000000666,1.964,0.03263765870056666,3.7542818116180534,0.07569619862519064,0.0850866426597415
0.23600000000000002,-0.02799999999999988,-0.036,0.032538670373784925,3.704535885938251,0.07542558919010225,0.08367078042664841
0.23700000000000002,-0.023600000000000104,-2.036,0.03353916381643794,3.708192377599696,0.07816068911681325,0.0837748510289804
0.23800000000000002,-0.027399999999998488,-1.036,0.033546021300576614,3.694861898169001,0.07817943577077968,0.08339544061260919
0.23900000000000002,0.02710000000000021,6.964,0.03368500076907224,3.694861898169001,0.07855937102861481,0.08339544061260919
0.24,0.0347,-0.036,0.03387088172784931,3.6814831500081024,0.0790675232813472,0.08301465637775533
0.241,0.0279,-1.036,0.03511026722306262,3.6814831500081024,0.08245569459023226,0.08301465637775533
0.242,0.0466,-3.036,0.03555868242818559,3.6750800814008664,0.08368155009550747,0.08283241305042752
0.243,0.0172,-6.036,0.035606119447916994,3.6686658372799794,0.083811231094562,0.08264985164704629
0.244,0.0328,-5.036,0.03564732209399839,3.69144273930002,0.08392386886855747,0.08329812494614244
0.245,0.047,-1.036,0.03542415894160955,3.7922941010054374,0.08331379638260018,0.08616854362351942
0.246,0.0253,-1.036,0.03533809290674446,3.900968256313167,0.08307851327566886,0.08926161366113218
0.247,-0.0106,0.964,0.03532597715075167,3.9649359016369394,0.08304539181588191,0.09108225267661232
0.248,-0.0439,0.964,0.03507496186965466,3.9807672056930383,0.08235917854584666,0.09153284124657726
0.249,-0.0308,-0.036,0.034931408714004235,3.920516389160847,0.08196673996628188,0.08981799014118137
0.25,-0.0268,-1.036,0.03494297028549928,3.8825751724128224,0.08199834642365647,0.08873811203785886
0.251,-0.0158,-4.035999999999889,0.03494045829840444,3.890800840597486,0.0819914792764808,0.08897222996340687
0.252,-0.0125,-3.035999999999778,0.03513226968974606,3.9568272076399946,0.0825158438550328,0.09085146405557266
0.253,0.0322,-1.0360000000004441,0.03543931514739156,3.951935638187022,0.08335522967497007,0.09071224082564235
0.254,0.0136,-5.035999999999889,0.03560321338765723,3.9719619271992173,0.08380328664948654,0.09128222652585592
0.255,-0.0272,-4.0359999999995555,0.035603227783475466,4.034086523193946,0.08380332600406872,0.09305040890487669
0.256,-0.0427,-0.03599999999922284,0.035621890093831196,4.080591452486995,0.08385434411324379,0.09437402630949614
0.257,-0.0393,6.9640000000002225,0.0356466856014537,4.077268941709112,0.08392212885644133,0.09427946142875136
0.258,0.0042,8.963999999999668,0.03567378607612541,4.077268941709112,0.08399621480556249,0.09427946142875136
0.259,0.0217,5.963999999999334,0.03567154690977072,4.063239208421942,0.08399009348235185,0.09388014893772383
0.26,0.0167,-0.035999999999888975,0.03565842180157003,4.034152943238079,0.08395421270498005,0.09305229934375632
0.261,0.0027,0.9639999999997779,0.03561825493157808,4.03151041573551,0.08384440648488142,0.09297708806082874
0.262,-0.0368,-1.036000000000111,0.03579512224776462,4.21044193442609,0.08432791768337225,0.09806981427231112
0.263,-0.0417,-2.035999999999889,0.035658581194786695,4.270607594896121,0.08395464844634189,0.09978224167665645
0.264,-0.0083,-1.036000000000111,0.03601172645346691,4.301460953462616,0.08492005964241464,0.1006603860585614
0.265,-0.0213,-2.036,0.03607302507553449,4.3234590766830205,0.08508763481040368,0.10128649385414605
0.266,-0.0332,-1.036,0.03576234226365667,4.510796536128877,0.08423830536977876,0.10661846888623781
0.267,-0.0006,3.964,0.03577527083541215,4.615781164686893,0.08427364886545138,0.10960652808102234
0.268,-0.005,2.964,0.035838854783116714,4.613271333116203,0.08444747154463417,0.10953509357289322
0.269,-0.001,-1.036,0.035905147798610614,4.615580800961489,0.08462870014053382,0.10960082535405918
0.27,0.0026,-1.036,0.035939413423987716,4.616208072870625,0.08472237382739888,0.10961867868765163
0.271,-0.0007,-1.036,0.035944280011632586,4.634755511965998,0.08473567786612952,0.11014657354892655
0.272,0.0261,-2.036,0.035881090409266674,4.6453896411869104,0.08456293322890171,0.1104492407872977
0.273,0.0224,-2.036,0.03584683133283107,4.640458390785874,0.08446927744521188,0.1103088881632518
0.274,-0.0205,-5.036,0.035105563900960195,4.630721988006223,0.08244283687883786,0.11003177190109553
0.275,-0.0264,-3.036,0.033909373506236344,4.575294327559003,0.0791727502181337,0.10845419685301896
0.276,-0.0214,-1.036,0.03328279398837522,4.546299712866992,0.07745983784877705,0.10762895580373698
0.277,0.0221,-6.036,0.0331432791958881,4.504605260588279,0.07707843914845698,0.10644225358633505
0.278,0.0163,-6.036,0.033053723040928185,4.475946383528817,0.07683361492230527,0.10562656825900733
0.279,0.0214,-0.036,0.03209858042522593,4.47082824389319,0.07422249286309573,0.10548089641724838
0.28,0.0453,-2.036,0.030512579431884207,4.454996234469847,0.06988676109742845,0.1050302877712103
0.281,0.0235,-2.036,0.029114694344650163,4.454996234469847,0.066065291373943,0.1050302877712103
0.28200000000000003,-0.036399999999999544,-0.036,0.02843934070030223,4.419590737949855,0.06421904268863238,0.10402258101570172
0.28300000000000003,-0.028199999999999583,8.964,0.02864726358320458,4.358584563313098,0.06478745207298553,0.10228623100364964
0.28400000000000003,-0.020700000000001953,6.964,0.028957594963093036,4.342858823733252,0.06563582078606604,0.10183864699643111
0.28500000000000003,-0.055900000000001775,2.964,0.029103875537349007,4.358646038435865,0.06603571544890943,0.10228798070080397
0.28600000000000003,-0.08789999999999643,-2.036,0.029127538005703568,4.383660747722172,0.06610040274490084,0.10299994618674657
0.28700000000000003,-0.02349999999999669,-0.036,0.029044186301498916,4.413723898897529,0.0658725399420654,0.10385559978601687
0.28800000000000003,0.036100000000000416,2.964,0.028978202982554678,4.410652341390672,0.06569215797941108,0.10376817750547224
0.289,0.0436,-0.036,0.029018720771886445,4.462788539816795,0.06580292352559793,0.10525207137858526
0.29,0.0927,-0.036,0.02889574513817464,4.536999446179756,0.06546673876674483,0.1073642527917776
0.291,0.0607,-2.036,0.028937273103954057,4.5533265082763545,0.06558026588378275,0.10782895156427075
0.292,0.0197,-2.036,0.028847449467493746,4.581501371435683,0.06533471042981791,0.10863086094930519
0.293,-0.0173,6.964,0.02847127254963575,4.576357747967576,0.06430633641295731,0.10848446378993537
0.294,-0.0127,8.964,0.028500505926038457,4.606219642564956,0.06438625318427021,0.10933438924998576
0.295,-0.0085,8.964,0.028335744660810742,4.584315178769746,0.06393583691442024,0.10871094717709283
0.296,0.0193,6.964,0.02795711331898797,4.602219330157763,0.06290075311364704,0.10922053286515587
0.297,0.0301,3.964,0.027921513803537672,4.602848422956094,0.06280343290349068,0.10923843802466583
0.298,0.0002,-2.036,0.02819958353496468,4.6300966824001275,0.06356360630355795,0.11001397453217107
0.299,0.0121,-3.036,0.027948104711703874,4.6571855204657595,0.06287612582467934,0.1107849736086055
0.3,-0.0061,-5.036,0.027777853717598996,4.6975258910974445,0.06241070200314589,0.11193313612575352
0.301,-0.0425,-8.036,0.027662566520307935,4.715000169895005,0.06209553551487251,0.11243048683461872
0.302,-0.0473,-1.036,0.027624807625185262,4.704104497946961,0.06199231209842627,0.11212037560028962
0.303,-0.0343,3.964,0.027599547197131015,4.70032724735033,0.06192325637854403,0.11201286797244646
0.304,-0.0144,6.964,0.027411816437289984,4.699571432918085,0.06141004723034507,0.11199135607784969
0.305,0.0327,5.964,0.027389181113705165,4.6781040941654135,0.06134816789237185,0.11138035540252676
0.306,0.0138,-1.036,0.027254077267121396,4.665881348435564,0.06097882761972621,0.11103247316238139
0.307,-0.0157,-3.036,0.02691747409073657,4.666642619353131,0.060058638357296315,0.11105414035877198
0.308,-0.0001,-2.036,0.026639563541443843,4.620454428690413,0.059298900121544214,0.10973953792891313
0.309,-0.0048,-0.036,0.026639563541443843,4.532852247485122,0.059298900121544214,0.10724621574804741
0.31,0.0082,0.964,0.026556137387827458,4.4918238557539505,0.0590708337925567,0.10607847086154908
0.311,-0.0356,11.964,0.026538466636666758,4.496918099426752,0.059022526359300165,0.10622346257944211
0.312,0.0054,6.964,0.026806395813246894,4.524804313626744,0.059754978007643664,0.10701715647437235
0.313,0.0533,4.964,0.02670086603161763,4.580067406047833,0.059466485863972386,0.10859004760814257
0.314,0.0214,-5.036,0.02642475686421151,4.587100887109505,0.05871167215771342,0.1087902336548652
0.315,-0.0079,-14.036,0.026647868956518363,4.586326413311271,0.059321605058121694,0.1087681906797581
0.316,0.0185,-10.036,0.02672153434120597,4.583370527281473,0.059522987875510226,0.10868406062613607
0.317,0.0234,-4.036,0.026778361611525827,4.5914588693051375,0.05967833948128874,0.10891426999189115
0.318,0.0279,-2.036,0.027153795884214335,4.581618338765255,0.060704683291191414,0.10863419005861781
0.319,0.0161,0.964,0.027167239560299355,4.571612944951357,0.06074143495382836,0.10834941780773029
0.32,-0.0164,3.964,0.02721414042772462,4.5895666487181455,0.06086965024599197,0.10886041384931883
0.321,0.0142,2.964,0.027803488280351597,4.617520389616142,0.06248078051412542,0.10965602968057098
0.322,0.0264,-0.036,0.027896713500391676,4.706426325533948,0.06273563505052608,0.1121864591628577
0.323,0.0157,-3.036,0.02960530872709816,4.730826217912648,0.06740650892147496,0.11288092580788316
0.324,0.0124,-0.036,0.030378674264979703,4.7272092767214495,0.06952069771652755,0.11277798088602363
0.325,-0.0082,-0.036,0.03255442814747877,4.751917160903555,0.07546866701933908,0.1134812135547301
0.326,0.0105,-0.036,0.03376466389559006,5.033903138844476,0.07877715017859373,0.12150706272674534
0.327,0.0035,-1.036,0.03377584113088732,5.410653178116969,0.07880770595651197,0.13223007460425562
0.328,0.0014,-0.036,0.03442676331114128,5.451282560198077,0.08058716510297696,0.13338646292865475
0.329,0.0031,-1.036,0.034678732930777945,5.433440198709404,0.08127598729692777,0.13287863589687707
0.33,0.0197,-6.036,0.03461784894840516,5.442514001424229,0.08110954565060961,0.1331368933199503
0.331,-0.014,-7.036,0.03435297239054208,5.515687471727598,0.08038543910166743,0.13521954735947428
0.332,-0.0379,-3.036,0.03427472844073053,5.605136335252019,0.08017153962739634,0.13776542957850285
0.333,-0.0424,2.964,0.03409467214762431,5.6139326322560965,0.0796793105601345,0.13801578866920122
0.334,-0.0305,3.964,0.03398313520986582,5.5389692914176285,0.07937439634752369,0.1358821915613125
0.335,-0.0124,4.964,0.03414694921540745,5.493888266589757,0.07982222304528103,0.13459910114514942
0.336,0.0173,4.964,0.033788783452061766,5.485547064979876,0.07884308703967212,0.13436169492189284
0.337,0.0132,-1.036,0.03295228681755581,5.483075963638033,0.07655631354751971,0.1342913627486294
0.338,0.0314,-7.036,0.033360695472775745,5.487250027550848,0.07767280110789604,0.1344101644267952
0.339,-0.0047,-11.036,0.033341735230280556,5.487250027550847,0.07762096852644353,0.13441016442679518
0.34,-0.038,-4.036,0.033153682565202895,5.491420918732092,0.0771068793694893,0.13452887580307707
0.341,-0.0161,4.964,0.03187946345172345,5.495588644405625,0.07362348162262365,0.13464749708307955
0.342,0.0039,-2.036,0.03131009452946248,5.508072900208831,0.07206696877490518,0.1350028223897953
0.343,-0.0215,-8.036,0.03136882754932675,5.506137787665904,0.07222753022536339,0.13494774546180824
0.34400000000000003,-0.011799999999998857,-2.036,0.03141596023673709,5.462736910058915,0.07235637925563776,0.13371247518294435
0.34500000000000003,0.008799999999998346,3.964,0.0313925703043523,5.42910377630295,0.07229243700512009,0.13275521319183875
0.34600000000000003,-0.021000000000001105,0.964,0.031536782997499894,5.395260983419975,0.07268667859596234,0.13179198390922733
0.34700000000000003,-0.040899999999998986,4.964,0.032131748544311466,5.379702650454601,0.07431316624106354,0.1313491646078568
0.34800000000000003,-0.022699999999998735,4.964,0.03227421038037383,5.388329613917849,0.07470262142463781,0.13159470414877333
0.34900000000000003,0.0001000000000004885,5.964,0.032505423243509954,5.420079279452526,0.0753346998152181,0.13249835910603025
0.35000000000000003,0.008899999999999861,3.964,0.03248826220208743,5.447322111257326,0.07528778580145648,0.1332737411327554
0.35100000000000003,0.006399999999999873,1.964,0.0324828341378187,5.460326713106731,0.0752729468254566,0.13364387646270184
0.352,0.0041,1.964,0.03223103898903823,5.404205377322153,0.07458460159137943,0.13204655811507318
0.353,0.002,-0.036,0.031882883693813494,5.403548017848411,0.07363283171278018,0.13202784843302953
0.354,-0.0078,-2.036,0.03169798284125543,5.388307162422573,0.07312735882638191,0.13159406513715977
0.355,0.0013,-2.036,0.031788787442529984,5.356787079385081,0.07337559599386646,0.13069694452784597
0.356,-0.0001,-1.036,0.031714160914129,5.335373801778914,0.07317158564891209,0.13008748253402444
0.357,0.0075,-3.036,0.03175563313084242,5.342323723144934,0.07328496036188635,0.13028529031527775
0.358,0.0042,-2.036,0.031770688035736835,5.334707960668943,0.07332611672285576,0.13006853144872518
0.359,0.0052,-1.036,0.031770692813084825,5.334707960668944,0.0733261297829355,0.1300685314487252
0.36,-0.0136,1.964,0.031774779308875435,5.342323723144934,0.07333730124479712,0.13028529031527775
0.361,-0.0379,4.964,0.03181291350308319,5.341116675561519,0.07344155063548402,0.13025093547991087
0.362,-0.0281,6.964,0.03161334294530284,5.201911847586012,0.0728959744280965,0.12628890530555298
0.363,0.0165,2.964,0.03161152155288933,5.153321599000899,0.07289099519480588,0.12490593580748613
0.364,0.0354,-0.036,0.03116616680820823,5.128853850429539,0.07167350622625489,0.12420953784810367
0.365,-0.0291,-1.036,0.03110870410566048,5.131675752444232,0.0715164175070023,0.12428985446566568
0.366,-0.0375,-3.036,0.031142417652332603,5.0441635709207215,0.07160858194816803,0.12179909384433839
0.367,-0.045,-3.036,0.03110584537582052,4.973632218403461,0.07150860245150825,0.119791639426444
0.368,-0.0099,-1.036,0.031032565277885397,4.975960290362804,0.0713082729121559,0.11985790071554682
0.369,-0.016,3.964,0.030909371387652772,4.975960290362804,0.0709714914943257,0.11985790071554682
0.37,-0.057,4.964,0.03087325584033092,4.998280532920553,0.07087276058153613,0.1204931766308933
0.371,0.0228,8.964,0.03084056475359846,5.0280173682773395,0.07078339129122978,0.12133954267068489
0.372,0.1025,4.964,0.030859812096434392,5.064780789584128,0.0708360087335194,0.12238589850940447
0.373,0.0717,-0.036,0.030779924192582145,5.079411655189718,0.0706176150982828,0.1228023203523058
0.374,0.1188,-7.036,0.030760256719817372,5.086012912091487,0.07056384912538959,0.12299020448975899
0.375,0.0934,-17.036,0.03073627573143168,5.08937486339233,0.07049829107495176,0.12308589192167053
0.376,0.0231,-20.03599999999878,0.030725332389051223,5.0906416021014005,0.07046837470202341,0.123121945678292
0.377,0.0702,-9.035999999999445,0.030708252022531465,5.100325301761934,0.07042168123335608,0.12339756191095029
0.378,0.0448,-4.035999999999222,0.030709553996865965,5.100892963553009,0.07042524050696555,0.12341371862891601
0.379,0.006,2.964000000000666,0.030713811960724317,5.110557238537893,0.07043688071982494,0.12368878199891736
0.38,-0.015,8.96400000000011,0.030714133172083193,5.111123763929385,0.07043775883169122,0.12370490637282218
0.381,0.0039,9.963999999999224,0.0306511766727067,5.094363585312875,0.07026565143998856,0.12322788029282211
0.382,0.0097,2.963999999999667,0.030641901264855265,5.057815195172716,0.07024029478470914,0.12218764464391924
0.383,-0.006,-0.035999999999888975,0.030433511275665362,5.057815195172717,0.06967060844808586,0.12218764464391926
0.384,-0.0393,0.9639999999997779,0.030301880712141044,5.062729165391855,0.06931076326639869,0.12232750544161765
0.385,-0.0263,-1.036,0.030201057133772063,5.07959372321755,0.06903513671048994,0.12280750234944303
0.386,-0.0463,-1.035999999999667,0.030194897354396077,5.099757576783561,0.06901829740760042,0.12338140339455567
0.387,-0.0571,1.964000000000111,0.03017288820864177,5.077131020128456,0.06895812988388338,0.12273740920618516
0.388,-0.0343,2.963999999999889,0.030194195998459124,5.099576228657372,0.06901638007512229,0.1233762418871678
0.389,-0.0255,1.964,0.03005950530923416,5.056694060002685,0.0686481692718101,0.1221557350367756
0.39,-0.0175,1.964000000000222,0.03010501294380878,4.956166475231002,0.06877257581230654,0.11929453165745883
0.391,0.0093,3.963999999999667,0.02999706411528729,4.956166475231001,0.06847747059682932,0.1192945316574588
0.392,0.0275,0.964,0.030193915529801028,4.934055113945956,0.0690156133436541,0.11866520089442743
0.393,0.0244,-2.036,0.030280419409047923,4.9352286219707695,0.06925209340809212,0.11869860113112742
0.394,0.0038,-7.036,0.030219882249127538,4.877031449588742,0.06908659988799219,0.11704220058530389
0.395,-0.0313,-7.036,0.030197628795168567,4.883637257706264,0.06902576448648186,0.11723021425888311
0.396,-0.0645,-6.036,0.030197339094862025,4.876168315792733,0.06902497251798571,0.11701763418057476
0.397,-0.0427,4.964,0.03012853833964182,4.874845846078122,0.06883688838615827,0.11697999421513558
0.398,-0.0387,5.964,0.029903244035505497,4.857811357102444,0.06822098986202833,0.1164951607484524
0.399,-0.0059,5.964,0.02999683088819714,4.848240480862894,0.06847683301204366,0.11622275568170562
0.4,-0.0014,5.964,0.029998045986283275,4.826970573604736,0.06848015478762425,0.11561737427656181
0.401,-0.0133,-1.036,0.030044971351410266,4.819413812646744,0.06860843705040388,0.11540229470373804
0.402,-0.0023,-0.036,0.03012530856646153,4.814660803805247,0.06882805899056994,0.11526701516837372
0.403,0.001,-1.036,0.030126342149512667,4.813457901762029,0.06883088454924619,0.11523277832284659
0.404,0.028,3.964,0.03017941687917664,4.821897003181204,0.06897597764333904,0.11547297095806984
0.405,0.0244,-4.036,0.030207104511938348,4.826778976540365,0.0690516687364626,0.11561192106519408
0.406,0.0213,-3.036,0.030232685196272757,4.831656017087333,0.06912159995726373,0.11575073077524275
0.40700000000000003,0.01849999999999896,-0.036,0.030235598243255245,4.831656017087333,0.06912956350229925,0.11575073077524275
0.40800000000000003,-0.00020000000000037747,-2.036,0.030290417080231603,4.823970429976521,0.06927942455146198,0.11553198456878179
0.40900000000000003,-0.006999999999998635,-3.036,0.03069416465484919,4.847778734193485,0.07038316987818602,0.11620961350651159
0.41000000000000003,0.017599999999999096,-0.036,0.030907213174961548,4.851767195408909,0.0709655914782717,0.11632313258422308
0.41100000000000003,0.0013000000000001608,-1.036,0.031044693525440824,4.874251858613123,0.07134142852076442,0.1169630882191745
0.41200000000000003,0.0042000000000001385,-1.036,0.031125005719381944,4.847045912369142,0.07156098205944615,0.11618875602460739
0.41300000000000003,0.006699999999999073,0.964,0.031104225856538176,4.81862107097296,0.07150417508908727,0.11537973179067189
0.41400000000000003,-0.010000000000000361,4.964,0.03106314857428164,4.811926009514851,0.07139188002857051,0.11518917779982268
0.41500000000000004,-0.016499999999999678,9.964,0.03087143092955423,4.815479319778446,0.07086777172991672,0.11529031166628383
0.41600000000000004,-0.010699999999998872,4.964,0.030792641785824987,4.823178437232262,0.07065238183124029,0.11550944297165286
0.417,0.0096,3.964,0.030611214363020774,4.895475228400952,0.07015640443682646,0.11756714508073486
0.418,-0.0039,-2.036,0.030286259015116723,4.922092182105074,0.06926805743689018,0.1183247134442673
0.419,-0.006,-5.036,0.03029078789667718,4.945241123087592,0.06928043827128251,0.11898357566917019
0.42,-0.0082,-7.036,0.0302573036099289,4.928583230594523,0.06918890056965765,0.11850946084385419
0.421,0.0179,-7.036,0.02973588378493013,4.906347561898779,0.06776346861344403,0.11787659205905127
0.422,0.0143,-4.036,0.02964860264329543,4.830618373733863,0.06752486370719368,0.11572119750160231
0.423,0.0112,-4.036,0.027838125643439023,4.803904802050129,0.06257547043931941,0.1149608792093772
0.424,0.0025,-2.036,0.027115539984039424,4.8193277190389345,0.06060010118669785,0.11539984431838203
0.425,0.0001,0.964,0.024892300707264177,4.771696032945053,0.054522318640872744,0.1140441573044754
0.426,0.0023,2.964,0.023266618213722962,4.493637979518547,0.05007810753525135,0.10613010422225849
0.427,0.0045,0.964,0.02390656743730554,4.036890084101868,0.051827569350691244,0.0931302035001819
0.428,-0.0053,2.964,0.023193298056395896,4.021902995683631,0.04987766848349712,0.09270364288872616
0.429,-0.0034,0.964,0.022935581249454193,4.036305550244107,0.049173134910634006,0.0931135665715921
0.43,0.0013,3.964,0.023361359022297686,4.024062155606433,0.050337105313289894,0.0927650966248488
0.431,0.0118,2.964,0.02334453024049388,3.9246411664983016,0.050291099614585694,0.08993538903108465
0.432,0.0128,-3.036,0.023767287106451235,3.791286599113174,0.05144681161008904,0.08613986823232844
0.433,0.0316,-4.036,0.026385399153131435,3.8806067857521143,0.05860407797658099,0.0886820880661479
0.434,0.0179,-6.036,0.027235914923413533,3.9108351948204456,0.0609291762948634,0.08954244521462723
0.435,0.0108,-7.036,0.027066545274436936,3.9108351948204465,0.060466161851435794,0.08954244521462724
0.436,0.0129,-2.036,0.027136170936835218,3.9225264313589454,0.060656501074067545,0.0898751997075191
0.437,-0.0174,-5.036,0.02686240322209444,3.9694434812855404,0.05990808831632095,0.09121054683738827
0.438,-0.0132,-2.036,0.026446486045653216,3.976100724583833,0.05877107432871727,0.09140002445256494
0.439,-0.0172,3.964,0.026230895439017257,3.976100724583834,0.05818170329711313,0.09140002445256497
0.44,-0.0282,-4.036,0.02610668469397485,3.970338289139158,0.05784214205145285,0.09123601474513145
0.441,-0.038,1.964,0.026056832210896042,3.9654633862207067,0.05770585777711153,0.09109726587599476
0.442,-0.0232,1.964,0.026061390257531004,3.9454041117114445,0.05771831834155478,0.09052634134674346
0.443,-0.0098,1.964,0.025965885580988026,3.9437695398937493,0.05745723233871143,0.09047981837079465
0.444,0.0022,2.964,0.025936176085186086,3.9519356381870443,0.05737601397552553,0.09071224082564298
0.445,0.0087,2.964,0.02605750312738955,3.8937075719292755,0.05770769189573139,0.08905496098224285
0.446,-0.0051,-0.036,0.026035362521144995,3.8329135917875963,0.057647164991770646,0.08732465042302125
0.447,-0.0179,2.964,0.02522573273404301,3.7879544780270256,0.05543383876996785,0.08604502982420759
0.448,-0.0328,3.964,0.02487328891898764,3.7574367833929387,0.054470345146090095,0.08517643906661285
0.449,-0.0027,3.964,0.024825459928380617,3.7114913193846673,0.05433959259627123,0.0838687450920355
0.45,0.019,2.964,0.02494004561087947,3.664969910727945,0.05465284131779577,0.08254465865385537
0.451,0.0229,-0.036,0.02495312271803044,3.6131194169368803,0.05468859087225098,0.081068896469862
0.452,0.0048,-2.036,0.024948486955073918,3.635809266948057,0.054675917850737714,0.08171469210571275
0.453,-0.018,-3.036,0.02499248993952158,3.642101023785172,0.05479621105247896,0.08189376729154436
0.454,-0.0151,-3.036,0.02502505633477877,3.6428959234774507,0.05488523946734293,0.08191639162585948
0.455,-0.0125,-3.036,0.024942734976384256,3.619269128653652,0.054660193373373,0.0812439287854778
0.456,0.0042,-1.036,0.024846595585015865,3.612392139848063,0.05439737221825533,0.08104819680151774
0.457,0.0197,-1.036,0.024968852796349493,3.602909748480987,0.0547315929892299,0.08077831017999886
0.458,0.0498,4.964,0.025065068260796332,3.6076540596165403,0.054994622109200135,0.08091334216235878
0.459,0.0366,1.964,0.025375922255589038,3.623448215724365,0.05584441952128594,0.08136287343212717
0.46,0.0322,4.964,0.02572978326994496,3.6593292704112623,0.05681178741513672,0.08238411546392141
0.461,0.044,-0.036,0.025768810006555076,3.6913701527629974,0.056918476794488415,0.08329605899732358
0.462,0.0257,-5.036,0.02577772412404867,3.7014082134881963,0.05694284577189897,0.08358176100970113
0.463,-0.0041,-2.036,0.025842066018268453,3.711419124950217,0.05711874048810853,0.08386669030319037
0.464,-0.0081,-2.036,0.02600016078787908,3.7106389044495556,0.05755093221904962,0.08384448376616697
0.465,-0.019,-3.036,0.025989050317787293,3.6810534927473073,0.05752055896057709,0.08300242752724304
0.466,0.0171,-9.036,0.02602393719763231,3.552448010887203,0.05761593100245101,0.07934207459891486
0.467,-0.0068,-6.036,0.02601362535378248,3.552448010887198,0.05758774098924799,0.07934207459891471
0.468,-0.0112,-5.036,0.02599600682131072,3.534698859623654,0.05753957630888337,0.07883690050475343
0.46900000000000003,-0.007300000000000206,-1.036,0.026044147365682047,3.5308627060734854,0.05767118056910991,0.07872771638851062
0.47000000000000003,-0.010999999999999455,1.964,0.026209510988084408,3.497351648564906,0.0581232435334748,0.07777392891608907
0.47100000000000003,-0.0012000000000004828,2.964,0.026214265506867656,3.4438964506613527,0.05813624120384546,0.07625249384698778
0.47200000000000003,-0.00990000000000135,-1.036,0.026210922770731778,3.449776609535652,0.05812710299566689,0.0764198541837578
0.47300000000000003,-0.0342000000000009,-4.036,0.026282637600893718,3.466557001398023,0.05832315348271445,0.07689745557060021
0.47400000000000003,-0.05049999999999886,0.964,0.026289958035133232,3.4517227538486566,0.05834316572697154,0.07647524509658687
0.47500000000000003,-0.029900000000001647,4.964,0.02638575158812783,3.4534000134794436,0.058605041446096844,0.07652298304766268
0.47600000000000003,-0.05959999999999889,1.964,0.02686094713057628,3.465798969203415,0.05990410772471002,0.07687588055433209
0.47700000000000004,-0.03959999999999939,7.964,0.02776474499783503,3.5189214662696413,0.062374866027679006,0.07838784633435993
0.47800000000000004,-0.0286000000000009,4.964,0.028125085425678695,3.5219486116389933,0.06335994702448472,0.07847400456227463
0.47900000000000004,-0.04479999999999818,-0.036,0.02812293013161905,3.6179244010946428,0.06335405498724263,0.0812056553200918
0.48,-0.0121,1.964,0.02839275405682193,3.748003113921071,0.06409168640648544,0.08490793916150154
0.481,0.0448,-0.036,0.029269116805056734,3.7875688392276197,0.06648744392600828,0.08603405382156551
0.482,0.115,-9.036,0.03024196550973805,3.779047579392058,0.06914697002326983,0.08579152280390584
0.483,0.0678,-5.036,0.03027267361655038,3.7728100970264578,0.0692309183402814,0.08561399237120502
0.484,0.025,0.964,0.03011082955277873,3.753089089255417,0.06878847697276315,0.08505269554699317
0.485,0.0327,2.964,0.030058320291127708,3.7577150986840206,0.06864492972740338,0.08518436044116061
0.486,0.0258,5.964,0.030110832980759686,3.745405616856935,0.06878848634400944,0.08483400952920658
0.487,-0.0323,2.964,0.030198796040426943,3.741785490337373,0.06902895544434778,0.08473097394693481
0.488,0.0064,2.964,0.030223752329034112,3.7119174534456176,0.06909717972271931,0.08388087366568027
0.489,-0.0005,-0.036,0.030531313863352158,3.7090453547970603,0.06993797636776454,0.08379912835788592
0.49,-0.0068,-1.036,0.031210410591690455,3.6858426119787566,0.07179445771259223,0.08313873483195046
0.491,0.0105,0.964,0.03143604066540856,3.6703169620769835,0.07241127414714452,0.08269684575179466
0.492,-0.0161,-0.036,0.031238240846909453,3.6751529896768833,0.07187053869999778,0.08283448815654088
0.493,-0.021,2.964,0.03115218808917305,3.6698859975186533,0.07163529188942999,0.08268457969314558
0.494,-0.0254,0.964,0.031138024561507514,3.665401453301898,0.07159657233183124,0.08255694116391186
0.495,-0.0294,-0.036,0.031264703031000325,3.6565955080222614,0.07194287972161971,0.08230630746521714
0.496,0.0032,-0.036,0.03130791157682517,3.6430762339733063,0.07206100112599938,0.0819215236003443
0.497,0.0076,-2.036,0.031422586104015555,3.6448456575631494,0.07237449272678623,0.08197188471034411
0.498,0.0355,-2.036,0.03138306841102677,3.633057806535056,0.07226646119495449,0.08163638038809201
0.499,0.0246,-2.036,0.03122951642738815,3.6141024473761685,0.07184668830960439,0.08109687535765932
0.5,0.0082,-0.036,0.031259259515328805,3.591275455259778,0.07192799850533234,0.08044717640058807
0.501,-0.0124,3.963999999999778,0.03120247699612365,3.57850216038611,0.07177276923795736,0.08008362450047476
0.502,-0.015,1.963999999999889,0.031315693111932684,3.57850216038611,0.07208227390520502,0.08008362450047476
0.503,-0.0128,0.963999999999889,0.0314631514980195,3.580120025299616,0.07248538841229216,0.08012967196663358
0.504,-0.0193,-0.03599999999966693,0.03146842916672073,3.592704739045785,0.0724998162442624,0.08048785649459227
0.505,0.0108,2.963999999999778,0.031574080524942684,3.5951216763076244,0.07278864074806278,0.08055664705667408
0.506,0.0326,0.9639999999996669,0.0316612722873733,3.5975369897961915,0.07302700131382663,0.08062539140312679
0.507,0.0287,-2.036000000000222,0.03185470245935456,3.598341734019086,0.07355579123553439,0.08064829593122483
0.508,0.0396,-4.036000000000222,0.03234757473582071,3.598341734019086,0.07490318130304528,0.08064829593122483
0.509,0.0431,-6.035999999999889,0.03318606698991781,3.563212251763879,0.07719541032220545,0.0796484450587451
0.51,0.0226,-5.0359999999997775,0.03387965613532397,3.568193442982195,0.07909151032635695,0.07979021909200411
0.511,-0.0069,-3.036,0.034238515533220486,3.5309385922105814,0.08007254255609712,0.07872987625012866
0.512,-0.0187,-3.035999999999778,0.0339754916897556,3.535779475607947,0.07935350086695181,0.07886765685996702
0.513,-0.0294,-1.035999999999667,0.03403463662167954,3.503329585379268,0.0795151883824057,0.07794407219619913
0.514,-0.0065,1.964000000000111,0.03406563967675413,3.4994590445823897,0.0795999430145175,0.07783390935449788
0.515,-0.0213,2.964000000000222,0.034331451513374106,3.5061828508783845,0.08032660638267548,0.07802528147728055
0.516,-0.0078,4.963999999999667,0.03433830231281988,3.5086593891810844,0.08034533476235618,0.07809576839663493
0.517,-0.0007,1.963999999999667,0.034777670431695454,3.3951066989906122,0.08154645778676015,0.07486384611737804
0.518,-0.0163,-1.035999999999889,0.035095293479366574,3.3792965123597467,0.08241476010376822,0.07441385858889418
0.519,-0.03,-0.03599999999966693,0.03507744728406212,3.346194471925033,0.08236597304991222,0.07347171250859999
0.52,-0.0096,2.964000000000444,0.03507852371127665,3.442829683876913,0.08236891573386203,0.07622213166594549
0.521,-0.0174,6.964,0.035198061560549374,3.4505031014476457,0.08269570244614476,0.0764405315044988
0.522,-0.0241,4.964,0.035245908131295904,3.509637208710195,0.08282650305568719,0.07812359897216709
0.523,-0.0128,1.964,0.03634114082282634,3.6018900767521265,0.08582059649661268,0.08074928841246078
0.524,-0.0226,1.964,0.038036881055413474,3.6179650237734187,0.0904563280148236,0.08120681151762757
0.525,-0.0503,2.964,0.0397467437891381,3.639829278413377,0.09513066693432216,0.08182910916263886
0.526,-0.0703,-7.036,0.04136190477932982,3.6033151501660465,0.09954611486987841,0.08078984867138814
0.527,-0.0451,-2.036,0.04150938551906663,3.6082409795961627,0.09994929048627806,0.08093004700444664
0.528,0.004,-9.036,0.041320354955409144,3.526691556794142,0.09943252799812545,0.07860899766627336
0.529,0.0392,-10.036,0.04132811479844168,3.4938925842607653,0.09945374147659994,0.07767547746618347
0.53,0.0711,-7.036,0.041086708650391913,3.581078332433659,0.0987937971834243,0.08015694718284985
0.531,0.077,-2.036,0.041070458591473645,3.735837463156048,0.09874937356897406,0.08456168195101023
0.532,0.0187,-2.036,0.04163680165403364,3.8175015630374896,0.10029761446977759,0.08688599521368656
0.533,-0.0046,-0.036,0.04106334334968748,3.929597498488924,0.09872992226978689,0.09007645552415512
0.534,0.0021,5.964,0.04075010030678122,4.138318222646497,0.09787359379508564,0.09601703832686966
0.535,0.0208,5.964,0.04067405904765163,4.177967180995722,0.09766571592861922,0.09714552195524732
0.536,0.0264,-1.036,0.04087328333483402,4.186681882636076,0.09821034551842112,0.09739355868904283
0.537,0.0213,0.964,0.042807181977116526,4.173177418404031,0.1034971428219071,0.09700919633930224
0.538,0.0452,0.964,0.0433901792097862,4.334912750416056,0.10509091207652535,0.1016124868645718
0.539,0.067,-0.036,0.043666950219810804,4.548990897308289,0.10584753509568945,0.10770555195428899
0.54,0.047,-2.036,0.04385993144739764,4.5902822036655415,0.10637509771522018,0.10888077988355935
0.541,0.0143,-3.036,0.04389077326833187,4.630438279007647,0.1064594115733432,0.11002369701152853
0.542,0.0012,-1.036,0.04404944531797387,4.639692823617845,0.10689318144413427,0.11028709868752498
0.543,-0.0028,0.964,0.04402541658368108,4.650315662433937,0.10682749286827625,0.1105894445798248
0.544,-0.0282,-2.036,0.04398782427207438,4.639692823617845,0.10672472484967961,0.11028709868752498
0.545,-0.0186,-0.036,0.043943200225501584,4.654274636605778,0.10660273381874676,0.1107021244010383
0.546,-0.0273,0.964,0.04385903553736767,4.6556597613944755,0.10637264852030011,0.11074154764725672
0.547,-0.0085,0.964,0.043858324648572,4.666246251176111,0.10637070512736015,0.11104285897794385
0.548,-0.0107,-2.036,0.043855982423939156,4.662579213101559,0.10636430206848088,0.11093848820493837
0.549,0.0139,-1.036,0.04371285240492388,4.66382103024012,0.10597302023910603,0.110973832646978
0.55,-0.0025,-1.036,0.04366509050239124,4.668868297692087,0.10584245109137608,0.11111748733362625
0.551,-0.0351,-0.036,0.043657558082561006,4.7189048766407105,0.10582185933130317,0.11254162210322612
0.552,-0.0308,1.964,0.04364524004301101,4.824378915575169,0.10578818487864401,0.11554361083412883
0.553,-0.0189,3.964,0.04364096506885825,4.8832036320317505,0.10577649816387565,0.11721787245988244
0.554,-0.0299,2.964,0.0436937737712647,4.88538549647217,0.10592086400569324,0.11727997240910851
0.555,-0.0266,2.964,0.043692894837214474,4.902914758875979,0.10591846121887438,0.11777888805440744
0.556,-0.0353,0.964,0.043684095136492816,4.931253329078864,0.10589440502842594,0.11858545684857126
0.557,-0.0596,-1.036,0.043570980234142326,4.968071708432806,0.10558517705356948,0.11963337689626488
0.558,-0.0893,0.964,0.04350053360572646,4.981878062099208,0.10539259351428477,0.12002633158483189
0.559,-0.0774,-3.036,0.04340522624448198,4.968257856654022,0.10513204692233154,0.11963867502334917
0.56,-0.059,-0.036,0.04326711319987508,4.933655709076114,0.10475448025164905,0.11865383308363299
0.561,-0.0119,-2.036,0.04326051815364155,4.924820207542116,0.1047364510375623,0.11840235815857189
0.562,0.0326,-1.036,0.04328031837401411,4.920035517913564,0.10479057990935804,0.11826617692866083
0.5630000000000001,0.015099999999993506,-1.036,0.04324174528555324,4.915246170686349,0.10468513069107772,0.11812986313476684
0.5640000000000001,-0.04339999999999743,-3.036,0.043201887695188144,4.919179929743806,0.1045761699644613,0.1182418252865899
0.5650000000000001,-0.02019999999999135,2.964,0.04329830276839047,4.914523409178416,0.10483974476506194,0.11810929198831349
0.5660000000000001,0.05769999999999888,-0.036,0.04328500455589503,4.905787347361378,0.10480339076365518,0.1178606473038759
0.5670000000000001,0.04759999999999477,-5.036,0.04334559035388847,4.896310251262189,0.10496901724813484,0.11759091139560064
0.5680000000000001,0.0004999999999990785,0.964,0.043352024695032444,4.901708834430196,0.10498660713452596,0.11774456518564151
0.5690000000000001,-0.007800000000002576,7.964,0.04336171272657041,4.9009840765347175,0.10501309180021172,0.11772393721825881
0.5700000000000001,-0.030999999999994515,2.964,0.04325783956869442,4.902299495069907,0.10472912845334509,0.11776137649392279
0.5710000000000001,0.018400000000007848,6.964,0.04324808946207116,4.893541610891953,0.10470247408983424,0.11751211070421404
0.5720000000000001,0.08910000000000314,7.964,0.043213107318947834,4.841123996668572,0.10460684162188014,0.11602020721033934
0.5730000000000001,0.11740000000000095,4.964,0.04314600843251902,4.814468716860188,0.10442340997552452,0.11526154801408392
0.5740000000000001,0.12589999999999918,3.964,0.04312704146897352,4.81044933066319,0.10437155902039415,0.11514714875346559
0.5750000000000001,0.11829999999999453,-0.036,0.04307091694578169,4.806426583245654,0.10421812855026373,0.11503265382621418
0.5760000000000001,0.06909999999999214,-3.036,0.042791896234580025,4.79614952200023,0.10345535540830803,0.11474014941131518
0.577,-0.0016,-3.036,0.04221047934973432,4.7469272359910635,0.10186590643109815,0.11333919094417418
0.578,-0.0297,-2.036,0.04199022432233491,4.743322572377446,0.10126378403467302,0.113236595465172
0.579,-0.0042,-8.036,0.042004623524657905,4.670530384936511,0.10130314786809695,0.111164793450164
0.58,0.0036,-11.036,0.04182233122949796,4.576187774613363,0.10080480612803533,0.10847962602986612
0.581,0.0818,-8.036,0.04121465670004245,4.52599800219215,0.0991435752892098,0.10705113108706148
0.582,0.0921,-13.036,0.040491986144907025,4.523642799624523,0.09716797395278746,0.10698409761002356
0.583,0.0451,-14.036,0.040496727106847305,4.5388012408663245,0.09718093456212541,0.10741553524383046
0.584,0.0024,-6.036,0.04103973280363818,4.549659653956228,0.09866537691644821,0.10772458602126046
0.585,-0.0519,3.964,0.04104799435781942,4.511788957776124,0.09868796194826582,0.10664671506540603
0.586,-0.1298,4.964,0.040995329687861896,4.469772597573131,0.09854398985529626,0.10545085074545416
0.587,-0.0779,11.964,0.0409152566124545,4.472803556283224,0.09832509000713979,0.1055371175081898
0.588,-0.0495,13.964,0.040877989769045914,4.509512579724013,0.09822321173754785,0.10658192508174039
0.589,-0.0411,5.964,0.04073429398389594,4.534129594662488,0.09783038324444929,0.10728257144154926
0.59,-0.0178,5.964,0.04025233694758338,4.56002785919287,0.09651283272537657,0.10801968456488811
0.591,-0.0388,2.964,0.039989522961375756,4.560027859192867,0.09579436473371339,0.10801968456488803
0.592,-0.0069,2.964,0.03996515689941096,4.561932332039789,0.09572775398800232,0.10807388942972992
0.593,0.0105,-0.036,0.04003169158181495,4.5719589112078935,0.09590964324105364,0.10835926465548436
0.594,-0.0159,-4.036,0.04024321310764697,4.59939017364655,0.09648789041903298,0.10914000977103316
0.595,-0.0112,0.964,0.04055542439252982,4.6045080680264485,0.0973413983242293,0.10928567463235465
0.596,0.002,2.964,0.04068136554452445,4.671009653297043,0.09768569007158649,0.11117843432551047
0.597,0.0061,-0.036,0.04059621645805915,4.772471220564892,0.0974529136732393,0.11406622059628256
0.598,0.0026,1.964,0.04083051437695681,4.852579452411047,0.09809342583802295,0.11634625094009196
0.599,-0.0137,-3.036,0.04098928988346473,4.873278268190156,0.09852747853412235,0.11693537801192554
0.6,0.0012,-7.036,0.04108587059166788,4.924632417403454,0.09879150613956837,0.1183970132994413
0.601,-0.0068,-11.036,0.041254063383848606,5.123029939428252,0.09925130334958004,0.12404377843116784
0.602,-0.0137,-8.036,0.04132151728566579,5.156361433683963,0.0994357055196006,0.12499245519703976
0.603,-0.025,-2.036,0.04125703116589474,5.17472659068792,0.0992594165266493,0.12551516196852688
0.604,-0.0191,3.964,0.04198682058059697,5.158121131255968,0.10125447905237019,0.12504253948635233
0.605,-0.0063,5.964,0.04195961458994145,5.174167029246445,0.10118010464882518,0.125499235801685
0.606,0.0087,5.964,0.04188552588606217,5.190163320009556,0.10097756458218268,0.12595452020239847
0.607,0.0145,3.964,0.0419403213189559,5.225157642880424,0.10112736165041165,0.12695052418560798
0.608,0.0272,0.964,0.04178096761178251,5.22571174432568,0.1006917282976779,0.12696629495072934
0.609,0.0257,-0.036,0.04093758238339747,5.22571174432568,0.0983861231052758,0.12696629495072934
0.61,0.0213,-4.036,0.0402065656633745,5.219161323282373,0.09638770543243479,0.126779857697038
0.611,0.0148,-2.036,0.03995526697765744,5.228607001983803,0.09570071740474245,0.12704869940731933
0.612,-0.004,-2.036,0.03994679123035808,5.247822874149489,0.09567754682227886,0.12759561912594036
0.613,-0.0228,1.964,0.03981633361628372,5.2504046984523765,0.09532090819229692,0.12766910268209064
0.614,-0.0296,-0.036,0.03978787776929374,5.25408752879872,0.095243116992776,0.12777392293273468
0.615,-0.0184,0.964,0.039589582546656066,5.250705939667286,0.09470102723408126,0.12767767657137732
0.616,-0.0242,3.964,0.039547794047518466,5.2554395552081665,0.09458678788372077,0.12781240413707698
0.617,-0.0075,2.964,0.03913767529149245,5.263170019645875,0.09346562533359441,0.12803242763632938
0.618,-0.0187,-0.036,0.03884847790249549,5.24849973778515,0.09267503168876937,0.12761488393296908
0.619,-0.0006,0.964,0.03886080933211966,5.250529805151413,0.0927087427465569,0.12767266345310563
0.62,-0.0028,0.964,0.03905631371391269,5.196497486788987,0.09324320304136488,0.12613480245463426
0.621,-0.0006,-0.036,0.03918094056588006,5.2669686400907265,0.09358390181973798,0.1281405434900847
0.622,0.0012,-1.036,0.03917041904322883,5.218303432082926,0.09355513859690669,0.12675544050642787
0.623,-0.0005,-1.036,0.03829488228870591,5.162251551330528,0.09116163913850102,0.12516009897912408
0.624,-0.0052,-1.036,0.03679506454502786,5.1399001092242775,0.08706151091583525,0.12452393506618163
0.625,0.0116,-0.036,0.034894888393581985,5.132804078852798,0.08186690250463348,0.12432196874892927
0.626,0.0004,-0.036,0.03300100977422558,5.132804078852797,0.07668950997793633,0.12432196874892924
0.627,-0.0134,-0.03599999999966693,0.032270898636511586,5.125570071096439,0.07469356794161759,0.1241160753368324
0.628,-0.0117,2.964,0.03232462646764093,5.122103636036529,0.07484044645247973,0.1240174141014101
0.629,0.0029,2.963999999999778,0.03221873860510845,5.1232340705809944,0.0745509754047893,0.1240495883861705
0.63,-0.003,0.964,0.03221618581803306,5.063949657155396,0.07454399672062692,0.1223622429235357
0.631,-0.0049,0.964000000000333,0.03223161699451255,4.956220538174799,0.0745861817144098,0.11929607039011456
0.632,0.0197,3.963999999999889,0.031185898600384503,4.903669203066178,0.07172744803240215,0.11780036094934872
0.633,0.0667,2.963999999999445,0.029893870353482576,4.742604599558427,0.06819536454963657,0.11321616061377573
0.634,0.0085,-2.035999999999778,0.02959340012809509,4.544683489290176,0.06737395377731113,0.10758295505309506
0.635,0.0007,-0.03600000000022204,0.029593320778527485,4.523266392736378,0.06737373685535314,0.10697338436486997
0.636,-0.0064,-2.036000000000444,0.02913810267094126,4.520705198564913,0.06612928390882003,0.10690048798090605
0.637,0.0122,-6.035999999999889,0.02609558147260352,4.4951649075335505,0.05781178860917694,0.10617356345393529
0.638,0.0295,-5.036,0.0249874404597914,4.337404319657537,0.05478240703233135,0.10168340159260113
0.639,0.0242,-5.0359999999996665,0.02449221977612185,4.118368445841042,0.053428597004332896,0.095449230307389
0.64,0.01,-2.035999999999445,0.024156833322861854,4.077913311000605,0.0525117339599347,0.09429780138587394
0.641,-0.0031,2.964,0.024133544158640156,4.064047434654288,0.05244806718448136,0.09390315257033365
0.642,-0.0231,2.964000000000222,0.023842714744308997,4.084393760762019,0.05165301198880386,0.09448224712580654
0.643,-0.0413,4.963999999999112,0.023863919765085836,4.093307686195545,0.05171098123507782,0.09473595414195846
0.644,-0.0576,-3.036000000000555,0.023857791598213288,4.1219765537043465,0.05169422835290047,0.09555192381618932
0.645,-0.037,-8.036000000000222,0.02386323237987347,4.1047992608696235,0.051709102095081685,0.09506302588416553
0.646,-0.0073,-10.03599999999989,0.023841170290227014,4.121274058765892,0.05164878983594773,0.0955319294942684
0.647,0.0445,-9.035999999999555,0.023850321121197674,4.113444148505922,0.05167380592905757,0.09530907558062414
0.648,0.0376,-5.036,0.023858764593293204,4.114307638225634,0.05169688827915117,0.09533365211560862
0.649,0.0314,6.964,0.023925170451462578,4.118622371301199,0.05187842535882519,0.09545645750165957
0.65,0.0373,13.964,0.0238880494684326,4.118622371301197,0.05177694583518583,0.09545645750165951
0.651,0.0423,-6.036,0.023889055258329853,4.065406171831024,0.05177969541430048,0.09394182477568416
0.652,-0.0204,-5.036,0.023883060306707796,3.917828093732007,0.05176330670944436,0.0897414762173358
0.653,-0.0802,-0.036,0.023845250803683868,3.8399786145599983,0.051659944943598594,0.08752573420591782
0.654,-0.0258,4.964,0.023714119282762597,3.839978614559995,0.05130146402011526,0.08752573420591772
0.655,0.0093,4.964,0.0236370634803431,3.819260333825209,0.05109081264493847,0.08693605312498222
0.656,0.0413,5.964,0.023628916745937527,3.7712428180841866,0.051068541501794816,0.08556938467654945
0.657,0.0471,0.964,0.0236218510620621,3.7208735355366023,0.05104922568159454,0.08413578053927484
0.658,0.0316,0.964,0.023640714444615962,3.699488289575899,0.05110079347208777,0.08352711637859443
0.659,0.0077,0.964,0.023536841545665703,3.703931563302031,0.05081683083305962,0.08365358027235367
0.66,0.0383,2.964,0.023673029159485427,3.70489049834259,0.0511891338554458,0.08368087335996564
0.661,0.0086,-5.036,0.02381105316774487,3.6848060041707043,0.05156645712292641,0.08310923103187248
0.662,0.0047,-2.036,0.024034678227849465,3.680161155466443,0.05217779234955312,0.0829770299366285
0.663,0.0012,1.964,0.024031447942846024,3.686555398917571,0.05216896155476776,0.08315902208348146
0.664,0.0176,1.964,0.024639788528557176,3.7436121488538228,0.053832013225533125,0.08478296407016311
0.665,0.0088,-4.036,0.02535172094152239,3.7633828183407902,0.055778259155302455,0.08534567435984074
0.666,-0.0101,-3.036,0.02547781948539981,3.772461869087533,0.056122981172873045,0.0856040811517334
0.667,-0.0032,-3.036,0.025635397339780215,3.7496515664866963,0.0565537597862983,0.08495485720953903
0.668,-0.0098,-2.036,0.025627238732933152,3.7381942202384963,0.05653145618685611,0.08462875967245202
0.669,-0.0398,2.964,0.02630727878219979,3.761074010424119,0.058390516336193625,0.08527996136147939
0.67,-0.044,8.964,0.026597689576532812,3.8465498382704575,0.05918442712904207,0.08771276354248564
0.671,-0.016,-0.036,0.026992820007945968,3.8936387560837704,0.0602646153321088,0.08905300235436815
0.672,-0.034,-3.036,0.027131481453665413,3.927454629586019,0.06064368119486871,0.09001546546097644
0.673,-0.0502,-2.036,0.027131812776054264,3.928191786215165,0.060644586947773055,0.09003644631954565
0.674,-0.0472,2.964,0.02713377533950868,3.9272873755563276,0.060649952107534724,0.09001070509797712
0.675,-0.0337,-0.036,0.027140587020825422,3.9452376186304234,0.06066857354799194,0.09052160264176878
0.676,0.003,-1.036,0.027279071417119174,3.9640027981566037,0.061047155401711316,0.09105569480359417
0.677,0.0187,1.964,0.02736840267561776,3.9640027981566037,0.06129136481694206,0.09105569480359417
0.678,0.0141,1.964,0.027366473115431018,3.9640027981566037,0.061286089879895644,0.09105569480359417
0.679,0.0011,0.964,0.02824579894207613,3.953166748565225,0.06368994771791871,0.09074728053322535
0.68,-0.0106,2.964,0.029314952756856645,3.9623758987352,0.06661274800404025,0.09100939019841638
0.681,0.0077,2.964,0.029868232084109003,3.993996049890492,0.06812527590567834,0.09190935893381877
0.682,0.0243,2.964,0.030121661883515647,3.998112037881963,0.06881808986750246,0.09202650766247042
0.683,0.0157,-3.036,0.03112163786594582,3.9823496865073302,0.0715517751868235,0.09157788161498798
0.684,0.0023,-4.036,0.030708154767323966,3.988588858131952,0.07042141536183753,0.091755460127165
0.685,0.0045,-4.036,0.03166447072329691,4.060968918093249,0.07303574504115885,0.09381553222207072
0.686,0.0066,-2.036,0.03505038347138967,4.079201744221066,0.08229198732556739,0.09433447260892959
0.687,0.0202,-3.036,0.03653242779383355,4.079201744221065,0.08634352744056294,0.09433447260892953
0.6880000000000001,-0.0002999999999991229,-4.036,0.037009872485263835,4.04919074116033,0.08764874233240348,0.0934803032426896
0.6890000000000001,0.007600000000000744,1.964000000000666,0.037270864290257284,4.052764472240733,0.08836222893439145,0.09358201832385109
0.6900000000000001,0.014299999999997247,4.964,0.037330480090122235,4.035847275948791,0.08852520368553932,0.09310052322666952
0.6910000000000001,-0.01049999999999748,4.963999999999778,0.03751412177995348,4.064274988382801,0.08902723433460247,0.09390962917571988
0.6920000000000001,0.012199999999999645,3.964,0.037655947141676534,4.1145975337640595,0.08941494955582957,0.09534190308568888
0.6930000000000001,0.009000000000000855,-5.035999999999111,0.03789662526777849,4.102587793345783,0.09007290361829383,0.09500008337573032
0.6940000000000001,0.016699999999998646,-1.036,0.03767334455221376,4.074427402187846,0.08946250974388953,0.09419858589096565
0.6950000000000001,0.004499999999998734,-4.0359999999995555,0.03731490631076498,4.065310504442532,0.08848262885099997,0.0939391019025955
0.6960000000000001,-0.006900000000000211,-2.036,0.03717856889648559,3.990339369749534,0.08810991631146077,0.09180528296700677
0.6970000000000001,-0.008800000000001022,-1.0360000000004441,0.03725140660201972,3.8772511180195504,0.08830903646015453,0.0885865794763605
0.6980000000000001,-0.017999999999998354,-3.036,0.03710057035388604,3.836517571185562,0.08789668771939535,0.08742722642796424
0.6990000000000001,-0.0031999999999993674,-3.035999999999778,0.036990140947856576,3.8504508376422297,0.08759480122273125,0.08782379329228591
0.7000000000000001,0.0025000000000001887,-2.036,0.03704492235885034,3.7943401855845216,0.0877445599585775,0.08622677902353763
0.7010000000000001,0.004199999999999833,-0.03599999999977795,0.03729486196491372,3.541878014197676,0.08842783260093823,0.07904123269252539
0.7020000000000001,0.0026999999999998336,0.964,0.03868686718370029,3.5176489416391514,0.09223322822830855,0.07835162789957617
0.7030000000000001,0.0011999999999998778,-2.035999999999334,0.04041256225123844,3.6019980523920996,0.09695084880584395,0.08075236160144345
0.704,0.0001,0.964,0.039695305335702175,3.638525398291946,0.09499004701196698,0.08179199829184519
0.705,0.0011,0.9639999999997779,0.03963505184834202,3.6019980523920996,0.09482532898200584,0.08075236160144345
0.706,-0.0065,-0.036,0.039907855826847236,3.5979766203073513,0.09557110712487654,0.08063790411102718
0.707,-0.0173,0.964000000000222,0.040107930304032265,3.6540394697568686,0.09611806092242912,0.0822335578279985
0.708,-0.0158,1.964,0.03983971565660384,3.7357657392158172,0.0953848288678751,0.08455964055331196
0.709,-0.0361,-1.035999999999778,0.03975057060288712,3.7449117445722853,0.09514112849014877,0.0848199529988224
0.71,-0.0333,-0.036,0.03974764711121388,3.8781983913768245,0.0951331363919297,0.08861354065062053
0.711,-0.0359,-0.03600000000066613,0.03958341533614589,4.082814834404808,0.0946841676163214,0.09443730792390286
0.712,0.0007,-3.036,0.03962061574974936,4.1163238481715405,0.09478586428336866,0.09539103722760292
0.713,0.059,-7.036,0.03973735979421735,4.1329764756795635,0.09510501342903586,0.09586500220158169
0.714,0.0666,-4.036,0.03990535933213832,4.128293628822108,0.09556428233002603,0.09573171960771648
0.715,0.0313,-3.036,0.04020680628840572,4.126890669997201,0.09638836324134907,0.09569178877141933
0.716,0.0373,-0.036,0.04074024699633889,4.113030202167446,0.09784665729803353,0.09529729389239207
0.717,-0.0038,0.964,0.04088387084375366,4.144675039275592,0.09823928913127816,0.0961979652362565
0.718,-0.0623,3.964,0.040890843389848754,4.15276242521509,0.09825835033598043,0.09642814739006517
0.719,-0.0392,7.964,0.04088921741031098,4.160518340887034,0.09825390531282983,0.09664889527912131
0.72,-0.0461,5.964,0.040769314542264685,4.154156646533876,0.0979261207301181,0.09646782954057027
0.721,-0.0274,4.964,0.0408202917175341,4.064436605293121,0.09806547963283474,0.09391422909574197
0.722,0.0018,0.964,0.040825594449748426,4.093307686195553,0.09807997598220841,0.09473595414195868
0.723,-0.0033,-0.036,0.0407719426310126,4.093307686195553,0.09793330527030135,0.09473595414195868
0.724,-0.008,-4.036,0.04050443656158582,4.089126881829325,0.09720201029155186,0.09461696061786197
0.725,-0.0298,-4.036,0.040243504975451906,4.081235297201099,0.09648868831292999,0.09439235133616354
0.726,0.0221,-0.036,0.04014207680653426,4.081235297201099,0.09621140895701792,0.09439235133616354
0.727,-0.013,-0.036,0.04014103646701259,4.080364808694924,0.09620856492783376,0.09436757560260561
0.728,-0.0709,0.964,0.04010070891837964,4.092921260730661,0.09609831945234325,0.0947249557493432
0.729,-0.0785,3.964,0.040297508107026134,4.0915061728998765,0.0966363194266524,0.09468467969881772
0.73,-0.0573,4.964,0.040472410813792006,4.089929992305733,0.09711445987221932,0.09463981864647454
0.731,0.0393,1.964,0.04049015472039972,4.079428452630385,0.09716296729425063,0.09434092515494802
0.732,0.0807,1.964,0.0405012201986588,4.067314868237138,0.09719321755625653,0.09399614985093256
0.733,0.0435,-4.036,0.04044948004882782,4.059380880479658,0.0970517728710865,0.09377033369674248
0.734,0.0777,-8.036,0.040430881096242766,4.067637854073047,0.09700092796627893,0.09400534263286674
0.735,0.1503,-4.036,0.04043037705649031,4.049352960109955,0.09699955004711303,0.0934849202978781
0.736,0.1032,-2.036,0.04043788729350251,4.03522616929744,0.09702008116488546,0.09308284536786292
0.737,0.0605,2.964,0.040463356278335375,4.03186627485321,0.09708970702706507,0.09298721647794368
0.738,0.053,4.964,0.04041291398457206,4.022652918178542,0.09695181035718851,0.09272498708774911
0.739,0.0321,2.964,0.04047384212313581,4.0050496579790105,0.09711837271553687,0.09222396532656502
0.74,0.0384,4.964,0.04058682147215179,4.000940807105492,0.09742723012133263,0.09210701973366014
0.741,0.0328,6.964,0.040664466242959586,3.9693759784503504,0.09763949158941657,0.0912086255802468
0.742,0.0485,-0.036,0.040711486478161335,3.9375581233342363,0.0977680332033558,0.09030302981976374
0.743,-0.0043,-2.036,0.040743819016265025,3.91735595930316,0.09785642231099781,0.08972803838704896
0.744,-0.0251,-1.036,0.040748201098566444,3.8930637881106938,0.09786840183277226,0.0890366376887761
0.745,-0.0188,0.964,0.04078407210958952,3.898029235529954,0.09796646424421607,0.08917796362402138
0.746,-0.0244,-3.036,0.04079265909622144,3.8848429114368535,0.0979899389273138,0.08880265613860198
0.747,-0.0293,-7.036,0.04080331730909977,3.880437512494281,0.09801907582718701,0.08867727023213308
0.748,-0.0244,-6.036,0.040794717627537315,3.8854190959432224,0.09799556643931051,0.08881905542901045
0.749,-0.0373,-3.036,0.04079383996624892,3.8808450955557774,0.09799316713190556,0.08868887080958208
0.75,-0.057,-4.036,0.040824349821400686,3.87202018839812,0.0980765734782463,0.0884376974203179
0.751,-0.1112,3.964,0.04083787349661367,3.8735154605378668,0.09811354383857751,0.08848025566648446
0.752,-0.1186,8.964,0.040939281832591705,3.8735154605378663,0.09839076897617155,0.08848025566648444
0.753,-0.0262,4.964,0.04100018651066096,3.877759332906272,0.09855726719937014,0.08860104422406741
0.754,-0.0137,-0.036,0.041000498355930746,3.874262880195088,0.09855811970668121,0.08850152863005824
0.755,-0.0475,-5.036,0.04107542192468032,3.8770125873035393,0.09876294208597886,0.08857979044534706
0.756,-0.0575,-9.036,0.041266665874592844,3.8797603456093315,0.09928575542096947,0.08865799679406154
0.757,0.0086,-8.036,0.04167275491765911,3.8902254531858675,0.10039590173935356,0.08895585335980818
0.758,0.017,-3.036,0.0416938437991224,3.8929638855077675,0.10045355348966561,0.08903379427355088
0.759,-0.006,9.964,0.04166849922546079,3.9172566762285332,0.10038426773664699,0.08972521260475969
0.76,-0.0128,12.964,0.041620781725641286,3.946304370394376,0.10025381997487749,0.09055196439529987
0.761,0.0192,6.964,0.04238764434583654,3.9565934743218567,0.10235023141234942,0.09084481156748958
0.762,0.0308,3.964,0.043281765771720805,3.9668558907904448,0.10479453673425337,0.09113689916460602
0.763,0.0366,-1.036,0.04351914931747061,3.9668558907904448,0.1054434842344599,0.09113689916460602
0.764,0.0522,-2.036,0.04359416324089769,3.9130556406140213,0.10564855362094547,0.08960564326143794
0.765,0.0663,-2.036,0.04409171011139904,3.8984349793696493,0.10700872286446893,0.08918951185377254
0.766,0.0357,-6.036,0.044124318096694204,3.8923888178454957,0.10709786497613985,0.08901742677061757
0.767,-0.0082,-4.036,0.04396741955006431,3.8923888178454957,0.10666894342094149,0.08901742677061757
0.768,0.0091,2.964,0.04427459434694843,3.8916448794124348,0.10750868282214873,0.08899625288920471
0.769,0.0246,1.964,0.04407373731445493,3.9484370093072148,0.10695958971325678,0.09061266329379758
0.77,0.0485,2.964,0.043904950396895785,3.8652149836789396,0.10649816831241118,0.08824400854592901
0.771,-0.0173,-5.036,0.04375384350252556,4.036106393105434,0.10608507969223833,0.09310789818634758
0.772,-0.0268,-3.036,0.04369763058844197,4.066441399835757,0.10593140758342116,0.09397128930397489
0.773,-0.0186,-0.036,0.04393352595213851,4.076976391902428,0.10657628676448504,0.09427113491322428
0.774,-0.011,-2.036,0.043973359678280956,4.086936534542993,0.1066851822522595,0.09455461923095045
0.775,-0.0179,-0.036,0.04398964837453148,4.07871862945927,0.10672971149155454,0.09432072225779771
0.776,0.0008,-0.036,0.04391774439714724,4.070484133271362,0.10653314392310315,0.09408635307074002
0.777,-0.0051,-4.036,0.0440792855539283,4.082588314043133,0.10697475721833984,0.09443086073007262
0.778,-0.0422,-2.036,0.04407359118791775,4.39019977638998,0.10695919023969296,0.10318605919209006
0.779,-0.0376,-0.036,0.043500156721565736,4.418759527319592,0.10539156320684202,0.10399892320407088
0.78,-0.016,0.964,0.04279074330933207,4.425988812913484,0.10345220359778459,0.10420468221457797
0.781,-0.0122,-0.036,0.04241760024383335,4.434808602630028,0.10243212337777637,0.10445570995188164
0.782,0.0131,-2.036,0.042360039731031134,4.456148493435848,0.10227476726964504,0.10506308321989098
0.783,0.0098,-4.036,0.04166990267195258,4.451007588593727,0.10038810440986563,0.1049167634377095
0.784,0.0011,-0.036,0.04149798913474355,4.45360886484719,0.09991813560949626,0.10499080063281221
0.785,0.009,-2.036,0.040847594748875796,4.395051939524661,0.09814011932145042,0.10332416084438259
0.786,0.0158,-1.036,0.0379846388190081,4.397686314239116,0.09031351074999011,0.10339914008368793
0.787,0.0001,-1.036,0.0365660136369427,4.423789423656679,0.08643534277198858,0.10414208347624862
0.788,-0.0222,-1.036,0.03607432523609404,4.423789423656679,0.0850911891256041,0.10414208347624862
0.789,-0.0312,0.964,0.035687772943407484,4.399002909990991,0.08403445141766529,0.10343661286514404
0.79,-0.0289,0.964,0.035641053854281166,4.388581196519661,0.0839067330621041,0.10313999137692104
0.791,-0.0222,0.964,0.03543533352510361,4.363594694251345,0.08334434491114884,0.10242882871555022
0.792,-0.0203,0.964,0.03571702890886816,4.31004426324364,0.08411442994183749,0.10090468313390609
0.793,-0.0108,1.964,0.03620366221083503,4.3299033747628455,0.08544476420671313,0.10146991064949826
0.794,-0.0239,1.964,0.03624884884240132,4.326772313826844,0.08556829320492182,0.10138079478989334
0.795,-0.0095,1.964,0.03616463340317307,4.379907091503608,0.08533806916562145,0.10289311009910214
0.796,-0.0116,-0.036,0.03651279845995734,4.563228050117829,0.08628986572989361,0.10811076799347885
0.797,-0.0027,1.964,0.03741877366434168,4.681867882592974,0.08876657633035775,0.11148747987181973
0.798,-0.0178,1.964,0.03791324292789892,4.63219811704449,0.09011833216288975,0.1100737852987335
0.799,-0.0161,0.964,0.03795738540029402,4.600045952257115,0.09023900668994367,0.1091586744587494
0.8,-0.0108,1.964,0.03791233737983743,4.596183184714915,0.0901158566199916,0.10904873285843783
0.801,-0.0291,-0.036,0.03755940408819936,4.585005168257833,0.08915102488902749,0.10873058557047005
0.802,-0.0225,1.964,0.035904783715112576,4.567033532652455,0.08462770482691521,0.10821907915516381
0.803,0.002,-1.036,0.03395625613111155,4.478386501665302,0.07930091563970824,0.10569601859220591
0.804,0.0248,-2.036,0.03385579684148322,4.453903837708053,0.0790262849585003,0.10499919611300029
0.805,0.0397,-2.036,0.033935624808473924,4.45535125623854,0.07924451474128308,0.10504039235580391
0.806,0.0584,-3.036,0.033755439478532365,4.43400752850929,0.07875193291944652,0.10443290988176611
0.807,0.0218,-2.036,0.03337553998055972,4.356049565129724,0.07771338229555914,0.10221408020657932
0.808,0.0062,-5.036,0.03351659797294175,4.285491309089027,0.07809899972010022,0.10020586006400999
0.809,0.0301,-5.036,0.033532556366320285,4.275993688375257,0.07814262599359614,0.09993553998675532
0.81,0.0869,-3.036,0.03358679554171232,4.163710070492351,0.07829090239233619,0.09673973788270458
0.811,0.0946,-3.036,0.03365612830604894,4.009809613036892,0.0784804409046056,0.09235944256425992
0.812,0.0454,-3.036,0.03366381567188456,3.951467579042499,0.07850145624847218,0.09069891898558152
0.8130000000000001,0.06430000000000327,1.964,0.03369062151062495,3.977422138779793,0.0785747367363281,0.09143763437596601
0.8140000000000001,0.09379999999999353,-2.036,0.03384349736426438,4.040179480837721,0.07899266125063209,0.0932238258932585
0.8150000000000001,0.03559999999999571,-2.036,0.03356320754081251,4.057144656390385,0.07822641867182198,0.09370668657007898
0.8160000000000001,-0.0030000000000054623,-0.03600000000022204,0.03306301741468293,4.071195392147793,0.0768590234256414,0.09410659683075309
0.8170000000000001,-0.0521999999999993,-1.036,0.0330018642082458,4.058020125869417,0.07669184578777423,0.0937316040714552
0.8180000000000001,-0.045899999999994105,-8.035999999998001,0.033004223566887446,4.041287473880115,0.0766982956867668,0.09325536145083066
0.8190000000000001,0.0072000000000023425,0.964,0.032994226028465884,4.034737788955375,0.0766709649063355,0.09306894514845267
0.8200000000000001,0.02829999999999507,12.963999999998668,0.032908055392043487,4.061747812010484,0.07643539584479465,0.09383770100204472
0.8210000000000001,-0.016100000000003264,6.964,0.03279113171794884,4.082105600079889,0.07611575563646002,0.09441712178641835
0.8220000000000001,-0.04549999999999706,2.9639999999986677,0.03335924813781742,4.054745202315244,0.07766884445453912,0.09363839361224159
0.8230000000000001,-0.01899999999999629,-3.036,0.033416721873151915,4.063011596683262,0.07782596333468325,0.09387367068125957
0.8240000000000001,0.014399999999996624,-3.036,0.03336880215405252,4.06721924574408,0.07769496275575968,0.09399342825565205
0.8250000000000001,-0.016000000000003074,-3.036,0.033533830849240207,4.073005889025356,0.07814611011252412,0.09415812696346335
0.8260000000000001,-0.04369999999999636,2.9640000000028865,0.03362014488516252,4.114851691925279,0.07838207119258801,0.09534913690306758
0.8270000000000001,-0.010899999999998534,15.964,0.03362576974954609,4.124720376436792,0.07839744817109422,0.09563001815111391
0.8280000000000001,0.0023000000000004553,4.96399999999778,0.033622556185853046,4.118687428077493,0.0783886630882075,0.09545830913938272
0.8290000000000001,0.006400000000000422,-5.036,0.033403572450521626,4.176080090042089,0.07779001608771577,0.09709181181164966
0.8300000000000001,0.01019999999999526,-6.0359999999997775,0.03381594758846006,4.196573197515947,0.07891734702410053,0.0976750840397657
0.8310000000000001,-0.032499999999999356,-5.036,0.03427916660590073,4.195036493428084,0.08018367246576813,0.09763134656274197
0.8320000000000001,-0.026699999999999426,-0.03599999999911182,0.034500711198656414,4.195036493428085,0.08078932021274636,0.097631346562742
0.833,-0.0215,3.964,0.03456780210744142,4.196416669595224,0.08097273005021041,0.09767062896192068
0.834,-0.0261,2.964000000000222,0.03461406889192151,4.190486942023252,0.0810992119175029,0.09750185780715867
0.835,0.0045,3.964,0.03462892530030708,4.202245479980297,0.08113982563844727,0.097836527824497
0.836,0.0086,4.963999999999556,0.03464635180230521,4.203623289220634,0.08118746535531687,0.097875742856505
0.837,-0.0094,2.964,0.03483500770052219,4.208222311193356,0.0817032036014553,0.09800663963712285
0.838,-0.0059,1.9639999999993338,0.035387749045273295,4.238691725747516,0.08321426079290478,0.09887385625320058
0.839,-0.0264,-1.036,0.035442707986803886,4.26894367161425,0.08336450485302958,0.09973488330305355
0.84,0.0035,1.964,0.035353527129151414,4.358316861158352,0.0831207065962589,0.10227861169884342
0.841,0.0555,1.964,0.035592384880974694,4.747316867867664,0.08377368420875964,0.11335028059727337
0.842,0.0765,3.964,0.03567600729886097,5.224980647129429,0.0840022870753868,0.12694548655497137
0.843,0.0186,-1.036,0.03572728622791685,5.459047591595825,0.0841424708978121,0.1336074702683436
0.844,-0.0045,-7.036,0.03571503869534425,5.4684392729382365,0.08410898919367132,0.1338747751126349
0.845,-0.0537,-13.036,0.03591674729788942,5.557606629578943,0.08466041028302433,0.13641264511841064
0.846,-0.0854,-11.036,0.037360707636134576,6.0556329734626235,0.08860783826899422,0.15058740781011457
0.847,-0.0677,-1.036,0.03819213810701231,6.3818962015692575,0.09088076213137644,0.15987347046570966
0.848,-0.0305,1.964,0.03819181712603711,6.3818962015692575,0.09087988464932177,0.15987347046570966
0.849,0.0324,1.964,0.038158689404804255,6.384678693796974,0.09078932170902322,0.15995266540690858
0.85,0.0242,1.964,0.03816575918350018,6.390034455256228,0.09080864872344303,0.16010510041090115
0.851,-0.0145,-1.036,0.038241692561885116,6.3870066601354285,0.09101623167081832,0.16001892368984308
0.852,-0.0213,-2.036,0.03828564077888431,6.393369050341679,0.09113637515199378,0.16020000923367664
0.853,-0.0023,1.964,0.03862317835816262,6.390342835178673,0.09205911883924701,0.16011387748117709
0.854,0.027,0.964,0.038798514975381206,6.389786926966753,0.09253844548793813,0.1600980552920919
0.855,0.0322,1.964,0.03884307072849693,6.389786926966753,0.09266024982156597,0.1600980552920919
0.856,0.0275,2.964,0.038725038953103134,6.389786926966753,0.09233758034022176,0.1600980552920919
0.857,0.0319,-1.036,0.03829944139573701,6.389786926966753,0.09117410260180325,0.1600980552920919
0.858,0.0199,-0.036,0.03823769402172311,6.389786926966753,0.09100530065774236,0.1600980552920919
0.859,-0.02,-3.036,0.0383870999214536,6.3777086648628645,0.09141373918215634,0.15975428532660027
0.86,-0.0251,-7.036,0.03838398435046596,6.365607485205044,0.09140522198692377,0.15940986308459262
0.861,-0.0205,1.964,0.03742422018955612,6.365607485205044,0.08878146577398603,0.15940986308459262
0.862,-0.0336,5.964,0.03632244350766156,6.36190648128486,0.08576948269300666,0.15930452557999283
0.863,-0.0487,6.964,0.03608253424597858,6.367178233385531,0.08511363051439924,0.1594545695202667
0.864,-0.0289,3.964,0.03559015512496919,6.369967154634269,0.0837675886111003,0.1595339474434473
0.865,-0.0326,-4.036,0.0343827812432116,6.373663477953915,0.08046692908178718,0.1596391517293877
0.866,-0.0295,-5.036,0.034207121070639106,6.377357658880971,0.07998671791333109,0.15974429503882168
0.867,-0.0091,0.964,0.03464201748819804,6.380039174445259,0.08117561641989016,0.15982061599502148
0.868,0.0041,1.964,0.03455937454893979,6.385852255229876,0.08094969120391969,0.15998606716370284
0.869,0.0061,4.964,0.035294528817578295,6.3559259977105045,0.08295941990433237,0.15913430981432256
0.87,0.0398,4.964,0.036847815364392085,6.373415313854682,0.08720571851982958,0.1596320885142417
0.871,0.0637,0.964,0.03680662030298534,6.248295816245326,0.08709310148044584,0.15607095322792827
0.872,0.0332,-4.036,0.036935670921894294,6.21927254405488,0.08744589373601916,0.1552448965325572
0.873,0.0051,-2.036,0.03673811623193146,6.223269480813459,0.08690582840924806,0.15535865684010397
0.874,-0.035,-3.036,0.036721661949270464,6.2286585722696675,0.08686084649794153,0.15551204047824638
0.875,-0.03,-6.036,0.0367705170176245,6.2496000949789545,0.08699440408880416,0.15610807544397182
0.876,-0.0062,-3.036,0.03677137712477778,6.270471679579894,0.08699675540757508,0.15670211984011972
0.877,-0.0021,2.964,0.03669976561489905,6.289893186388062,0.08680098737245273,0.15725489230587786
0.878,0.0177,6.964,0.036814307067318204,6.117692507400741,0.08711411517995366,0.15235373840112446
0.879,0.0647,3.964,0.036826903740064115,6.124076418941342,0.08714855134638448,0.15253543648244922
0.88,0.0584,-0.036,0.03692239693179097,6.116960634657479,0.08740960595260051,0.15233290793184576
0.881,0.0409,-0.036,0.03691016291676937,6.1273413471940215,0.087376161202078,0.15262836245665828
0.882,0.0252,1.964,0.036778297910973534,6.146423443206774,0.08701567511360193,0.1531714746553661
0.883,0.0204,2.964,0.03674131318215092,6.184517216144773,0.08691456807503511,0.15425569479363635
0.884,-0.0102,2.964,0.03681595253359031,6.208575002906633,0.08711861347498326,0.15494042447194556
0.885,-0.0142,1.964,0.03712701005134531,6.2383851562370625,0.08796896726816616,0.1557888772786124
0.886,-0.0395,1.964,0.037228989088639704,6.243507873729044,0.08824775256104157,0.15593467941473885
0.887,-0.0623,4.964,0.037220039370769266,6.249763270656147,0.08822328626106603,0.1561127197294191
0.888,-0.0297,4.964,0.03730526154230819,6.269248930374378,0.08845626245580467,0.15666731810717424
0.889,0.0185,-9.036,0.03730660652310408,6.302969408362851,0.08845993929836998,0.1576270660787576
0.89,0.0503,-19.036,0.03721543900194843,6.329529702764567,0.08821070999830577,0.15838302181240457
0.891,0.033,-22.036,0.03723345530579943,6.374479747322187,0.08825996208656715,0.15966238428471308
0.892,0.0279,-16.036,0.03681918039336017,6.397720584840683,0.08712743763978395,0.1603238620571782
0.893,-0.0054,-4.036,0.03603407218697452,6.4110743618005275,0.08498114731323125,0.1607039355648719
0.894,-0.0449,9.964,0.03601172776111273,6.437188622990393,0.08492006321719267,0.16144719635776275
0.895,-0.1033,23.964,0.03600952722429971,6.427308362671949,0.08491404749752933,0.16116598564056642
0.896,-0.0801,19.964,0.03575396471426923,6.3245996501979045,0.08421540323595285,0.15824270328096884
0.897,-0.0022,1.964,0.03514266480234375,6.249634650183831,0.08254426150425667,0.1561090589498343
0.898,0.008,-3.036,0.035860851664612683,6.2865380564571,0.084507605540923,0.15715939902293152
0.899,0.0177,-3.036,0.03756367023792306,6.301610332992091,0.08916268748000428,0.15758838424777163
0.9,0.0264,-1.036,0.03902951727403285,6.346758115740231,0.09316994824765318,0.1588733747194021
0.901,0.0344,-3.036,0.03914522517340996,6.380068948802367,0.09348626483066547,0.1598214634290006
0.902,0.0557,-1.036,0.040842001165172184,6.440661179113954,0.09812482785653363,0.16154603181012306
0.903,0.0369,-0.036,0.04474877594301424,6.485733875102389,0.10880497722384737,0.16282888517191352
0.904,0.031,-2.036,0.049199544589255795,6.50857745834864,0.1209722703605848,0.16347905634362048
0.905,0.0257,-2.036,0.0503859321874195,6.513831349341244,0.12421555861661163,0.16362859192329984
0.906,0.0115,-3.036,0.05066372175163762,6.523479875763579,0.12497496610929779,0.16390320705970954
0.907,-0.0016,-2.036,0.05060897238583801,6.5290646428419,0.12482529497703237,0.16406215999261325
0.908,0.0344,-3.036,0.05050837197098985,6.5290646428419015,0.12455027849461678,0.1640621599926133
0.909,0.0297,-3.036,0.05048590605471664,6.576132734600307,0.12448886227404725,0.16540180605596005
0.91,0.0166,-3.036,0.05129638689465385,6.5725502785446555,0.12670451506237015,0.16529984264565867
0.911,0.0287,-2.036,0.05190290232033128,6.614955730733677,0.12836257720010946,0.1665067812524127
0.912,0.018,-4.036,0.052152182060475394,6.740881911859885,0.12904404593336846,0.17009087626276304
0.913,-0.0246,-3.036,0.05225204834622686,6.7256002042797745,0.12931705548964847,0.169655930238055
0.914,-0.0187,-3.036,0.05203043383807816,6.694932144849925,0.12871121661139626,0.1687830598166969
0.915,0.0079,-3.036,0.05208026504278103,6.6846648306889636,0.12884744271595652,0.16849083282208074
0.916,-0.0548,-2.036,0.0521606489103496,6.679643652139365,0.12906719219248738,0.1683479206744658
0.917,-0.0464,-3.036,0.05231375417414188,6.664557418337181,0.12948574385702094,0.16791853819965546
0.918,-0.0851,-5.036,0.052404844297131,6.709714360095431,0.12973476156977173,0.1692037893538711
0.919,-0.1061,-5.036,0.05240535105334091,6.7644968152847005,0.1297361469150559,0.1707630006516537
0.92,-0.0223,-4.036,0.05254014077093111,6.747455017826065,0.13010462843725834,0.17027795917185465
0.921,0.0348,-4.036,0.052389352568582036,6.727828186941686,0.12969241104170978,0.16971934279825726
0.922,0.0248,-4.036,0.05202005896998441,6.764691023136383,0.1286828543056048,0.17076852817091903
0.923,0.0155,-4.036,0.051914018501020696,6.8026310857999475,0.12839296606993383,0.17184837342683587
0.924,0.0238,-6.036,0.05195726149945934,6.812720617711156,0.12851118165918016,0.17213554040558743
0.925,0.0162,-6.036,0.05187011894780821,6.909204254235383,0.12827295562343283,0.1748816454423181
0.926,0.0372,-6.036,0.05186329672126855,6.954532460423278,0.12825430535496216,0.1761717711030283
0.927,0.031,-7.036,0.05190009783975893,7.174405231748747,0.12835491044860375,0.18242976205909256
0.928,-0.0099,-6.036,0.05342149461677655,7.249245101148282,0.13251403037475243,0.18455984493853214
0.929,0.0273,-4.036,0.05453993654719439,7.284932449876925,0.13557157209517054,0.18557557373588818
0.93,0.0037,-7.036,0.0543182444478071,7.602786224520226,0.13496552110179397,0.19462228759262232
0.931,-0.0092,-7.036,0.05408502672297186,7.8162955389518896,0.13432796191858423,0.20069916264492696
0.932,-0.021,-7.036,0.053961557856333685,7.9432368619512195,0.1339904287837366,0.20431215049463536
0.933,-0.0318,-7.036,0.054173484267196384,7.956990518268078,0.13456978281656432,0.20470360531791726
0.934,-0.0546,-7.036,0.054760068364915676,7.9507868695532675,0.13617335766701766,0.204527037854298
0.935,-0.0279,-5.036,0.055499992692701554,8.032532634936716,0.1381961265212866,0.2068536754701441
0.936,-0.0027,-6.036,0.05589331600319431,8.058878442009226,0.13927137450577096,0.20760352649260622
0.937,0.0269,-6.036,0.056085156684346014,8.077274192186032,0.1397958191553699,0.2081271040031023
0.9380000000000001,0.00669999999999879,-7.036,0.055813947603787,8.082110414098569,0.13905440106631844,0.20826475193835017
0.9390000000000001,-0.00419999999999819,-6.036000000000444,0.05584591697590011,8.094798558005674,0.13914179736857876,0.2086258802824432
0.9400000000000001,0.012099999999999046,-8.036,0.055984539380419814,8.062648422665605,0.1395207565024207,0.20771082720433115
0.9410000000000001,0.0035000000000008883,-6.036,0.055795081884474414,7.8715678572520345,0.13900282688770876,0.2022723163644978
0.9420000000000001,0.011500000000000232,-6.036,0.055717607658325306,7.573431288071123,0.13879103164625217,0.1937867911111485
0.9430000000000001,0.013599999999998256,-6.036,0.05575087075203205,7.408709675214662,0.13888196466118355,0.18909850543889417
0.9440000000000001,-0.002100000000003364,-6.036,0.05598377328738575,7.3986864195803435,0.13951866219484008,0.18881322480713722
0.9450000000000001,-0.03240000000000244,-6.0359999999997775,0.05591812138428718,7.35452099402941,0.13933918624057776,0.18755619406157326
0.9460000000000001,-0.05440000000000488,-5.036,0.0549685309868104,7.006821514630016,0.13674324256336873,0.17766001553799995
0.9470000000000001,-0.09840000000000194,-7.0359999999995555,0.054386934836516784,6.718357357443351,0.1351533035190654,0.1694497852491814
0.9480000000000001,-0.11589999999999943,-5.036,0.05463739529035843,6.715477594301522,0.13583800002954907,0.16936782179555077
0.9490000000000001,-0.11079999999999197,-8.035999999999778,0.054967738805101266,6.709420659215906,0.1367410769358471,0.16919543007665463
0.9500000000000001,-0.03859999999998268,-7.036,0.05536218357627919,6.749210952232424,0.13781939071457563,0.17032793635442345
0.9510000000000001,0.11740000000000742,-9.035999999999778,0.05539819480912788,6.820248506432281,0.13791783645757225,0.17234979822046403
0.9520000000000001,0.1841000000000023,-8.036,0.05535621885926118,6.900190310575877,0.1378030846635979,0.17462509172009225
0.9530000000000001,0.20449999999998972,-6.0359999999993335,0.05508265034703624,7.037399082776221,0.13705521647592364,0.17853031040790968
0.9540000000000001,0.11199999999999445,-3.036,0.05496325533518092,7.047936163629487,0.13672882024557034,0.17883021546793845
0.9550000000000001,0.06199999999999154,3.964,0.05487638880136088,7.0722392163955305,0.13649134877383853,0.1795219258761796
0.9560000000000001,-0.01419999999999848,3.964,0.054979906815826866,7.142220423993694,0.13677434124706095,0.1815137221390988
0.9570000000000001,-0.0005000000000013878,-1.0360000000015543,0.055096318611163125,7.208255895625397,0.13709258210633954,0.18339321536492856
0.9580000000000001,-0.013000000000008881,-8.036,0.05617949055888434,7.263663172731254,0.1400537044770887,0.18497021026492613
0.9590000000000001,-0.09299999999999889,-2.0359999999973355,0.05619865703624181,7.27427053697212,0.14010610085329755,0.18527211572182672
0.96,-0.083,9.964,0.05612834534775966,7.364709977780408,0.1399138862061885,0.18784619162598676
0.961,-0.0549,12.963999999998002,0.05634798671990146,7.42486936655505,0.14051433102195338,0.1895584405261326
0.962,-0.0466,3.964,0.05678308574604142,7.428040770586263,0.14170378340991885,0.18964870462580136
0.963,0.0078,2.9639999999988897,0.05701852171009049,7.435848874051578,0.14234740670674745,0.18987093787721937
0.964,0.0368,-2.036,0.05701184228785673,7.648702655808125,0.14232914682968761,0.19592915524159135
0.965,0.0436,-3.035999999999778,0.05700742154514108,7.833298202882525,0.142317061619968,0.2011830903112109
0.966,0.0497,-2.036,0.05700905166789958,7.907028305760896,0.14232151796965228,0.20328158715655031
0.967,0.0322,-8.036000000000222,0.05685104886153225,7.911104457197056,0.14188957764331742,0.20339760206221263
0.968,-0.0047,-9.036,0.056664037986252594,7.938169054753199,0.14137833648024173,0.20416791120833763
0.969,-0.0381,-2.036,0.05602136818490777,7.928449960974271,0.13962143728268525,0.20389128759276662
0.97,0.0013,-0.036,0.055008815457997635,7.9432064018154085,0.1368533702758499,0.2043112835421097
0.971,-0.0142,6.964,0.054969407852256624,7.938981254717579,0.13674563969513936,0.20419102794080507
0.972,0.0,7.964,0.05489450643807851,7.931785057891366,0.1365408778809231,0.20398621069861078
0.973,0.0218,3.964,0.0549221006637528,7.922423612017474,0.13661631362233012,0.20371976641239317
0.974,0.0179,-12.036,0.05500111733197882,7.9181873752247,0.13683232551632202,0.20359919517759628
0.975,0.0288,-10.036,0.05494962184255253,7.90166929021427,0.13669154967177244,0.20312905953513533
0.976,-0.0205,-18.036,0.05496820431895556,7.880409550048421,0.13674234953480127,0.20252396750448448
0.977,-0.1266,-11.036,0.054850954038338035,7.882613762419427,0.1364218164655655,0.20258670351767905
0.978,-0.1113,9.964,0.05476703470236121,7.894873719143418,0.13619240189881812,0.20293564485242443
0.979,-0.0421,21.964,0.05478174116140085,7.905483635624518,0.13623260569559148,0.20323762295086314
0.98,-0.0297,17.964,0.05471841902039601,7.906948518894858,0.13605949873072995,0.2032793162728794
0.981,-0.0184,13.964,0.05482024633022104,7.878007251061661,0.1363378692384877,0.20245559357513307
0.982,0.0541,4.964,0.054836759207812155,7.848590368548675,0.1363830113337417,0.20161833399263857
0.983,0.0825,-0.036,0.054889894807125174,7.828094087070139,0.13652827083029712,0.20103497142640356
0.984,0.0909,-12.036,0.05482692547641365,7.800226544184569,0.1363561283609198,0.20024180895205845
0.985,0.0677,-7.036,0.05459709740470322,7.80022654418457,0.13572783564525293,0.20024180895205848
0.986,0.0609,-6.036,0.05452786923054201,7.815225095847842,0.13553858305647778,0.20066869582894184
0.987,0.0291,-6.036,0.05456064796670165,7.7984889280884,0.13562819195849135,0.20019235314291306
0.988,-0.0352,-7.036,0.05453246774078792,7.7916188935569215,0.135551154238357,0.19999681909062153
0.989,-0.0435,4.964,0.05482752721452576,7.7834581262668205,0.13635777336307187,0.19976454836611057
0.99,-0.0203,6.964,0.05482898683550676,7.763620423939608,0.13636176360335528,0.19919993019622803
0.991,0.015,3.964,0.0548161194013076,7.723792167992271,0.13632658724253702,0.19806634342233279
0.992,0.0339,1.964,0.05496662185912406,7.701580226150582,0.13673802348369024,0.19743414994824338
0.993,0.0513,-0.036,0.05495734466075688,7.679304037823255,0.13671266193358667,0.1968001278988208
0.994,0.0358,5.964,0.05495686211174198,7.657805067494162,0.13671134276474556,0.196188226929578
0.995,0.0119,8.964,0.05497945118403016,7.641860849294603,0.13677309566319137,0.19573442461156992
0.996,0.0075,2.964,0.05497362805629004,7.6194100667621605,0.13675717668204043,0.19509543328400522
0.997,-0.0523,-1.036,0.054767926765646395,7.606188008997937,0.13619484057769587,0.19471910875136636
0.998,-0.0607,-0.036,0.05387816665625508,7.6061880089979415,0.13376245800901718,0.1947191087513665
0.999,-0.0683,-8.036,0.05271399962056045,7.63121286333153,0.130579915237358,0.19543136298435929
1.0,-0.0331,-10.036,0.05185503886158602,7.592942926887542,0.128231730422984,0.1943421289027043
1.0010000000000001,-0.02679999999999605,-11.036,0.05223515203582771,7.658837724379077,0.12927086518458072,0.19621761827898226
1.002,-0.009,-14.036,0.05123848049299485,7.688673728718657,0.12654621338023853,0.19706680685379582
1.0030000000000001,0.006899999999999045,-4.036,0.04884123644393308,7.760573918591369,0.11999274511810705,0.19911322094704748
1.004,0.0026,5.964,0.04490605810730604,7.792299972386711,0.1092349474942039,0.20001620386997138
1.0050000000000001,0.04239999999999893,9.964,0.04432342486145916,7.787536818628183,0.10764217328891823,0.19988063559126404
1.006,0.0376,9.964,0.04400934289551819,7.806656138925012,0.1067835514075509,0.20042480726282833
1.0070000000000001,0.10979999999998392,8.964,0.04398718977310201,7.845778457202954,0.10672299028749374,0.20153830172823084
1.008,0.0374,-5.036,0.04408398559171558,7.875205843278957,0.10698760595123451,0.20237586026180499
1.0090000000000001,-0.009600000000009502,-12.036,0.04420756224217566,7.842239265929663,0.10732543374021061,0.20143756971468266
1.01,-0.0524,-10.036,0.0456594229751804,7.856906811875768,0.1112944594380762,0.20185503554878773
1.0110000000000001,-0.07579999999999534,-3.036,0.04546123969322468,7.815331276845312,0.11075267569733015,0.200671717939037
1.012,-0.0548,4.964,0.04592569681433413,7.715137340228932,0.11202238580611237,0.1978200108112379
1.0130000000000001,-0.022999999999998733,17.964,0.04671735650641983,7.7048463914504675,0.11418658626310087,0.19752711113113328
1.014,-0.0173,16.964,0.04796343920641653,7.69890097560581,0.1175930660621082,0.19735789345874202
1.0150000000000001,0.008999999999990295,10.964,0.04928521652234254,7.698900975605812,0.12120647609139439,0.19735789345874208
1.016,-0.0347,2.964,0.04965254748140761,7.715853158882476,0.122210667459759,0.1978403843510494
1.0170000000000001,-0.005499999999998912,6.964,0.0496196694105194,7.714096537531306,0.12212078700133412,0.19779038761674445
1.018,-0.0006,-3.036,0.04956044777774844,7.685182524920423,0.1219588898048647,0.19696744065368194
1.0190000000000001,0.00390000000000091,-7.036,0.04964356938105416,7.637007271923749,0.12218612356914277,0.19559628270746665
1.02,0.008,-3.036,0.04962932234415909,7.634767246828672,0.12214717571810615,0.19553252739705762
1.0210000000000001,0.01970000000000235,-2.036,0.049660343899096,7.6356117197094076,0.12223198092423468,0.19555656267718088
1.022,0.0303,-0.036,0.04986485803864555,7.604374237629373,0.12279107165311547,0.19466748542050819
1.0230000000000001,0.0332999999999927,-3.036,0.0498759079465128,7.570453255580641,0.12282127934954748,0.19370203072776881
1.024,0.0004,-3.036,0.04993610053718997,7.581741771240522,0.12298583090314198,0.19402332303004463
1.025,-0.0216,-1.036,0.050155885604139916,7.490778497254576,0.12358666854472905,0.19143433785236016
1.026,-0.0098,5.964,0.050275850972902554,7.426157908580579,0.1239146239888352,0.18959511484598432
1.027,-0.0064,7.964,0.05032898927273896,7.209218701119726,0.12405989086794907,0.18342061861290526
1.028,0.0161,6.964,0.04874316453319352,7.129438482013625,0.11972464093626964,0.1811499241261388
1.029,0.0072,3.964,0.04775716422695883,7.062666111102175,0.1170291616354075,0.17924945736638584
1.03,-0.0336,0.964,0.04781986794119923,6.709080599823757,0.1172005779754973,0.16918575134932629
1.031,-0.0163,-1.036,0.0480187264732135,6.4653660882968795,0.11774420768175087,0.16224917980477985
1.032,-0.032,-4.036,0.04804699383254323,6.309779566973293,0.11782148360294635,0.15782089595017182
1.033,-0.0179,-2.036,0.04793205463711491,6.289351767734,0.11750726846510537,0.15723948251675238
1.034,0.0216,-7.036,0.04750664967365173,6.308047919421642,0.11634431723045728,0.15777161001698423
1.035,-0.0048,-7.036,0.046635454069114304,6.20221954964206,0.1139626853950674,0.154759536366467
1.036,-0.0191,-3.036,0.046311101210710234,6.25906907281737,0.11307598545139057,0.15637758029133766
1.037,0.0204,-5.036,0.045920288827516274,6.234382675290485,0.11200760171686341,0.15567495917308935
1.038,0.0572,-6.036,0.04598361573804792,6.206842987176093,0.11218072172042351,0.15489112805969704
1.039,-0.0058,-2.036,0.04606026263308701,6.187947212871862,0.11239025524464946,0.15435331892584722
1.04,0.0023,-0.036,0.04601570248526773,6.173129460975374,0.11226843889699648,0.15393157794901585
1.041,0.0408,-0.036,0.04598050877546122,6.139702407959104,0.11217222805841545,0.15298018140180972
1.042,0.0055,-0.036,0.046272234041151335,6.1267658185662155,0.11296973228862107,0.15261198183378238
1.043,-0.0134,0.964,0.04621396465249369,6.137022913219649,0.11281043829042714,0.15290391796207026
1.044,0.0159,2.964,0.04597018329784241,6.150986255963043,0.11214400077388315,0.15330134085385358
1.045,0.0314,-0.036,0.04583388836246857,6.141802382047991,0.11177140436109352,0.15303995059822725
1.046,0.0265,-2.036,0.04595966630995326,6.077126669217917,0.11211524994796214,0.15119915865510627
1.047,-0.004,-7.036,0.04629352749003064,6.165300695091702,0.11302794327530659,0.1537087566064648
1.048,-0.032,-8.036,0.04629465834229162,6.2145526560234,0.11303103474378032,0.1551105596774906
1.049,-0.0574,-2.036,0.045896158314156506,6.263984462557436,0.11194163490238157,0.1565174814912608
1.05,-0.0738,11.964,0.04538643401314132,6.292194410961039,0.11054817559628899,0.15732038946807192
1.051,-0.0589,10.964,0.04527573712942942,6.263984462557436,0.11024555788224912,0.1565174814912608
1.052,-0.0995,12.964,0.04536341845761722,6.247431213553038,0.11048525679888012,0.1560463450156594
1.053,-0.0702,8.964,0.04537142903274289,6.171059751107589,0.11050715571645928,0.15387267012902436
1.054,-0.0857,-1.036,0.04538101729734065,6.2373556838010416,0.11053336764417473,0.15575957656458903
1.055,-0.0327,-7.036,0.045446910775848184,6.28476564333087,0.11071350400544742,0.15710895282512588
1.056,0.0026,-9.036,0.045251256104686305,6.265242708322764,0.11017863285693044,0.15655329352279368
1.057,-0.0292,-7.036,0.04519581166711435,6.260619599997689,0.11002706157152806,0.15642171119946727
1.058,0.0355,2.964,0.04392427526774,6.256455881678582,0.10655099769696923,0.15630320397627862
1.059,0.1473,4.964,0.04383054349650613,6.300131626857271,0.10629475837574744,0.15754629750113813
1.06,0.0713,5.964,0.043822994911703,6.2506275507723785,0.1062741224246641,0.15613731876056913
1.061,0.0852,3.964,0.043591634065674234,6.235642725444628,0.1056416394857064,0.15571082256090804
1.062,0.0975,0.964,0.04298695451152739,6.29173010179995,0.10398859616355817,0.15730717435956443
1.063,0.1089,-1.036,0.042676748302308935,6.347632342862838,0.1031405696359191,0.15889825686098716
1.064,0.1192,-2.036000000000888,0.0426216688194769,6.1468902703262325,0.10298999604589365,0.15318476142968565
1.065,0.0744,-6.036,0.042643850949497984,5.969001512114071,0.10305063646551908,0.14812171413480557
1.066,0.0463,-1.0359999999988898,0.04267319289588461,5.916414966364305,0.10313085004013163,0.1466250025332332
1.067,0.0212,3.964,0.04255761017292954,5.97404561442493,0.10281487565828543,0.14826527873560869
1.068,0.0291,1.9639999999995559,0.042554283427642794,5.982958272417791,0.1028057811651063,0.14851894967802504
1.069,0.0362,-0.036,0.0425545423384277,6.041391988937448,0.1028064889627176,0.15018208271311984
1.07,0.0176,0.9639999999993338,0.04260308379939085,6.030863336613871,0.10293918922906888,0.14988241754483503
1.071,0.0473,-2.036,0.042624862129905405,6.052489266588248,0.10299872576139865,0.1504979320234141
1.072,0.0105,-4.036000000000444,0.043634927262599155,6.057813419604885,0.10575999230511364,0.15064946739191817
1.073,-0.0328,-6.036,0.04481345517849249,6.088881338328079,0.10898179414705196,0.1515337185578149
1.074,-0.0502,-2.035999999999778,0.04571322594438636,6.136475012767014,0.11144154335772871,0.1528883236888151
1.075,-0.0451,-1.036,0.04652436847175282,6.151381060350632,0.11365900503470805,0.1533125777263051
1.076,-0.0309,0.9639999999993338,0.04667731188274285,6.15185173679211,0.11407711423398526,0.1533259740595402
1.077,-0.0178,-2.036,0.04674564964096337,6.121103435327424,0.1142639326473123,0.15245081979955452
1.078,-0.0536,-3.035999999999778,0.04706963360773246,6.088449802965426,0.11514962413312146,0.1515214362530055
1.079,-0.0487,-2.036,0.047475479554776136,6.068231221813989,0.1162591058875162,0.1509459775582913
1.08,-0.0528,-3.035999999999112,0.04753740438564787,6.085164007915459,0.11642839295443566,0.1514279163706562
1.081,-0.0247,0.964,0.047428828442565095,6.085164007915458,0.1161315733639136,0.15142791637065617
1.082,-0.0427,-1.0360000000008882,0.047427794780953096,6.091258503905256,0.11612874759047151,0.15160137714324753
1.083,-0.0524,-5.036,0.047437421831395495,6.1432038104574564,0.11615506554902767,0.15307983787603405
1.084,-0.0078,-3.0360000000017764,0.04755970334822585,6.218986226829296,0.11648935276517769,0.1552367474079636
1.085,-0.0396,-11.036,0.04751326898185276,6.218986226829295,0.11636241277072142,0.15523674740796356
1.086,-0.0102,-2.035999999999556,0.04763522838080218,6.181679562625952,0.11669581939679959,0.1541749298587598
1.087,0.0378,-0.036,0.04760363943870468,6.205579828124825,0.11660946309546626,0.15485517618684233
1.088,0.0441,-5.0359999999995555,0.04766678979455086,6.187616142645294,0.11678210044248238,0.15434389604701057
1.089,0.0385,-3.036,0.0473888773010017,6.159867373103055,0.11602235689161737,0.15355411408451283
1.09,-0.0094,2.963999999999556,0.047630833146970135,6.159867373103055,0.11668380392201542,0.15355411408451283
1.091,-0.054,0.964,0.0478115840301727,6.162643524688727,0.11717793182563202,0.15363312855916136
1.092,-0.0247,3.964,0.04769172054084577,6.163689693138657,0.11685025489453282,0.15366290447301698
1.093,-0.0196,3.964,0.04778283134864878,6.2172529304050554,0.11709932915441382,0.15518741454477325
1.094,-0.0055,4.963999999999334,0.04788487949855187,6.219897862629745,0.11737830338395082,0.1552626942705971
1.095,-0.036,1.964,0.04792690957797515,6.225754961646169,0.11749320315465339,0.15542939828061433
1.096,-0.056,-11.036,0.04791118085246501,6.226790526698141,0.11745020473591718,0.1554588724019009
1.097,-0.0524,-8.036,0.04784453374363591,6.23057179097247,0.11726800813701634,0.1555664942665301
1.098,-0.0033,-8.036,0.047902030373304295,6.270672896883909,0.1174251896045681,0.15670784686152914
1.099,0.0035,-10.036,0.04782852822349168,6.240194295249299,0.11722425303067863,0.15584036876393179
1.1,0.0096,-8.036,0.0475994596002612,6.264857792384327,0.11659803645803611,0.15654233809412893
1.101,0.0389,-10.036,0.04726114800790966,6.184127275646751,0.11567317681178746,0.15424459635659335
1.102,0.0124,-10.036,0.04727752592190384,6.10459315891757,0.11571794995017642,0.1519809064044937
1.103,-0.0116,-10.036,0.04632994343117716,6.004055721794085,0.11312749539000796,0.14911942260878838
1.104,-0.0246,-10.036,0.04580179667362446,5.93510924441006,0.11168367367535029,0.1471570767061071
1.105,-0.0048,-9.036,0.045012204549389305,5.937392215625134,0.10952512543399401,0.14722205434354152
1.106,-0.0302,-10.036,0.044901489823947496,5.904592111723654,0.10922245894510754,0.14628850194259604
1.107,-0.0269,-9.036,0.04491984914509731,5.84479088858824,0.10927264875724481,0.14458644710748855
1.108,-0.024,-9.036,0.0448939460748207,5.819229344285898,0.1092018362135591,0.1438589176726123
1.109,-0.0051,-9.036,0.04485115053336881,5.83345703706042,0.10908484386028765,0.1442638644614842
1.11,0.0269,-9.036,0.042556573975239605,5.843125569773899,0.10281204295183781,0.14453904901441733
1.111,0.0226,-9.036,0.04197222954999011,5.867529911809328,0.10121459080818777,0.14523364230500874
1.112,0.0186,-10.036,0.04109991861896621,5.909271439834225,0.0988299099479254,0.14642168438633332
1.113,0.0077,-9.036,0.04008423028130008,5.908781440179424,0.09605327096212117,0.14640773807824914
1.114,-0.0221,-9.036,0.03860463275429161,5.937105439793852,0.0920084197765386,0.14721389216617065
1.115,-0.0182,-8.036,0.036728627841332726,5.985970972009037,0.08687988951217503,0.14860469675203378
1.116,-0.0148,-9.036,0.03639598925350148,5.985970972009036,0.08597053844757839,0.14860469675203375
1.117,0.0014,-8.036,0.03626291359677595,5.985970972009037,0.08560674274094,0.14860469675203378
1.118,-0.0016,-9.036,0.03621064150379167,5.985970972009037,0.08546384385565474,0.14860469675203378
1.119,-0.0207,-6.036,0.03622134972488691,5.985970972009039,0.08549311746553981,0.1486046967520338
1.12,0.0158,-6.036,0.03611721894535727,6.000285839974468,0.08520844984522574,0.14901212471014283
1.121,0.0954,2.964,0.036134801603030356,6.002061637358507,0.08525651645282441,0.1490626672302654
1.122,0.1065,5.964,0.03585529440041506,6.038233747882868,0.0844924133644912,0.15009219325642406
1.123,0.0962,7.964,0.036079371296644173,6.028769164257591,0.08510498379856493,0.14982281347659576
1.124,0.0865,4.964,0.03597253595229527,6.000285839974465,0.0848129225715328,0.14901212471014277
1.125,0.0435,0.964,0.03568715147152702,6.005656272713014,0.08403275246830466,0.14916497728622752
1.1260000000000001,-0.027100000000006307,-0.036,0.03544471820283027,6.011831370235325,0.08337000028305647,0.14934073212942378
1.127,-0.0555,4.964,0.035309846744673315,6.013603758263269,0.08300129530249975,0.14939117761288517
1.1280000000000001,-0.06399999999999141,4.964,0.03534652879432691,6.011349730494303,0.08310157489159242,0.14932702376014628
1.129,-0.0253,5.964,0.03522637068602727,6.059552393732388,0.08277309254558862,0.1506989618531793
1.1300000000000001,0.009900000000001356,0.964,0.0350869318400819,6.087802442566156,0.08239190146420128,0.1515030111633524
1.131,0.016,-3.036,0.034687446362058984,6.135404486241188,0.0812998076482086,0.1528578544984899
1.1320000000000001,0.03340000000000113,-9.036,0.03463058666498722,6.148322899176323,0.08114436739576537,0.15322553673047992
1.133,0.0385,-10.036,0.034366330888065455,6.148793809713216,0.08042195790732823,0.15323893972650907
1.1340000000000001,-0.005000000000006528,-7.036,0.03430897852437851,6.129611930534154,0.08026517082704422,0.1526929875119659
1.135,-0.0344,-1.036,0.034730359772823446,6.150890679909625,0.0814171222268285,0.15329862058033222
1.1360000000000001,-0.008000000000005307,5.964,0.03469950966013226,6.093031908652897,0.08133278570110679,0.15165185156445612
1.137,-0.0319,0.964,0.0348272391445325,6.16943064411424,0.0816819663039257,0.15382630269221362
1.1380000000000001,0.025100000000005153,-0.036,0.03462215629602561,6.188489102192615,0.08112132086637691,0.15436874211102847
1.139,0.0483,-2.036,0.03484844597525641,6.1700064061247195,0.08173994049814423,0.1538426899575976
1.1400000000000001,0.04159999999999582,-2.036,0.034696955111204575,6.1848316403073325,0.08132580220047898,0.15426464389430852
1.141,0.0228,0.964,0.03479386931313313,6.23029850998536,0.08159074149472278,0.15555871617770403
1.1420000000000001,-0.029999999999985788,7.964,0.03488517079074607,6.259480539797598,0.08184033699838306,0.15638929141238944
1.143,0.034,1.964,0.0352141347184756,6.259480539797598,0.0827396424573351,0.15638929141238944
1.1440000000000001,-0.0255999999999879,3.964,0.0351651832155845,6.253655027836834,0.08260582123846252,0.15622348642914785
1.145,0.0289,0.964,0.03516088051207003,6.238993335455845,0.08259405871852449,0.15580618719847136
1.1460000000000001,0.00799999999999294,-3.036,0.03501883095255303,6.262736979351433,0.08220573059635906,0.15648197578232767
1.147,-0.0238,-10.036,0.03456866442973538,6.19567200367442,0.08097508742462434,0.15457318094281494
1.1480000000000001,-0.01790000000000342,-5.036,0.03434999625209935,6.1462687480719325,0.0803773030802908,0.15316707174204058
1.149,-0.0333,-6.036,0.034573623222092335,6.0958824538250616,0.08098864352807678,0.15173298341993655
1.1500000000000001,-0.04730000000000287,-7.036,0.03457491592188681,6.016779248146491,0.08099217744740336,0.149481558003556
1.151,-0.0602,4.964,0.034561765197180454,5.969136179556002,0.08095622664088416,0.1481255470224733
1.1520000000000001,-0.032099999999991115,6.964,0.03434758770265453,5.887235424139464,0.08037071870589198,0.1457944980999451
1.153,0.0079,0.964,0.03433476387927568,5.8052898781470486,0.08033566156619633,0.14346217435372197
1.154,0.0132,-2.036,0.03431737514117924,5.725044595486253,0.08028812508642987,0.1411782432869928
