time_sec,bts_raw,diy_raw,bts_rms,diy_rms,bts_norm_rms,diy_norm_rms
0.0,-0.009300000000001654,0.463,0.0169991621874535,0.8504829532481186,0.024137858119300696,0.007194393241934671
0.0010000000000000009,-0.024200000000000898,1.463,0.017072066260095355,0.8628309341536939,0.024289455664776513,0.008476336607056371
0.0020000000000000018,-0.032300000000002986,1.463,0.01722487527248698,0.8645535403734209,0.02460720843723074,0.008655174234923069
0.0030000000000000027,-0.059199999999998795,2.463,0.01718487639533725,0.8782586438221307,0.02452403432393427,0.010078011423345289
0.0040000000000000036,-0.04829999999999526,2.463,0.017127886413675332,0.8902214402131544,0.02440552871754516,0.011319965681215122
0.0050000000000000044,-0.00559999999999808,1.463,0.017126838141975177,0.8913809498853283,0.02440334892962692,0.011440343720540293
0.006000000000000005,0.011699999999999435,0.463,0.017107790872484287,0.8930484875179792,0.0243637418240401,0.011613464234785846
0.007000000000000006,0.006599999999997335,0.463,0.01710591491424394,0.8947129172521374,0.024359840935456702,0.011786262093053675
0.008000000000000007,-0.017400000000000478,1.463,0.017665573450111934,0.907962898787116,0.025523601165409433,0.01316184940944493
0.009000000000000008,-0.02169999999999778,0.463,0.018594301599360225,0.909600037826287,0.027454808884517096,0.013331814000830014
0.010000000000000009,-0.0016999999999987897,0.463,0.019127559380453987,0.9226362501493506,0.028563671089195657,0.014685208213346455
0.01100000000000001,0.009200000000000366,1.463,0.019183306826671014,0.9242473983351724,0.028679592953459166,0.014852474484879936
0.0119999999999999,0.0125,0.463,0.019214274563172196,0.9258557428503724,0.028743987611705265,0.01501944968478161
0.0129999999999999,0.0096,0.463,0.019230990069223044,0.9269706801039083,0.02877874602226956,0.015135200302281507
0.013999999999999901,0.0122,0.463,0.01921355788283525,0.928084277948716,0.02874249733858286,0.015250811864971929
0.014999999999999902,0.01,1.463,0.019184108461819872,0.9296859847363891,0.0286812598825693,0.015417097948909818
0.015999999999999903,0.0079,1.463,0.019191076267804797,0.9307963340165004,0.02869574881640233,0.015532372251930783
0.016999999999999904,-0.0222,3.463,0.01919324136136397,0.9323933819253741,0.028700250936207195,0.015698174660131604
0.017999999999999905,-0.0266,0.46300000000000696,0.019115180705703033,0.9335005109058719,0.028537930734226644,0.015813114637909048
0.018999999999999906,-0.0066,2.463,0.019046822788767015,0.9462074958155829,0.028395786515861117,0.01713232910060315
0.019999999999999907,-0.0102,0.463,0.01911018244872924,0.9477785756057563,0.02852753730267438,0.01729543554921939
0.020999999999999908,-0.0004,0.463,0.019125343717797574,0.9488677534728238,0.02855906381544341,0.017408511877309123
0.02199999999999991,-0.0211,1.463,0.019130000526772942,0.9499556825367439,0.028568747236202133,0.017521458557084577
0.02299999999999991,-0.0077,0.463,0.019214061272106172,0.9510423670831589,0.02874354409187284,0.017634276033472805
0.02399999999999991,-0.0008,1.463,0.019222745966845183,0.9526054730195591,0.028761603143417306,0.017796554652096664
0.02499999999999991,0.0148,-0.537,0.019196945645439046,0.9541660182937233,0.028707953666016067,0.01795856742774677
0.025999999999999912,0.0285,-0.5369999999999966,0.019211194656198253,0.9557240154491138,0.028737583218636068,0.018120315662660993
0.026999999999999913,0.0118,0.463,0.01918579332123879,0.9568041486686109,0.028684763398122325,0.018232452993028635
0.027999999999999914,0.0053,-0.537,0.019145872513194735,0.957883063903289,0.02860175162259889,0.01834446387458093
0.028999999999999915,0.007,-0.537,0.019010665512225508,0.9589607652641685,0.028320600669911055,0.018456348734116005
0.029999999999999916,0.0088,-0.537,0.01870712296128045,0.9600372568391956,0.027689410888555557,0.018568107996036493
0.030999999999999917,0.0102,-0.537,0.019806140872848224,0.961112542693422,0.02997472104737346,0.018679742082368153
0.03199999999999992,0.0145,-1.537,0.020750097586960656,0.9626592974475937,0.031937595214881945,0.018840323153050377
0.03299999999999992,0.0209,-0.537,0.020935748815905,0.9642035709340506,0.03232364046040329,0.01900064662334364
0.03399999999999992,0.0172,-0.537,0.020954892306954118,0.9949546096845207,0.03236344765017637,0.02219315966642472
0.03499999999999992,0.0095,0.463,0.020966469748329657,0.9959921990335888,0.032387521911487444,0.022300880174897352
0.03599999999999992,0.0004,0.46299999999998614,0.021092911681740892,0.9974848689456116,0.03265044668449052,0.02245584626244373
0.03699999999999992,-0.0058,-1.537,0.021352219699627105,1.009386687573953,0.03318965468219544,0.023691469927572262
0.03799999999999992,-0.0069,-1.537,0.02265435877803729,1.0409883401671607,0.03589733727113482,0.026972292045660567
0.038999999999999924,-0.0217,0.463,0.023738221828587903,1.04198009077298,0.038151134242157096,0.02707525366494938
0.039999999999999925,-0.006,0.463,0.02400315414933089,1.042970898333484,0.038702037478237625,0.02717811737910747
0.040999999999999925,-0.0078,-0.537,0.024140616021758477,1.044396427612731,0.038987877235899776,0.027326113056724076
0.041999999999999926,0.0013,-0.537,0.024169084385436655,1.0544761093439383,0.0390470746702945,0.028372566012609776
0.04299999999999993,-0.0099,-1.536999999999993,0.02416383753896393,1.0554551863439852,0.03903616431895293,0.028474211882793025
0.04399999999999993,-0.0056,-0.537,0.02416068448664879,1.0654302499682047,0.03902960782664173,0.029509803590256813
0.04499999999999993,-0.0121,-0.537,0.024212646549846104,1.0668257687115505,0.039137658323042245,0.02965468363239613
0.04599999999999993,-0.0034,-0.537,0.024199070337459744,1.0682194643549008,0.039109427794896845,0.029799374403839188
0.04699999999999993,0.0089,-1.537,0.024015691268688043,1.0696113440247121,0.038728107304695995,0.029943876644440873
0.04799999999999993,0.0169,0.463,0.023264479010320454,1.0710014148011342,0.037166028117991017,0.030088191089248546
0.04899999999999993,0.0092,-0.537,0.02303721462561882,1.0723896837184286,0.03669345201015011,0.030232318468545565
0.04999999999999993,0.0157,-1.537,0.02302943923425142,1.0834689912599178,0.03667728377422449,0.0313825506321329
0.050999999999999934,0.0247,0.46300000000000696,0.023012695098819362,1.0834689912599178,0.036642465831404146,0.0313825506321329
0.051999999999999935,0.0057,1.4629999999999792,0.02288618765590465,1.0737761577653842,0.03637940483720556,0.030376259507894403
0.052999999999999936,-0.0132,-1.537,0.0226622448704856,1.0635673936862704,0.035913735700128374,0.029316405473668972
0.05399999999999994,0.0088,-0.537,0.02189543674851645,1.034096690276021,0.03431922629991274,0.026256814355806082
0.05499999999999994,0.0001,0.463,0.02144552031847269,1.003761091478961,0.03338366503437218,0.02310743148080293
0.05599999999999994,-0.0079,0.463,0.021496382747897898,0.9932907483363784,0.033489428939986576,0.022020420816887768
0.05699999999999994,-0.0446,1.463,0.02151421950687901,0.9932907483363784,0.033526518896456685,0.022020420816887768
0.05799999999999994,-0.0602,0.463,0.021504715433625143,0.9932907483363783,0.03350675602004804,0.022020420816887754
0.05899999999999994,-0.0461,1.4629999999999932,0.02143484808940451,0.9827088544906115,0.033361473081675114,0.020921829175895024
0.05999999999999994,-0.0157,0.463,0.021326284959934626,0.9827088544906115,0.033135725693903544,0.020921829175895024
0.06099999999999994,-0.0117,0.463,0.021328744632745048,0.9919158515829176,0.033140840365103945,0.021877681709635777
0.061999999999999944,-0.0081,-0.537,0.021315206889669695,0.9808554534429013,0.03311268983047486,0.020729412683337202
0.06299999999999994,0.0017,-0.537,0.02127816015773997,0.9803915557124545,0.033035654441025,0.020681251723080718
0.06399999999999995,0.0045,0.463,0.021304344831433637,0.9803915557124545,0.03309010314487924,0.020681251723080718
0.06499999999999995,0.0071,-0.537,0.02135927062167794,0.9909981940188788,0.033204316448507167,0.021782412285859604
0.06599999999999995,0.0093,0.463,0.021412318348627262,0.9896201121842166,0.03331462448627749,0.02163934250967116
0.06699999999999995,0.0071,-0.537,0.02141067460499468,0.9785337655731233,0.03331120646735124,0.020488379563566056
0.06799999999999995,0.0053,1.463,0.021359304117969078,0.946899420387574,0.03320438610107025,0.017204163364116478
0.06899999999999995,0.0179,0.463,0.02119399010651474,0.946899420387574,0.032860630293457795,0.017204163364116478
0.06999999999999995,0.0132,-0.537,0.021185116100449715,0.9136732874816569,0.03284217758582095,0.013754690859007537
0.07099999999999995,0.0089,-0.537,0.021160941587004156,0.9250452390526266,0.03279190883170865,0.014935304756645458
0.07199999999999995,0.0179,-0.5369999999999862,0.021179528529517017,0.9362790782295222,0.03283055872821981,0.016101580094110803
0.07299999999999995,0.0118,0.463,0.02110046504921901,0.9245533387844849,0.03266615324145319,0.014884236627380604
0.07399999999999995,0.0128,0.463,0.021095445977513106,0.9240611766658882,0.03265571652751376,0.014833141313310722
0.07499999999999996,0.0103,0.463,0.021230020178205654,0.9126769637636052,0.03293555162821631,0.013651254468099849
0.07599999999999996,0.0041,-0.537,0.021479574574315763,0.91317526150304,0.03345447783551947,0.013702986770393508
0.07699999999999996,0.0033,-0.537,0.02134554021572073,0.9131752615030401,0.03317576528852293,0.013702986770393518
0.07799999999999996,-0.0079,-0.537,0.02138899817919831,0.9131752615030402,0.03326613226468547,0.01370298677039353
0.07899999999999996,0.0166,-0.537,0.02138274846861264,0.9136732874816569,0.03325313654647126,0.013754690859007537
0.07999999999999996,0.071,-0.537,0.021371156028543968,0.9136732874816568,0.03322903109670964,0.013754690859007525
0.08099999999999996,0.0633,0.463,0.02135303589773502,0.9141710421436082,0.0331913518936858,0.01380636678005296
0.08199999999999996,0.0281,0.463,0.021338739264532246,0.9141710421436082,0.03316162331442308,0.01380636678005296
0.08299999999999996,0.0092,-2.537,0.021304382320948775,0.9377355525090757,0.03309018110099706,0.016252788421482044
0.08399999999999996,-0.0082,-0.537,0.021210584025043566,0.9492984791477793,0.03289513587356651,0.01745322897927253
0.08499999999999996,-0.0239,0.463,0.021140349312264474,0.9492984791477792,0.0327490890248971,0.017453228979272515
0.08599999999999997,-0.0381,1.4630000000000138,0.02116418901349754,0.9588263484278587,0.03279866156674347,0.01844239383956396
0.08699999999999997,-0.0777,2.4629999999999583,0.021179163257482866,0.9588263484278589,0.03282979917745945,0.018442393839563972
0.08799999999999997,-0.0727,-0.537,0.021176476376111968,0.9602486243409463,0.032824212046232724,0.018590051759032538
0.08899999999999997,-0.0394,-0.537,0.021366268433514902,0.9507350086230468,0.03321886777684511,0.017602366675848448
0.08999999999999997,-0.0264,0.463,0.021508495165992177,0.9602486243409463,0.03351461563788054,0.018590051759032538
0.09099999999999997,-0.0144,-1.537,0.021503313851056877,0.969668904562735,0.03350384155355211,0.019568046932515244
0.09199999999999997,0.0109,-0.537,0.02150576251552349,0.9701379296328367,0.03350893333387907,0.019616740203203826
0.09299999999999997,0.0011,-1.537,0.02150937788479648,0.9701379296328364,0.03351645117325227,0.01961674020320379
0.09399999999999997,0.0159,0.463,0.021486969497040216,0.97154364627713,0.03346985492068613,0.019762678971588152
0.09499999999999997,0.0024,0.463,0.02148373930598341,1.0010381713744345,0.03346313802521124,0.022824743210676266
0.09599999999999997,0.0245,0.463,0.021620296461301244,1.0014925055061892,0.03374709650397883,0.022871911296714384
0.09699999999999998,0.0096,0.463,0.021753633230488758,1.012327454264602,0.03402435847574551,0.0239967746066349
0.09799999999999998,0.0015,0.463,0.02176280407737266,1.0033077846456862,0.03404342843750696,0.023060370046895255
0.09899999999999998,0.0037,1.463,0.021770833300584748,1.0136746661365408,0.034060124494214375,0.024136639523324677
0.09999999999999998,-0.0029,0.463,0.02184352143205531,1.0136746661365408,0.034211273009199177,0.024136639523324677
0.10099999999999998,-0.0012,0.463,0.02178736695258573,1.0136746661365406,0.03409450475542987,0.024136639523324652
0.10199999999999998,0.0042,-0.5369999999999862,0.021648354829524694,1.0136746661365406,0.03380544138923136,0.024136639523324652
0.10299999999999998,0.0088,0.463,0.021682234064403172,1.0028542729101984,0.033875890249823924,0.02301328734043829
0.10399999999999998,0.0193,0.463,0.02197395266808405,0.9937486245359175,0.03448249318276163,0.02206795663351518
0.10499999999999998,0.0157,0.463,0.022782907361107472,0.9942062898631353,0.036164642635041815,0.022115470557788276
0.10599999999999998,0.0146,0.463,0.023507684249509032,1.0248247571542197,0.03767175181725497,0.025294220289760968
0.10699999999999998,-0.002,0.463,0.023732616955929122,1.0336566871081618,0.038139479407152885,0.026211134082570902
0.10799999999999998,0.0002,0.463,0.02343063423329072,1.0234922221331375,0.03751153315025471,0.025155879095185803
0.10899999999999999,-0.0019,0.463,0.022740742016672987,1.0230476580935197,0.03607696354540012,0.025109725321113927
0.10999999999999999,-0.0037,-1.537,0.02227091090557046,1.0230476580935197,0.035099991468939926,0.025109725321113927
0.11099999999999999,-0.0054,-0.537,0.022221846847256182,1.0230476580935197,0.03499796711636272,0.025109725321113927
0.11199999999999999,-0.0007,-0.537,0.022193294618716785,1.0332164965616006,0.034938595292435946,0.026165434356043252
0.11299999999999999,-0.0144,0.463,0.02218371926522427,1.0332164965616006,0.03491868419510042,0.026165434356043252
0.11399999999999999,-0.0197,1.463,0.022192461434222842,1.033656687108162,0.03493686275926416,0.026211134082570923
0.11499999999999999,-0.0182,-1.537,0.02219332244226098,1.0332164965616006,0.03493865314902548,0.026165434356043252
0.11599999999999999,-0.0076,-0.537,0.022217341965266,1.042413790550871,0.0349885996142792,0.02712027953249597
0.11699999999999999,-0.01649999999999818,2.463,0.022227195520673034,1.0419772995100434,0.03500908920779278,0.027074963881459337
0.118,-0.00010000000000024425,0.463,0.02224029691746436,1.042413790550871,0.035036332399069996,0.02712027953249597
0.119,-0.002299999999999789,0.4630000000000139,0.022253560886832054,1.0323355523734725,0.035063913645583984,0.026073976443559483
0.12,-0.0003999999999989786,1.463,0.02219180069157939,1.0318947982511832,0.03493548880360834,0.026028218207695703
0.121,0.008800000000000167,1.463,0.022218544708701687,1.0318947982511832,0.03499110061245502,0.026028218207695703
0.122,0.010299999999999523,-0.537,0.022215456239726036,1.0318947982511832,0.034984678415463544,0.026028218207695703
0.123,0.006000000000001976,-0.537,0.022306330212853418,1.0318947982511832,0.03517364277334548,0.026028218207695703
0.124,0.023800000000001334,0.463,0.02235623100760495,1.0406667279129593,0.03527740704504519,0.0269389028868525
0.125,0.03579999999999774,0.463,0.02238283337811287,1.0493653331953934,0.03533272431233491,0.02784197517153622
0.126,0.015500000000000277,-0.537,0.02236597160780586,1.0489317348978846,0.0352976617582376,0.02779695983948558
0.127,0.017999999999998156,0.463,0.0224155660771228,1.0493653331953934,0.03540078905339651,0.02784197517153622
0.128,0.0013999999999997558,0.463,0.022429221145330323,1.0497987524038461,0.035429183555219956,0.02788697191090933
0.129,-0.000799999999999789,-0.537,0.02263475174816437,1.050231992744967,0.03585656619353799,0.027931950080623883
0.13,0.0011000000000006107,0.463,0.022611658324411636,1.0506650544400231,0.035808545469445584,0.02797690970365139
0.131,0.006599999999998357,-0.537,0.021933695962939023,1.0510979377098262,0.034398782939043006,0.0280218508029161
0.132,-0.008199999999999812,2.463,0.021178419212733904,1.0597109221788101,0.03282825200247211,0.028916034101249908
0.133,-0.0064999999999994,1.463,0.021024282899164016,1.0682544652433141,0.03250773922507659,0.029803008128009803
0.134,-0.0010999999999983458,-0.537,0.021038187704980275,1.0406667279129587,0.03253665303408172,0.02693890288685243
0.135,0.013799999999999344,-1.537,0.02108655138206646,1.068254465243314,0.03263722100608609,0.02980300812800978
0.136,0.007899999999998603,0.463,0.02126578540549547,1.0767302198970239,0.03300992224255985,0.030682944493785738
0.137,-0.0047000000000027315,1.463,0.021624357642937554,1.0669761704944962,0.033755541370575244,0.029670298053022796
0.138,-0.0293000000000004,0.463,0.020827933774460277,1.0376022900564152,0.032099448655252896,0.026620758907843694
0.1389999999999999,-0.0329,-1.537,0.019764215066096814,1.0376022900564152,0.02988754005507375,0.026620758907843694
0.1399999999999999,0.0035,-1.537,0.019448182365940942,1.0376022900564155,0.02923037811750843,0.026620758907843718
0.1409999999999999,0.0083,0.46299999999997227,0.019299590341789435,1.047629863246896,0.02892139419764826,0.027661802056364034
0.1419999999999999,0.0041,-0.5369999999999445,0.019290378198473873,1.0389167273845847,0.028902238363624124,0.026757221235134333
0.1429999999999999,0.0003,1.462999999999889,0.019291792927654258,1.0493653331953943,0.02890518016733258,0.027841975171536314
0.1439999999999999,0.004,-2.536999999999917,0.019291925321798215,1.0402295037868678,0.02890545546919888,0.026893511128329366
0.1449999999999999,0.027,0.463,0.01929359196417783,1.0397920958116005,0.028908921104036277,0.02684810028294232
0.1459999999999999,0.0242,1.463,0.01934549901790887,1.0393545037550411,0.029016857213136297,0.026802670326593506
0.1469999999999999,0.0109,0.463,0.01964038942075859,1.0389167273845847,0.029630055620802835,0.026757221235134333
0.1479999999999999,0.0179,1.463,0.02034030893484297,1.0389167273845845,0.031085476100356398,0.02675722123513431
0.1489999999999999,0.02,-0.537,0.02053669579517421,1.038478766467135,0.03149384513806672,0.0267117529843652
0.1499999999999999,0.0019,-1.537,0.020540525659765548,1.0371637740944892,0.03150180900140812,0.02657523303343639
0.1509999999999999,0.0031,0.463,0.020560650955765418,1.0458915136003062,0.03154365776739603,0.027481329976535875
0.1519999999999999,-0.0135,-0.537,0.020560984827554994,1.0458915136003062,0.03154435202413601,0.027481329976535875
0.1529999999999999,-0.0381,0.463,0.020563053864674722,1.046326371768165,0.03154865440310446,0.02752647610587625
0.15399999999999991,-0.0609,0.463,0.020553006224525626,1.046326371768165,0.031527761227603694,0.02752647610587625
0.15499999999999992,-0.058,2.463,0.020716752302259434,1.045891513600306,0.031868256656270404,0.02748132997653585
0.15599999999999992,-0.0336,-1.537,0.020858092679157402,1.0558403649498962,0.032162161419583404,0.028514200376621317
0.15699999999999992,-0.0237,0.463,0.020806535181454665,1.055409426820292,0.0320549521812051,0.02846946121802944
0.15799999999999992,-0.0208,-0.537,0.020810902882446154,1.055409426820292,0.032064034427582946,0.02846946121802944
0.15899999999999992,-0.0019,1.463,0.02086910061661146,1.0554094268202916,0.03218505144805938,0.028469461218029395
0.15999999999999992,0.005,0.463,0.020904386926188727,1.0639875103347554,0.0322584261955456,0.029360021167135042
0.16099999999999992,0.0028,1.463,0.021007250240472432,1.0652693914017848,0.03247232132375774,0.029493103566704634
0.16199999999999992,0.0046,-0.537,0.02108163289238479,1.0741922817732104,0.032626993443534785,0.030419460693171568
0.16299999999999992,0.0064,0.463,0.021182699896929513,1.0830416613338305,0.032837153305149656,0.03133818607021344
0.16399999999999992,0.0049,-0.537,0.02118171857376107,1.0926523043590475,0.032835112730758356,0.032335944339759136
0.16499999999999992,0.0125,-1.537,0.02109068234320601,1.0830416613338307,0.03264581097296337,0.03133818607021347
0.16599999999999993,0.0114,-0.537,0.021185723122082032,1.074615687703064,0.03284343983340432,0.03046341787343283
0.16699999999999993,0.0104,0.463,0.02168609087205207,1.075038926873777,0.03388391013886109,0.03050735774108441
0.16799999999999993,0.0093,0.463,0.021921813975872624,1.0458915136003049,0.03437407540201019,0.027481329976535736
0.16899999999999993,0.0069,-0.537,0.022010358119427628,1.055840364949896,0.03455819508617569,0.028514200376621293
0.16999999999999993,0.0171,-0.537,0.022073435656599215,1.0554094268202916,0.03468935922369717,0.028469461218029395
0.17099999999999993,0.0081,-0.537,0.022086072166902164,1.045021254400288,0.03471563572480182,0.027390981358739113
0.17199999999999993,0.0269,-0.5370000000000278,0.022094524484946934,1.045021254400288,0.034733211569644706,0.027390981358739113
0.17299999999999993,0.019,-1.537,0.022112480604370623,1.045456474552979,0.03477054972555644,0.02743616506864085
0.17399999999999993,0.0168,-1.5369999999999722,0.02213236903421207,1.054547022255694,0.03481190594940065,0.0283799280532075
0.17499999999999993,0.0056,-0.5369999999999723,0.022021500716790352,1.0541155553884776,0.03458136512797449,0.02833513400210492
0.17599999999999993,0.0154,0.463,0.021755502057741776,1.0830416613338305,0.03402824453607396,0.03133818607021344
0.17699999999999994,-0.0086,0.463,0.02169998329914857,1.0930685597241965,0.03391279820741766,0.03237915916229811
0.17799999999999994,-0.0315,0.463,0.021626470991561578,1.1025918076486518,0.0337599358913822,0.033367844242435565
0.17899999999999994,0.0131,0.463,0.021642754783793995,1.102179148894375,0.03379379659139549,0.0333250028130432
0.18000000000000005,0.04499999999999611,0.463,0.02165770066278423,1.1025918076486518,0.033824875219622866,0.033367844242435565
0.18099999999999994,0.0275,-1.537,0.021665353495153274,1.1025918076486518,0.03384078860499414,0.033367844242435565
0.18200000000000005,0.011899999999994672,-1.537,0.02165506336967074,1.1030043120180058,0.03381939120277419,0.03341066964388547
0.18299999999999994,-0.0121,-0.537,0.02164636886781088,1.074615687703064,0.03380131175819275,0.03046341787343283
0.18400000000000005,-0.01650000000000444,-2.537,0.021638493730298816,1.0648422691747057,0.03378493610901635,0.029448760567692318
0.18499999999999994,-0.0365,-1.537,0.02166312031176571,1.0648422691747057,0.03383614489843724,0.029448760567692318
0.18600000000000005,-0.05469999999999929,0.463,0.021685970436565883,1.0661231225005456,0.03388365970396174,0.029581736269170215
0.18699999999999994,-0.0515,0.463,0.021748229561979263,1.0661231225005456,0.03401312202690364,0.029581736269170215
0.18800000000000006,-0.030999999999997023,-0.537,0.021751529297339305,1.0558403649498953,0.03401998353358186,0.028514200376621224
0.18899999999999995,-0.0176,-0.537,0.021567296821343385,1.064414975554526,0.03363688845883732,0.029404399774981597
0.19000000000000006,-0.01090000000000049,1.463,0.02131807394684154,1.0554094268202907,0.03311865162128079,0.0284694612180293
0.19099999999999995,-0.0131,0.463,0.021324021294341557,1.0567017139809665,0.03313101860230699,0.028603623958005052
0.19200000000000006,-0.011299999999997201,1.463,0.021344328782234676,1.065269391401784,0.03317324622015901,0.029493103566704544
0.19299999999999995,0.0013,-0.537,0.021363298877995745,1.0652693914017841,0.033212692849827384,0.029493103566704565
0.19400000000000006,0.0160999999999996,-0.537,0.02136526509753218,1.0549783126608556,0.033216781428761166,0.028424703784362692
0.19499999999999995,0.0143,-0.537,0.0213614970095138,1.0376022900564168,0.03320894602431772,0.026620758907843857
0.19600000000000006,0.04180000000000264,-0.537,0.021198624373843122,1.0376022900564168,0.032870266840863215,0.026620758907843857
0.19699999999999995,0.0537,0.463,0.02106379691010883,1.027476858276588,0.03258990510215407,0.02556955627087808
0.19800000000000006,0.028299999999994913,-0.537,0.02103706896039169,1.027476858276588,0.03253432670404969,0.02556955627087808
0.19899999999999995,0.0054,-1.537,0.020960710705024112,1.0168033527782756,0.032375546492313015,0.02446145368627061
0.20000000000000007,-0.009599999999998245,-1.537,0.020865221897727233,1.0172506457395518,0.03217698599655397,0.024507890771682268
0.20099999999999996,-0.0017,0.463,0.02088534630788497,1.007823741680026,0.03221883292051182,0.023529207924246738
0.20200000000000007,0.005099999999997491,0.463,0.020951824746935986,1.007823741680026,0.032357068931505424,0.023529207924246738
0.20299999999999996,-0.0062,0.463,0.020996542723436568,1.0082750182020381,0.0324500559928653,0.02357605857518737
0.20399999999999985,-0.0325,-0.5369999999999445,0.020654030045173823,1.0082750182020381,0.0317378312921403,0.02357605857518737
0.20499999999999996,-0.029,1.4629999999999446,0.01974560064088785,1.007823741680026,0.02984883301073639,0.023529207924246738
0.20599999999999985,0.0007,-0.5369999999999723,0.01888039556818136,0.9766724416205991,0.0280497158887085,0.020295140530437718
0.20699999999999996,0.0046,0.463,0.018639438268536188,0.9780687666674162,0.027548666580117235,0.020440104281435435
0.20799999999999985,0.0155,0.4629999999999445,0.01858776734251343,0.978068766667416,0.027441221477619418,0.020440104281435424
0.20899999999999996,0.0122,-1.537,0.01864738310270502,0.987779679024593,0.027565187157302606,0.021448272318036487
0.20999999999999985,0.021,1.463,0.01865825014246215,0.987779679024593,0.027587784201528954,0.021448272318036487
0.21099999999999997,0.0184,-1.537,0.01865567936645138,0.987779679024593,0.027582438501088935,0.021448272318036487
0.21199999999999986,0.0206,-1.537,0.0186543514642738,0.9771381050074421,0.027579677246422928,0.020343484797707683
0.21299999999999997,0.0141,1.463,0.01864854833833827,0.9882401086427935,0.0275676101613338,0.021496073225623837
0.21399999999999986,0.0004,0.463,0.0186841454629327,0.9987634005943115,0.027641631221049106,0.02258858093191579
0.21499999999999997,-0.0271,0.463,0.01869347525942968,0.999218769040647,0.02766103170441688,0.02263585639848232
0.21599999999999986,-0.047,0.463,0.01865356730289785,0.999218769040647,0.027578046652471953,0.02263585639848232
0.21699999999999997,-0.0361,0.463,0.01862409977260368,0.9992187690406469,0.027516771539821176,0.022635856398482306
0.21799999999999986,-0.0198,1.463,0.018594918773619986,0.9992187690406469,0.027456092243587724,0.022635856398482306
0.21899999999999997,-0.0169,-0.537,0.018598829237577368,0.9992187690406469,0.027464223706153923,0.022635856398482306
0.21999999999999986,0.0074,-0.537,0.018589179880151817,1.010078108106443,0.02744415872421089,0.023763251862684763
0.22099999999999997,0.0107,1.463,0.018581958335526637,1.01052837788569,0.0274291421634064,0.023809997995549274
0.22199999999999986,0.0136,0.463,0.018683226655123446,1.010978447123714,0.027639720641796137,0.023856723308614006
0.22299999999999998,0.0111,-1.537,0.018662158136429526,1.0203762063632627,0.02759591052797026,0.024832380397515962
0.22399999999999987,0.0089,-0.537,0.018692855906093625,1.010978447123714,0.027659743814150595,0.023856723308614006
0.22499999999999998,0.011,2.463,0.018955290507157163,1.0109784471237142,0.028205453263944982,0.023856723308614027
0.22599999999999987,0.0011,1.463,0.0199723349282418,1.0114283160882285,0.030320306828213267,0.023903427829672433
0.22699999999999998,0.0028,1.463,0.020559418440243987,1.0114283160882285,0.031541094860811546,0.023903427829672433
0.22799999999999987,-0.0086,-0.537,0.02062557527942538,1.020376206363263,0.03167866213343301,0.024832380397516007
0.22899999999999998,0.008,0.463,0.020419645217197226,1.0203762063632629,0.031250448854775285,0.024832380397515983
0.22999999999999987,0.0058,0.463,0.020625622379425473,1.0292463098984124,0.03167876007370092,0.025753257297292633
0.23099999999999998,-0.0,0.463,0.020438093610321957,1.0393545037550431,0.031288810650136445,0.026802670326593715
0.23199999999999987,-0.0054,0.463,0.02127866500562203,1.0601401117878064,0.03303670422736732,0.028960591731832536
0.23299999999999998,0.0026,0.463,0.02425953222256434,1.080525950066462,0.0392351529162042,0.031077009818611945
0.23399999999999987,0.0103,-0.537,0.026618984744137167,1.0905759784810098,0.04414142492509891,0.03212038422482739
0.235,0.017,1.4629999999999723,0.026700334862357348,1.0635673936862662,0.04431058527238062,0.02931640547366853
0.23599999999999988,0.0182,0.46299999999997227,0.02646130466302585,1.0545546069071008,0.04381354319777304,0.028380715476967057
0.237,0.0059,-0.5370000000000278,0.025950983136159247,1.0541231431443845,0.04275237489711446,0.02833592174816765
0.23799999999999988,0.0074,-1.5369999999999722,0.02544921870297495,1.0541231431443843,0.041709000312933384,0.028335921748167625
0.239,-0.003,-0.5369999999999445,0.025313682776143657,1.054123143144384,0.04142716538812265,0.028335921748167604
0.23999999999999988,0.0061,1.463,0.025267863335368568,1.0545546069071,0.04133188792960944,0.028380715476966963
0.241,-0.0126,-1.537,0.02529207293812962,1.0545546069071,0.04138222964883753,0.028380715476966963
0.24199999999999988,-0.01,-0.537,0.025350516408979323,1.0545546069071001,0.04150375765692875,0.028380715476966988
0.243,-0.003,-0.537,0.025373521411514933,1.0445935098939663,0.04155159451695159,0.027346573755905948
0.24399999999999988,-0.0008,1.463,0.025373147834121184,1.0445935098939663,0.041550817695933426,0.027346573755905948
0.245,-0.0064,0.463,0.02536007176981834,1.044593509893966,0.041523627181316594,0.027346573755905924
0.24599999999999989,-0.0045,0.463,0.02531943784391401,1.045028908188184,0.041439132540524656,0.027391775960114554
0.247,-0.0029,0.463,0.025003391392811908,1.0554170052741114,0.040781942009087684,0.02847024799836753
0.2479999999999999,0.0015,-0.537,0.02447308596869227,1.063995027689974,0.039679218968579615,0.02936080160433521
0.249,-0.002,0.463,0.024343160334421625,1.0741997277144384,0.039409050148977755,0.030420233716310117
0.2499999999999999,0.0093,-0.537,0.02435785181434048,1.0657038477431517,0.0394395997769258,0.029538207979200037
0.251,0.0169,0.463,0.02437170300895817,1.056709283166828,0.039468402106203955,0.028604409776161795
0.2519999999999999,0.0191,0.463,0.02441531754068027,1.0652768997111344,0.03955909465212836,0.02949388306478028
0.253,0.0043,0.463,0.024423520517883473,1.0648497804957155,0.03957615201483166,0.029449540378432674
0.2539999999999999,-0.0055,-0.537,0.02443581419055525,1.0746231307105605,0.039601715615524856,0.03046419059199708
0.255,-0.0037,0.463,0.024221400401110052,1.1013606298508138,0.039155861179439505,0.03324002575767334
0.2559999999999999,-0.0149,1.463,0.024072888913511052,1.1013606298508147,0.03884704472818895,0.03324002575767343
0.257,-0.0192,0.463,0.024072800649117532,1.1112222428741108,0.03884686119022014,0.034263839244371
0.2579999999999999,-0.0256,-1.537,0.024068325903477638,1.1651370422260836,0.03883755635400106,0.039861168867704196
0.259,-0.0067,1.463,0.024032281933336817,1.174075868589309,0.03876260611865008,0.040789180437849855
0.2599999999999999,-0.0041,0.463,0.024132031216046613,1.1752376777966735,0.03897002589471752,0.040909797210446734
0.261,-0.0019,0.463,0.02407614928317046,1.1659176485670557,0.03885382437738823,0.03994220990001817
0.2619999999999999,0.0004,1.463,0.024030899734923717,1.1577019397394672,0.03875973195978359,0.039089270986212156
0.263,-0.0133,1.463,0.024002219384283957,1.1494275093771325,0.03870009371732583,0.038230235716861585
0.2639999999999999,-0.0078,0.463,0.023964395826828213,1.1494275093771325,0.03862144298817353,0.038230235716861585
0.265,-0.0031,-1.537,0.02396613082983943,1.1740758685893087,0.038625050772874196,0.040789180437849834
0.2659999999999999,0.0046,-0.537,0.02382455226022706,1.1829471514992258,0.03833065070896213,0.04171017977802138
0.267,0.001,0.463,0.02335808617632032,1.1906067054940297,0.03736067590775496,0.04250537977861393
0.2679999999999999,-0.0102,0.463,0.02312981219586374,1.1906067054940297,0.03688600043518961,0.04250537977861393
0.269,0.0035,1.463,0.02308321079733553,1.1814079274723706,0.03678909696496343,0.041550380532804534
0.2699999999999999,0.0163,0.463,0.02307049270803751,1.1894599081340107,0.036762650827582406,0.04238632150681569
0.271,0.021,0.463,0.0230959935736599,1.1985968918410204,0.03681567761327179,0.043334905387046464
0.2719999999999999,0.0254,-1.537,0.023086404531315257,1.1985968918410204,0.03679573805118378,0.043334905387046464
0.273,0.0218,-0.537,0.023057028338170832,1.1985968918410204,0.03673465286602553,0.043334905387046464
0.2739999999999999,0.0356,-1.537,0.023055593538221716,1.1909887258927936,0.0367316693269357,0.042545040393517815
0.275,0.0631,0.463,0.023144604953437436,1.1909887258927936,0.03691676066102784,0.042545040393517815
0.2759999999999999,0.0511,0.463,0.023119203599677784,1.1643559125518974,0.03686394080142078,0.03978007350395363
0.277,0.0185,-1.537,0.023124047609854082,1.1549480745997962,0.03687401349045413,0.03880337006271403
0.2779999999999999,-0.012,0.463,0.023133085641308483,1.1454629714438573,0.036892807274323404,0.03781864509826575
0.279,-0.032,-1.537,0.023133085641308483,1.1454629714438573,0.036892807274323404,0.03781864509826575
0.2799999999999999,-0.0356,1.463,0.023163305600736254,1.1454629714438573,0.03695564699654488,0.03781864509826575
0.281,-0.0654,2.463,0.023189686642666244,1.1450657627021248,0.03701050403070987,0.03777740765913086
0.2819999999999999,-0.1172,2.4629999999999446,0.023310711783246785,1.1529770010021074,0.037262165064010526,0.038598737034849305
0.28300000000000003,-0.1103,1.462999999999889,0.02332617713579348,1.1529770010021074,0.037294323891371446,0.038598737034849305
0.2839999999999999,-0.0266,-0.537,0.02336588543663435,1.1608343244266288,0.037376893777035625,0.0394144690730429
0.28500000000000003,0.0074,-0.537,0.02336678220244006,1.1608343244266288,0.03737875852189947,0.0394144690730429
0.2859999999999999,0.0175,-0.5369999999999445,0.023305135420996177,1.1513977126493884,0.03725056951386851,0.03843477838923235
0.28700000000000003,0.008,0.4629999999999445,0.02323806307382963,1.1510025519771236,0.03711109852368527,0.03839375357668683
0.2879999999999999,0.0163,-0.5369999999999445,0.023290878501552786,1.1510025519771236,0.037220923515842004,0.03839375357668683
0.28900000000000003,0.0086,0.463,0.02330199114067604,1.1510025519771239,0.03724403126214199,0.03839375357668686
0.2899999999999999,0.0154,1.463,0.02331630910123529,1.151002551977124,0.037273804189748724,0.03839375357668688
0.29100000000000004,0.0215,0.463,0.02333166084227261,1.1414846641918002,0.037305726772064125,0.037405624975770456
0.2919999999999999,0.0155,0.463,0.023298112349084476,1.133493217737915,0.03723596565944813,0.03657596854549059
0.29300000000000004,-0.0001,-0.537,0.02327785031387825,1.143077648600758,0.03719383255642249,0.037571005519312084
0.29399999999999993,0.0139,-0.537,0.023302101423953468,1.1682494916146346,0.0372442605864247,0.04018429731060036
0.29500000000000004,0.0008,0.463,0.02333350295275785,1.158873262520569,0.03730955727724632,0.03921087543953387
0.29599999999999993,0.0127,1.463,0.02350111986930296,1.1666908770159647,0.037658101771506504,0.040022484973925576
0.29700000000000004,0.0163,-1.537,0.023647300447084477,1.1663008979143796,0.03796207130276684,0.03998199810197168
0.29799999999999993,0.013,1.463,0.023654067809017246,1.1659107883708324,0.037976143430992024,0.039941497687786945
0.29900000000000004,0.01,0.463,0.023654136594743,1.1740690560623355,0.03797628646480084,0.04078847317454745
0.29999999999999993,0.0125,-0.537,0.02365653223815489,1.18178615338407,0.037981267992552546,0.041589647211440324
0.30100000000000005,0.0146,-1.537,0.023638608328698733,1.1817861533840697,0.03794399681440819,0.0415896472114403
0.30199999999999994,0.0081,-0.537,0.023607692822177506,1.1817861533840692,0.037879710763767595,0.041589647211440255
0.30300000000000005,0.0098,1.463,0.02353472795496871,1.1894531837182705,0.037727986801388134,0.042385623391050176
0.30399999999999994,-0.0029,-2.537,0.023532669126878097,1.1982106218415534,0.0377237056511892,0.04329480358686157
0.30500000000000005,-0.010999999999997668,1.463,0.023526622802737075,1.1985902186862343,0.037711132857026756,0.04333421259309352
0.30599999999999994,-0.0005,1.463,0.02360187115366021,1.2061504368268203,0.03786760512102619,0.044119099738474596
0.30700000000000005,0.0004999999999980238,3.463,0.02375939745121748,1.2050184322857271,0.03819516706910678,0.044001577228370385
0.30799999999999994,-0.0084,1.463,0.023914968762935532,1.2050184322857271,0.03851866379772945,0.044001577228370385
0.30900000000000005,-0.025199999999997356,1.463,0.023894985004320413,1.197071109076125,0.03847710934616518,0.04317650158750775
0.30999999999999994,-0.0133,-0.537,0.0239541119280744,1.1883052731299106,0.03860005853388304,0.04226644954605043
0.31100000000000005,-0.01120000000000131,-0.537,0.02395284065749314,1.197071109076125,0.038597415039592936,0.04317650158750775
0.31199999999999994,-0.0171,-0.537,0.024026779215585138,1.205773220063017,0.03875116370570425,0.044079937827610924
0.31300000000000006,-0.004499999999999667,1.463,0.024575050725781502,1.1966910303617853,0.03989124562689405,0.04313704255450489
0.31399999999999995,-0.003,-2.537,0.024541838212200042,1.1875393829577048,0.03982218315403652,0.04218693631775997
0.31500000000000006,-0.00739999999999858,1.463,0.02487289472498062,1.1875393829577048,0.040510585775901914,0.04218693631775997
0.31599999999999995,-0.001,-1.537,0.024898925742243287,1.1886880331629255,0.04056471496485196,0.04230618694834392
0.31700000000000006,0.01529999999999951,0.463,0.024897467785659273,1.1886880331629255,0.04056168327359607,0.04230618694834392
0.31799999999999995,0.0131,-0.537,0.02496166295732017,1.1886880331629255,0.0406951714327967,0.04230618694834392
0.31900000000000006,0.014899999999999601,-1.537,0.02513209419699488,1.1886880331629255,0.04104956806210453,0.04230618694834392
0.31999999999999995,0.0131,1.463,0.025493489142536702,1.1886880331629255,0.041801056760968416,0.04230618694834392
0.32100000000000006,0.008399999999999712,1.463,0.026001873857657776,1.1886880331629255,0.04285819763358311,0.04230618694834392
0.32199999999999995,0.0071,0.463,0.026536223718240763,1.1974510671510283,0.04396933072058733,0.043215948095958925
0.32300000000000006,0.010800000000002509,0.463,0.026526310688948347,1.1974510671510283,0.04394871745641013,0.043215948095958925
0.32399999999999995,0.0221,-0.537,0.02643734561164889,1.2065275356550806,0.04376372247790023,0.044158249405499526
0.32500000000000007,0.0022000000000005774,-0.537,0.02621193149860939,1.1989696953495979,0.04329499384568419,0.043373609122334816
0.32599999999999996,0.0048,-0.537,0.02547175152817697,1.1989696953495979,0.04175585532211844,0.043373609122334816
0.32700000000000007,0.006999999999996536,-0.537,0.024954114603632768,1.1985902186862343,0.04067947530156663,0.04333421259309352
0.32799999999999996,-0.0086,-0.537,0.024884870255334736,1.1985902186862343,0.04053548782789527,0.04333421259309352
0.32900000000000007,-0.0143999999999996,0.463,0.02486876927395741,1.198590218686234,0.04050200726682229,0.0433342125930935
0.32999999999999996,-0.0126,-0.537,0.0246631838895641,1.1997282885885006,0.04007451071511615,0.043452364797199716
0.33100000000000007,-0.02379999999999696,-1.537,0.02446090620994746,1.1905999875553113,0.03965389224178245,0.04250468233528022
0.33199999999999996,-0.0101,0.463,0.02364176127836291,1.2159104195635055,0.03795055309326583,0.04513236216645152
0.33299999999999985,0.0138,-1.537,0.020537013199492703,1.198969695349599,0.03149450515216282,0.043373609122334934
0.33399999999999996,0.0105,-0.537,0.017331628537699942,1.1989696953496005,0.024829192372988564,0.043373609122335094
0.33499999999999985,0.0019,-0.537,0.01715099307986694,1.1993490519457237,0.02445357697811333,0.04341299318642898
0.33599999999999997,0.0046,-0.537,0.01715253572688296,1.1997282885885034,0.02445678477560241,0.04345236479720002
0.33699999999999986,0.0167,-0.537,0.01707995249416485,1.2001074053916558,0.024305854388258757,0.04349172396645399
0.33799999999999997,0.0103,-1.537,0.01715114921731118,1.1997282885885037,0.024453901652064264,0.04345236479720004
0.33899999999999986,0.0086,-0.537,0.017279944872001556,1.1997282885885039,0.02472172077946651,0.04345236479720006
0.33999999999999997,0.0104,-0.537,0.017398780074727973,1.1993490519457244,0.024968828031457023,0.04341299318642905
0.34099999999999986,-0.0007,0.463,0.017420746053477643,1.1993490519457244,0.025014504333778057,0.04341299318642905
0.34199999999999997,-0.0021,1.463,0.017323348918578584,1.2069045166583487,0.024811975640221952,0.044197386840162896
0.34299999999999986,-0.0111,-2.537,0.01734046112650851,1.2155362316141445,0.024847558957118286,0.04509351470121327
0.344,-0.0122,-0.5370000000000555,0.017489412040765193,1.2155362316141447,0.025157289157084206,0.04509351470121329
0.34499999999999986,-0.0288,-1.5369999999999444,0.017550998366749254,1.2233636059366497,0.025285352453354667,0.04590613748187605
0.346,-0.0267,-0.537,0.01757968496741788,1.2307716588618447,0.02534500369219248,0.04667522713050323
0.34699999999999986,-0.0064,-0.5370000000000555,0.01753663849032821,1.2218752964950033,0.025255492365435287,0.045751624089884556
0.348,0.0016,-1.537,0.017490489903114737,1.2218752964950033,0.025159530476130322,0.045751624089884556
0.34899999999999987,0.0038,-1.5369999999999444,0.017484311321007036,1.220757873648814,0.025146682663270133,0.045635615422988995
0.35,0.0017,-0.5369999999999445,0.01784148821309582,1.220757873648814,0.02588940029452429,0.045635615422988995
0.35099999999999987,-0.012,0.462999999999889,0.01862826106581882,1.2207578736488143,0.02752542457955627,0.045635615422989016
0.352,0.0048,-1.537,0.01896774260386489,1.2129136837021697,0.028231346293353537,0.04482124687692858
0.35299999999999987,0.003,1.463,0.019034677086097733,1.21328868046659,0.028370530605648977,0.044860178311773434
0.354,0.0009,0.463,0.019014413931829042,1.2046408610502828,0.028328395175632303,0.04396237851695028
0.35499999999999987,0.0191,-1.537,0.019013931892619296,1.1802454152356414,0.02832739281789874,0.04142969077306618
0.356,0.031,-1.537,0.018982568915029557,1.1709652446217038,0.02826217629090478,0.0404662415066065
0.3569999999999999,0.0332,0.463,0.01900978327878327,1.1620024897028294,0.028318766143806635,0.039535745720345995
0.358,0.0235,-0.537,0.019074229573212306,1.1079351659580066,0.02845277649050494,0.03392258131115361
0.3589999999999999,0.018,0.463,0.019132427515133697,1.098044031855558,0.0285737939429917,0.03289570300342657
0.36,0.0031,1.463,0.019031444173391195,1.0884809956343828,0.02836380805074513,0.031902887179697956
0.3609999999999999,-0.019,1.463,0.01905943614268678,1.08889884557456,0.028422014865323128,0.03194626754791547
0.362,-0.0517,-0.537,0.019072526300059914,1.0893165352320704,0.028449234685228218,0.031989631275898205
0.3629999999999999,-0.0035,-0.537,0.019067731714596324,1.0897340647912201,0.028439264770496228,0.03203297838278047
0.364,0.0411,0.463,0.0190632536700919,1.0800974557557306,0.028429953074581283,0.03103252437254307
0.3649999999999999,0.0117,1.463,0.019112525530445734,1.0532520914003356,0.028532409533047774,0.02824549084999085
0.366,-0.0039,-0.537,0.0191631021836578,1.0532520914003356,0.028637579192402694,0.02824549084999085
0.3669999999999999,-0.018,0.463,0.019165264114763797,1.054547022255696,0.028642074736166995,0.028379928053207708
0.368,-0.031,0.463,0.019104302840485088,1.0541155553884796,0.028515311179415786,0.028335134002105127
0.3689999999999999,-0.043,1.463,0.01907875605829228,1.0541155553884796,0.02846218891429542,0.028335134002105127
0.37,-0.0538,0.463,0.019059757487105585,1.04502125440029,0.028422683072507962,0.02739098135873932
0.3709999999999999,-0.0571,1.463,0.019014484347343524,1.0349684073013836,0.02832854159844206,0.026347314322195146
0.372,-0.0245,-1.537,0.01899840520355104,1.0336489491131817,0.028295106446687673,0.026210330738979756
0.3729999999999999,-0.0028,1.463,0.018997295541492022,1.0332087552699079,0.02829279900296939,0.026164630670193808
0.374,0.0092,0.463,0.018995601477796633,1.0327683738041167,0.02828927634794074,0.026118911122802974
0.3749999999999999,0.0128,0.463,0.01893407968779168,1.0332087552699079,0.028161347248508307,0.026164630670193808
0.376,0.0029,-0.537,0.018967465658534056,1.0609904315749539,0.028230770410129676,0.02904887027856022
0.3769999999999999,-0.0001,-1.537,0.018991796837817754,1.0699490071294118,0.028281364936941104,0.029978932171334394
0.378,0.0078,0.463,0.019119604125765407,1.0699490071294118,0.02854712884346477,0.029978932171334394
0.3789999999999999,0.0008,1.463,0.019129861489259433,1.0699490071294118,0.02856845812003875,0.029978932171334394
0.38,0.0163,-0.537,0.019342323087103312,1.0784114436449703,0.02901025314703578,0.030857485873906583
0.3809999999999999,0.018,3.463,0.020179750014215667,1.0884809956343815,0.030751608081886178,0.03190288717969782
0.382,0.0011,1.463,0.020319171406655227,1.0800974557557292,0.03104152248741588,0.031032524372542933
0.3829999999999999,0.0032,1.463,0.02029613096656414,1.0800974557557292,0.030993611938143137,0.031032524372542933
0.384,0.0089,0.463,0.020421602876012475,1.0813602397162463,0.03125451963244952,0.031163624147651593
0.3849999999999999,-0.0079,0.463,0.02143626369212116,1.0914025857180123,0.03336441670182466,0.03220620098071161
0.386,0.0077,0.463,0.022581339348696997,1.091819317537639,0.0357454998516478,0.032249465267827924
0.3869999999999999,0.0175,-0.537,0.02328304840886877,1.1017663355817062,0.037204641533385735,0.03328214533769913
0.388,0.0266,-0.537,0.024018548422515117,1.102179148894377,0.03873404850237584,0.03332500281304341
0.3889999999999999,0.022,-0.537,0.024497782618182397,1.103416662175586,0.039730573458233054,0.033453479035368924
0.39,0.0177,1.463,0.024538778668194875,1.1038288582942122,0.039815821103952743,0.0334962724348277
0.3909999999999999,0.0112,-1.537,0.02452165849919722,1.1042409005463873,0.03978022123272298,0.033539049860170755
0.392,0.0173,1.463,0.024580970615805196,1.1124425065443657,0.03990355551253634,0.03439052464563171
0.3929999999999999,0.0227,-0.537,0.024587898548012608,1.1030043120180077,0.03991796153238966,0.03341066964388568
0.394,0.0202,-1.537,0.02466580402664194,1.085139774575935,0.040079959057512084,0.03155600810691383
0.3949999999999999,0.01,-1.537,0.024765329244567764,1.0939005952692036,0.04028691291075728,0.032465539474563224
0.396,0.0034,-0.537,0.02470342909631249,1.0851397745759355,0.04015819704893997,0.03155600810691388
0.3969999999999999,-0.0104,-1.537,0.02473820696496804,1.085558910609233,0.04023051453867696,0.031599521994818136
0.398,-0.0123,-1.537,0.024881200239805293,1.085558910609233,0.040527856356484135,0.031599521994818136
0.3989999999999999,-0.037,0.463,0.024886230610993626,1.0868153488575152,0.040538316566693926,0.03172996297042276
0.4,-0.0551,-0.537,0.02503386369684157,1.1067099324836,0.040845306459501636,0.03379537995449041
0.4009999999999999,-0.0387,-0.537,0.02513979819783116,1.1346965800455349,0.04106558784775986,0.03670089928014976
0.402,-0.018,0.463,0.025184977704932773,1.1346965800455353,0.041159534621022564,0.03670089928014981
0.4029999999999999,-0.0046,0.463,0.025284379646088633,1.1262531450803708,0.041366232131171105,0.03582431828158817
0.404,0.0024,-0.537,0.025291180351214276,1.1165242992119078,0.04138037359360513,0.03481428842271978
0.4049999999999999,0.0003,-0.537,0.025323752583876133,1.1246363299564248,0.04144810465914467,0.03565646367955885
0.406,0.0101,0.463,0.025343057116882194,1.1246363299564248,0.04148824672136734,0.03565646367955885
0.4069999999999999,0.0156,0.4629999999999445,0.02522328278395732,1.12584915897603,0.04123918663152005,0.035782377229846896
0.40800000000000003,0.017,-0.5369999999999445,0.025003843991584302,1.12584915897603,0.04078288314804596,0.035782377229846896
0.4089999999999999,0.0156,0.463,0.02489619071898138,1.1262531450803708,0.04055902772683768,0.03582431828158817
0.41000000000000003,0.0167,0.463,0.024851101542764254,1.1262531450803708,0.04046526878862826,0.03582431828158817
0.4109999999999999,0.0131,0.463,0.024857510618554055,1.1169316580556907,0.04047859589263348,0.03485657962571115
0.41200000000000003,0.0164,0.463,0.024785380056909452,1.1157091353295698,0.04032860679459185,0.03472965969366351
0.4129999999999999,0.0015,0.463,0.0242484655304669,1.1157091353295698,0.03921214071266448,0.03472965969366351
0.41400000000000003,-0.0141,0.46300000000005553,0.024248608752938123,1.1157091353295698,0.039212438531075824,0.03472965969366351
0.4149999999999999,-0.0158,1.463,0.023901711628555034,1.115301329964895,0.03849109676396441,0.03468732213374148
0.41600000000000004,-0.0031,1.462999999999889,0.023875428433470708,1.1058875343293597,0.03843644319362658,0.033710000177393354
0.4169999999999999,0.0017,-0.537,0.02387410122991964,1.1157091353295698,0.038433683391692376,0.03472965969366351
0.41800000000000004,-0.0088,-0.537,0.023809886805619605,1.1157091353295698,0.03830015519833821,0.03472965969366351
0.41899999999999993,-0.0124,-0.537,0.02360829854916022,1.1250407515704703,0.03788097031924208,0.035698449945070765
0.42000000000000004,-0.0012,0.463,0.023214825600741076,1.115301329964895,0.03706277826179002,0.03468732213374148
0.42099999999999993,0.0032,-1.537,0.022607124144524458,1.1148933754333057,0.03579911704498679,0.03464496908760045
0.42200000000000004,0.0068,-0.537,0.021894152945745943,1.1148933754333041,0.034316556746047895,0.03464496908760029
0.42299999999999993,0.0105,-0.537,0.0217932537010191,1.1062988098255635,0.03410674572607792,0.033752697999622536
0.42400000000000004,0.016,0.463,0.021833807041658392,1.106298809825562,0.03419107279696685,0.033752697999622376
0.42499999999999993,0.0114,-2.537,0.021814490418983205,1.105887534329356,0.034150905595350736,0.033710000177392965
0.42600000000000005,0.0107,-1.537,0.021776589324543825,1.1140770182138557,0.034072093634925936,0.03456021646860583
0.42699999999999994,0.0231,-0.537,0.021776079217644746,1.1140770182138557,0.0340710329129247,0.03456021646860583
0.42800000000000005,0.0105,-0.537,0.021776217741530157,1.105476105824395,0.03407132096104406,0.03366728647009216
0.42899999999999994,0.0319,-1.537,0.021762055466952764,1.1050645241397785,0.03404187176861232,0.0336245568599774
0.43000000000000005,0.05879999999999438,1.463,0.02176744630531168,1.0955627706689754,0.03405308153829534,0.032638103292218945
0.43099999999999994,0.0335,0.463,0.021722477770509053,1.0955627706689754,0.0339595734631949,0.032638103292218945
0.43200000000000005,-0.002700000000005307,0.463,0.02164837633954866,1.0376022900564124,0.0338054861174162,0.026620758907843396
0.43299999999999994,-0.0266,1.463,0.021654487235556307,1.0274768582765836,0.03381819318304157,0.02556955627087762
0.43400000000000005,-0.06610000000000112,1.463,0.02171235593155055,1.0172506457395474,0.03393852599785852,0.024507890771681806
0.43499999999999994,-0.0711,0.463,0.02172573395112844,1.0261477672268946,0.03396634440165742,0.025431572622715174
0.43600000000000005,-0.05700000000000098,1.463,0.02172666385467192,1.0362861854821446,0.03396827805350446,0.02648412349030504
0.43699999999999994,-0.0614,0.463,0.02171355172772597,1.035847112360092,0.033941012549823506,0.026438539772616888
0.43800000000000006,-0.04939999999999274,1.463,0.02165790763914411,1.0362861854821446,0.033825305608584585,0.02648412349030504
0.43899999999999995,-0.0167,0.463,0.02154335057106003,1.0367250726482533,0.033587094357701984,0.026529687902408734
0.44000000000000006,0.005000000000002665,0.463,0.021432665510574746,1.0371637740944863,0.033356934602802674,0.02657523303343609
0.44099999999999995,0.017,-1.537,0.021359036897456787,1.056701713980966,0.03320383043974303,0.028603623958005007
0.44200000000000006,0.00610000000000362,0.463,0.02135303743350886,1.0476298632468932,0.03319135508719113,0.027661802056363736
0.44299999999999995,0.0224,-1.537,0.021299674505765285,1.0463263717681621,0.03308039161735769,0.02752647610587595
0.44400000000000006,0.025199999999999445,-1.537,0.021354352277840615,1.0554094268202903,0.03319408918922622,0.028469461218029256
0.44499999999999995,0.0227,-0.537,0.02125792798787996,1.05540942682029,0.032993583440334893,0.02846946121802923
0.44600000000000006,0.02959999999999949,0.463,0.021236406650487573,1.05540942682029,0.032948831730233996,0.02846946121802923
0.44699999999999995,0.0273,-0.537,0.021243576782346618,1.0656963424418415,0.03296374138275655,0.02953742879341319
0.44800000000000006,0.005199999999992739,1.463,0.021219702514017513,1.057132125312018,0.03291409696170338,0.02864830842539564
0.44899999999999995,-0.0275,2.463,0.021192198875523087,1.0484979572891353,0.032856905587664624,0.02775192589169065
0.45000000000000007,-0.02319999999999913,2.463,0.02086834593986559,1.0484979572891353,0.032183482164778544,0.02775192589169065
0.45099999999999996,-0.0193,0.463,0.020132400886264633,1.0489317348978826,0.030653149774720553,0.027796959839485373
0.45200000000000007,-0.02299999999999638,-0.537,0.01977837902364593,1.0592815586748725,0.029916992747095746,0.028871458417232633
0.45299999999999996,-0.0067,-0.537,0.019726464758693656,1.0592815586748725,0.029809041642901494,0.028871458417232633
0.45400000000000007,0.012800000000001933,-1.537,0.019758837300004987,1.0592815586748725,0.029876357468009387,0.028871458417232633
0.45499999999999996,0.0215,-1.537,0.01978665570958175,1.0592815586748725,0.029934203380563486,0.028871458417232633
0.45600000000000007,0.01889999999999629,1.463,0.01984024270295743,1.0695312321860697,0.03004563277498277,0.029935559589142464
0.45699999999999996,0.0022,0.463,0.01981470911719065,1.0779969483021123,0.029992537950658545,0.030814453773459236
0.4580000000000001,-0.004400000000001288,0.463,0.019768478012072026,1.1042409005463845,0.029896404472697067,0.03353904986017046
0.45899999999999996,-0.0102,0.463,0.019695618402109382,1.130277988092622,0.02974489938341457,0.036242169656211055
0.45999999999999985,0.0064,0.463,0.01966213817932326,1.130277988092622,0.029675280233037424,0.036242169656211055
0.46099999999999997,-0.0001,-1.537,0.01965147256832264,1.1382920074804705,0.029653102042024187,0.03707416956459855
0.46199999999999986,0.0056,-0.537,0.019623464510286674,1.147439982016625,0.02959486177233919,0.03802389449133783
0.46299999999999997,-0.0036,-0.537,0.019566609750156897,1.1565155988427935,0.029476637347119052,0.03896610738133675
0.46399999999999986,-0.0051,-0.537,0.019588172886590288,1.15612218745698,0.02952147597461413,0.03892526417630885
0.46499999999999997,-0.0037,0.463,0.019601881101308005,1.1561221874569798,0.029549980989886326,0.03892526417630883
0.46599999999999986,0.0028,1.463,0.019656907264819518,1.147043457892472,0.029664403010810667,0.03798272812786871
0.46699999999999997,0.0038,0.463,0.019792478748134577,1.1374924431490248,0.029946311872172122,0.03699116035058024
0.46799999999999986,0.0005,1.463,0.020155500922945747,1.1470434578924735,0.030701184249810325,0.03798272812786887
0.469,-0.0002,-0.537,0.020200264008798322,1.1565155988427946,0.03079426511206215,0.038966107381336865
0.46999999999999986,0.01,-0.536999999999889,0.02019195938965704,1.1565155988427946,0.030776996393974007,0.038966107381336865
0.471,0.0088,1.462999999999889,0.020243479645177826,1.1643490431541235,0.030884128190541895,0.03977936033643531
0.47199999999999986,0.0124,-0.536999999999889,0.020318742994461614,1.1565155988427946,0.03104063164230051,0.038966107381336865
0.473,0.0135,1.462999999999889,0.020361523695659817,1.1565155988427946,0.031129590311691203,0.038966107381336865
0.47399999999999987,-0.0014,-0.5370000000000555,0.020337816954596237,1.1569088764475361,0.031080294248710956,0.03900693669747402
0.475,0.0007,-1.5369999999999444,0.020276358340610538,1.1565155988427946,0.030952496518200784,0.038966107381336865
0.47599999999999987,0.0025,-0.537,0.020260544023039853,1.1314847698824257,0.030919612049059148,0.03636745539486086
0.477,0.0007,-0.537,0.020279710900392964,1.1230171870956733,0.030959467868574772,0.03548836741642102
0.47799999999999987,-0.0007,-0.5369999999999445,0.020378237232592425,1.1314847698824257,0.031164344627648964,0.03636745539486086
0.479,-0.005,0.4629999999999445,0.020492067343573585,1.1318867445607261,0.03140104423578686,0.036409187624262145
0.47999999999999987,-0.0086,-0.537,0.020362664020239528,1.1318867445607261,0.03113196151539856,0.036409187624262145
0.481,-0.0024,-0.537,0.019493945761033027,1.1222067396159645,0.029325539034000456,0.03540422833511395
0.4819999999999999,0.0052,0.463,0.019207922795522178,1.1218012963101356,0.028730779674887994,0.035362135999547926
0.483,0.0161,0.463,0.01922029424946863,1.121395706415317,0.028756505014835218,0.035320028445398055
0.4839999999999999,0.0117,-1.537,0.019059989442254587,1.112033503240939,0.028423165402643644,0.034348062718038024
0.485,0.008,1.463,0.017915486021609476,1.1025918076486523,0.026043272166626247,0.033367844242435614
0.4859999999999999,0.0018,-0.537,0.016448087044543442,1.1025918076486523,0.022991946292833874,0.033367844242435614
0.487,-0.0083,0.463,0.015443842301880466,1.1013533675368432,0.020903708523284433,0.03323927179835957
0.4879999999999999,-0.0148,0.463,0.014273119488408119,1.109576317389642,0.018469294388057445,0.03409296246132166
0.489,-0.0035,0.463,0.013654956022396199,1.1001135332662566,0.017183878350868494,0.03311055461543038
0.4899999999999999,0.0009,2.463,0.013670789974930535,1.0996999445481364,0.01721680364917354,0.033067616639000236
0.491,0.01,-0.537,0.01366869319882541,1.1254379209578804,0.01721244358944806,0.03573968329851642
0.4919999999999999,-0.0087,-1.537,0.013563761225215288,1.126649887071922,0.016994246867855105,0.03586550726362689
0.493,-0.0275,-1.537,0.013555523882639935,1.1346895310905045,0.016977118045411927,0.03670016747134626
0.4939999999999999,-0.0006,-1.537,0.013380350823529855,1.1262460432795232,0.016612861223642385,0.035823580986434685
0.495,0.0031,-1.537,0.013160682093559395,1.1177387745082366,0.016156079605351936,0.03494037288625584
0.4959999999999999,-0.0066,1.463,0.013054156492781173,1.1177387745082366,0.015934569077570477,0.03494037288625584
0.497,0.0022,0.463,0.01327610849786184,1.125842054626842,0.01639609856370713,0.035781639670129664
0.4979999999999999,-0.0058,0.463,0.015307934873272488,1.1767713787551137,0.02062110109351692,0.04106902306144117
0.499,0.001,0.463,0.015815059501530882,1.1756110852437693,0.021675621727391223,0.04094856364545761
0.4999999999999999,0.0031,0.463,0.015634554678607575,1.1490177490688505,0.021300277976210855,0.038187695198495936
0.501,0.0088,1.463,0.015587897240817699,1.1213885738521103,0.021203257977316103,0.03531928795655627
0.5019999999999999,0.0107,0.463,0.015483517253423484,1.1209828346275768,0.020986209062045014,0.035277164899285784
0.503,0.0121,0.463,0.015699432264374626,1.1213885738521103,0.02143518515494966,0.03531928795655627
0.5039999999999999,0.0107,-0.537,0.017365777256271277,1.1310755808693136,0.024900201600991375,0.036324974187248775
0.505,0.0145,1.463,0.020049148774575296,1.1322815125877632,0.030480034400908965,0.03645017167314368
0.5059999999999999,-0.0016,-1.537,0.020391723790266894,1.1238199329894563,0.031192388726781962,0.03557170693405415
0.507,-0.008,-2.537,0.02032649660087918,1.1238199329894563,0.031056754578357357,0.03557170693405415
0.5079999999999999,-0.0021,-2.537,0.020327862783807212,1.1238199329894563,0.031059595434444757,0.03557170693405415
0.509,0.0106,0.463,0.020341976887058716,1.1234150718892966,0.03108894445888172,0.03552967504194851
0.5099999999999999,0.0154,-1.537,0.0203179398946363,1.1326832045123765,0.03103896166752574,0.03649187454760702
0.511,0.0079,1.463,0.020307923767456305,1.1322815125877632,0.031018134020445995,0.03645017167314368
0.5119999999999999,0.0069,1.463,0.02032168367613469,1.1238199329894563,0.031046746528719187,0.03557170693405415
0.513,-0.0094,-0.537,0.02031984863449184,1.1322815125877632,0.031042930722567058,0.03645017167314368
0.5139999999999999,-0.0159,0.463,0.020350899987280846,1.1322815125877628,0.031107499253458903,0.036450171673143635
0.515,-0.0216,0.463,0.020426633163345545,1.1326832045123758,0.031264979668289734,0.03649187454760695
0.5159999999999999,-0.0234,-0.537,0.02044100516168327,1.1326832045123767,0.031294864962658465,0.036491874547607044
0.517,-0.0382,1.463,0.0204648014302326,1.132683204512372,0.03134434719009566,0.03649187454760656
0.5179999999999999,-0.0161,1.463,0.020541709715862395,1.140680325819475,0.03150427114092219,0.037322120130111894
0.519,0.0108,-0.537,0.02058777751729762,1.1314777009182417,0.03160006504337473,0.03636672150874594
0.5199999999999999,0.0144,-1.537,0.020714488475745738,1.1314777009182422,0.03186354923005369,0.03636672150874598
0.521,0.0177,0.463,0.02077864669719017,1.1398824367621585,0.031996960554560215,0.037239284839795855
0.5219999999999999,0.0148,-0.537,0.020761153491545337,1.1302709115809593,0.03196058498674676,0.036241434986531575
0.523,-0.004,0.463,0.020865875844627572,1.1398824367621596,0.03217834582106542,0.03723928483979597
0.5239999999999999,0.0029,-0.537,0.021119150210111248,1.139882436762158,0.03270500737436287,0.037239284839795814
0.525,-0.0083,0.463,0.02115642665954157,1.1398824367621583,0.03278252044095726,0.037239284839795835
0.5259999999999999,-0.014,-0.537,0.021213889596582634,1.139882436762159,0.032902009516060794,0.037239284839795904
0.527,-0.0307,-1.537,0.021214555910078998,1.148225653607531,0.03290339505581058,0.03810546138804981
0.5279999999999999,-0.0241,0.463,0.021237394101365575,1.1482256536075308,0.03295088504665321,0.03810546138804979
0.529,-0.0223,-1.537,0.02134163663469864,1.1482256536075313,0.0331676481384095,0.038105461388049836
0.5299999999999999,-0.0021,-0.537,0.021504577822521735,1.147829400898082,0.0335064698699778,0.03806432320232746
0.531,-0.0046,-0.537,0.02151176862743886,1.1478294008980818,0.033521422510288945,0.03806432320232744
0.5319999999999999,0.0073,-0.537,0.021575841308109567,1.1482256536075313,0.033654655960352185,0.038105461388049836
0.533,0.0094,0.463,0.021571581706284208,1.147829400898082,0.033645798496591536,0.03806432320232746
0.5339999999999999,0.0112,0.463,0.021518991025682527,1.147433011347354,0.03353644084611728,0.03802317081000963
0.535,-0.0014,0.463,0.02153180121507824,1.139083988811207,0.03356307849747334,0.037156391526229494
0.5359999999999999,-0.0062,-1.537,0.021780862780010957,1.1298683620358865,0.0340809799061045,0.0361996430755799
0.537,0.0167,-1.537,0.021831117464307843,1.1302709115809582,0.03418548005968983,0.03624143498653146
0.5379999999999999,0.0265,0.463,0.021830008065228227,1.1302709115809582,0.03418317316281386,0.03624143498653146
0.539,0.0178,-0.537,0.021780767922828004,1.1302709115809582,0.03408078265901548,0.03624143498653146
0.5399999999999999,0.0044,-2.537,0.021813220846945355,1.1298683620358867,0.034148265633030826,0.03619964307557992
0.541,-0.0025,1.463,0.021859675269723825,1.110388780285575,0.03424486348023626,0.03417731077922184
0.5419999999999999,0.0039,-1.537,0.021948761981666516,1.1107983891870206,0.0344301113871861,0.034219835578824166
0.543,0.0057,-0.537,0.021948193743828483,1.1025845534439818,0.0344289297870591,0.033367091125013605
0.5439999999999999,0.0074,-0.537,0.02178643767725743,1.1025845534439818,0.034092572409900504,0.033367091125013605
0.545,0.0154,-0.537,0.02179252514115676,1.1038216122193127,0.03410523075053731,0.033495520161422716
0.5459999999999999,0.0382,-1.537,0.02179670963811156,1.0955554699216412,0.034113932040388636,0.032637345342828104
0.547,0.0809,-3.537,0.021935935505582024,1.085970519691412,0.03440343986910692,0.03164225444929456
0.5479999999999999,0.04,-1.537,0.022051108551288,1.085970519691412,0.034642931990757964,0.03164225444929456
0.549,0.0135,0.463,0.022062550803312958,1.085970519691412,0.034666725137818766,0.03164225444929456
0.5499999999999999,-0.0198,-0.537,0.02206416375650571,1.0855515425821303,0.03467007913075946,0.031598757060572566
0.551,-0.0068,-0.537,0.022081372786888147,1.0855515425821303,0.03470586378134836,0.031598757060572566
0.5519999999999999,-0.0347,0.463,0.022076187767481187,1.0855515425821303,0.03469508199390006,0.031598757060572566
0.553,-0.0746,1.463,0.022068955577423673,1.0855515425821305,0.034680043296864305,0.03159875706057259
0.5539999999999999,-0.1011,1.463,0.022053393820964395,1.0851324037029075,0.034647684006127444,0.03155524287720988
0.555,-0.0430999999999926,-0.537,0.022028068375576717,1.0851324037029075,0.034595021991239545,0.03155524287720988
0.5559999999999999,-0.0098,1.463,0.0219840343418847,1.0754545622803677,0.034503457128218756,0.030550508200731467
0.557,0.0031999999999973356,0.463,0.021984954506512503,1.0669686741429865,0.034505370528855425,0.029669519796386826
0.5579999999999999,-0.0088,-0.537,0.021972690430018083,1.039346808180613,0.03447986847078502,0.026801871387021572
0.559,0.002099999999999267,1.463,0.02197232517016982,1.0109705355488918,0.034479108945364136,0.02385590194430121
0.5599999999999999,-0.0012,-0.537,0.021948525225318483,1.0109705355488918,0.03442961907338336,0.02385590194430121
0.561,0.007399999999999445,-0.537,0.0218965643230285,1.0109705355488918,0.03432157099098655,0.02385590194430121
0.5619999999999999,0.0049,-1.537,0.021882046549765718,1.0109705355488918,0.03429138257060538,0.02385590194430121
0.5630000000000001,0.011700000000001444,-0.536999999999889,0.021871040058938737,1.0001208865308373,0.03426849555026196,0.02272951248201153
0.564,0.0182,0.463,0.021857888834411605,1.0096197153576367,0.03424114874663263,0.023715662418916938
0.5650000000000001,0.008400000000000398,0.46300000000011104,0.021822213594801045,1.0091690401525617,0.03416696525367757,0.023668874195531372
0.566,0.0102,1.462999999999667,0.021715904751460853,1.0091690401525617,0.03394590545374133,0.023668874195531372
0.5670000000000001,0.018099999999999023,-1.5369999999997779,0.021605400152165846,1.0096197153576367,0.03371612095186298,0.023715662418916938
0.568,0.0137,0.462999999999889,0.02127199076908645,0.9987553922588103,0.03302282574513643,0.022587749522097467
0.5690000000000001,0.02279999999999918,-0.537000000000111,0.021287601912834506,0.988232015029698,0.03305528773235492,0.0214952329624515
0.57,0.0191,-1.536999999999889,0.021322014871365234,0.9978440246317382,0.03312684642388986,0.022493133107345457
0.5710000000000001,0.002399999999994049,-0.536999999999778,0.021324768104047858,0.988232015029698,0.03313257152677759,0.0214952329624515
0.572,-0.0244,1.463,0.02158196252422554,0.9882320150296982,0.03366738448572644,0.021495232962451514
0.5730000000000001,-0.03539999999999496,1.462999999999778,0.02256323067166328,0.9886922339970361,0.03570784446573251,0.021543012000675946
0.574,-0.0127,-0.537000000000111,0.022902617108188188,0.9886922339970361,0.03641356842436114,0.021543012000675946
0.5750000000000001,-0.015699999999995846,-1.537,0.0229439072248518,0.9982998124459692,0.036499427555569945,0.022540452111871372
0.576,0.003,-1.536999999999889,0.022930244797931324,1.0265831975151745,0.036471017751956346,0.025476778148485087
0.5770000000000001,0.009800000000002487,-0.537,0.023001445802308947,1.0371560622651081,0.036619073918202176,0.02657443240630685
0.578,0.021,-0.537,0.023081107683384193,1.0384710644030688,0.036784723726249524,0.02671095337105165
0.5790000000000001,0.026799999999996292,-0.537,0.023802509860164463,1.048490328824656,0.03828481549530677,0.027751133919343106
0.58,0.0101,-0.537,0.024611805105441687,1.0393468081806132,0.03996767309575909,0.026801871387021597
0.5810000000000001,0.016699999999996957,0.463,0.02472408660894525,1.0497911333917873,0.04020115251215732,0.027886180919893692
0.582,0.003,-0.537,0.024727531065188033,1.0497911333917873,0.040208314953060584,0.027886180919893692
0.5830000000000001,-0.0060000000000017765,-0.537,0.024741991119419722,1.0588444671960187,0.040238383351841815,0.02882608042988776
0.584,-0.014,-0.537,0.02485317862167403,1.0588444671960187,0.04046958788978504,0.02882608042988776
0.5850000000000001,-0.0338999999999958,0.463,0.024915586647854662,1.0588444671960187,0.040599359838650664,0.02882608042988776
0.586,-0.015,0.463,0.02491540636882028,1.0584147522003027,0.040598984964406705,0.02878146825467759
0.5869999999999999,-0.008,0.463,0.02492745745541082,1.0497911333917873,0.04062404412888462,0.027886180919893692
0.588,-0.0015,0.463,0.024879896867646495,1.0682469778621517,0.040525146109814024,0.029802230802657852
0.5889999999999999,0.0123,-0.537,0.02474057761698765,1.0767227914550872,0.04023544409904755,0.030682173287389588
0.59,0.0142,-1.537,0.024684143816773585,1.0771452026886754,0.040118095022592615,0.030726027200218914
0.5909999999999999,0.0221,0.463,0.02471577066033928,1.0502243768759159,0.04018386023545337,0.027931159415909186
0.592,0.0084,0.463,0.024715455794852854,1.0502243768759159,0.040183205500633104,0.027931159415909186
0.5929999999999999,0.0066,-1.537,0.024725127306331352,1.041096085777292,0.04020331654996205,0.026983477985376945
0.594,0.0051,1.463,0.02471863235296959,1.0415329461218168,0.04018981087117151,0.027028831976805258
0.5949999999999999,-0.0054,0.463,0.02473803282043239,1.0419696233065452,0.04023015242057839,0.027074166952939682
0.596,-0.0256,0.463,0.024694087019600637,1.0424061175616615,0.040138771029955805,0.02711948293767751
0.5969999999999999,-0.0227,0.463,0.024399375602920506,1.0332087552698965,0.039525944808135684,0.026164630670192632
0.598,-0.0092,0.463,0.023040277097826016,0.9845506426990713,0.03669982014916999,0.02111304004606477
0.5989999999999999,0.0028,-0.537,0.022730228301594914,0.9748075636121968,0.03605510120847008,0.020101532522139514
0.6,0.0092,0.463,0.022726723342083022,0.9840884868764402,0.036047812956391145,0.021065059927290308
0.6009999999999999,0.0074,1.463,0.022657221198193526,0.9840884868764403,0.035903289419678526,0.021065059927290318
0.602,0.0091,0.463,0.022651869437654605,0.9845506426990713,0.03589216090885225,0.02111304004606477
0.6029999999999999,-0.009,-0.537,0.022391922350728236,0.9845506426990713,0.03535162402382504,0.02111304004606477
0.604,-0.0022,-0.537,0.021128667077784585,0.9734065604701712,0.03272479685563072,0.019956083100394498
0.6049999999999999,-0.0044,0.463,0.01857376426991912,0.9621334085736674,0.027412103331575025,0.01878572639282889
0.606,-0.0026,0.463,0.018068668411997744,0.9621334085736674,0.026361801345470056,0.01878572639282889
0.6069999999999999,0.0029,-0.537,0.018043514077316258,0.9507265957260259,0.026309495140101752,0.01760149326523987
0.608,0.0015,-0.537,0.018041317418401665,0.9502479896239748,0.02630492738294317,0.017551805310446054
0.6089999999999999,0.003,0.463,0.018026816018343612,0.950726595726026,0.026274773009187354,0.017601493265239885
0.61,-0.0035,-1.537,0.01804059063546054,0.9396654946226374,0.026303416102352446,0.016453151258651016
0.6109999999999999,0.0002,1.463,0.018040531161954202,0.9396654946226374,0.02630329243247702,0.016453151258651016
0.612,-0.0008,-0.537,0.018047870530127023,0.9401494880181547,0.026318553996886578,0.016503398511776096
0.6129999999999999,-0.0055,-1.537,0.018042707043092875,0.9304303820778768,0.02630781698409556,0.015494379833311136
0.614,-0.0098,-0.537,0.018004756260742875,0.9309191769052657,0.026228901702072704,0.015545125561756032
0.6149999999999999,-0.0007,0.463,0.01791759560632785,0.9406332323797582,0.026047658860725627,0.01655361991068453
0.616,0.008,0.463,0.01789851557494096,0.9406332323797576,0.026007983629685195,0.016553619910684474
0.6169999999999999,0.0048,-0.537,0.017888359113121845,0.9294520212581222,0.025986864169184536,0.015392808315573117
0.618,0.0179,0.463,0.01798647860299104,0.9309191769052741,0.026190894935758876,0.015545125561756908
0.6189999999999999,0.0162,-1.537,0.018037435953571834,0.9406332323797671,0.026296856221487704,0.016553619910685463
0.62,0.0148,-0.537,0.017899849808691897,0.9507265957260349,0.02601075805029578,0.017601493265240804
0.6209999999999999,0.0376,0.463,0.017817482579794087,0.9507265957260367,0.025839482711675205,0.01760149326524099
0.622,0.0674,0.463,0.01796847791212897,0.962133408573679,0.02615346409749879,0.018785726392830097
0.6229999999999999,0.0394,0.463,0.01781467618568584,0.9512049610137729,0.025833647064323402,0.01765115621916094
0.624,0.014,-1.537,0.017557893821050396,0.9396654946226528,0.025299690938285803,0.016453151258652616
0.6249999999999999,-0.0023,-2.537,0.01765039227011423,0.9701296849966238,0.025492033249630786,0.019615884261105124
0.626,-0.0229,1.463,0.017682657069178317,0.9602402947950274,0.0255591250343026,0.018589187001773283
0.6269999999999999,-0.0362,1.463,0.017710090562072907,0.960240294795029,0.02561617054679514,0.018589187001773456
0.628,-0.063,1.463,0.017685032451307686,0.960240294795029,0.025564064430516426,0.018589187001773456
0.6289999999999999,-0.0665,-0.537,0.017613309788964204,0.9607139229679338,0.025414923522851685,0.01863835815764363
0.63,-0.0237,1.463,0.017447141133481503,0.9607139229679338,0.025069390558871134,0.01863835815764363
0.6309999999999999,-0.0062,-0.537,0.01742819298367542,0.9607139229679337,0.02502998956386745,0.018638358157643618
0.632,-0.0113,-1.537,0.017347404361193502,0.9602402947950289,0.02486199679711494,0.018589187001773446
0.6329999999999999,-0.0254,0.463,0.017359517774606984,0.9607139229679337,0.0248871855646868,0.018638358157643618
0.634,-0.021,0.463,0.017349462080176282,0.9607139229679337,0.024866275641022614,0.018638358157643618
0.6349999999999999,-0.001,-0.537,0.01730776038037539,0.970598487402512,0.024779560659226728,0.019664554415228064
0.636,0.0098,0.463,0.016977509377215524,0.9701296849966254,0.024092833023091655,0.019615884261105297
0.6369999999999999,0.0066,-2.537,0.016916954907006957,0.9696606559385912,0.023966915379281768,0.019567190576397313
0.638,0.0038,-1.537,0.016932088806526545,0.9803833973051826,0.023998384979504486,0.020680404733102998
0.6389999999999999,0.0063,0.463,0.016969671767196746,0.980383397305182,0.02407653540900526,0.02068040473310293
0.64,0.0132,0.463,0.016935025704711754,0.9803833973051815,0.0240044919984961,0.02068040473310288
0.6409999999999999,0.002,1.463,0.016894537393477918,0.9710670634845133,0.023920300150481476,0.01971320107284519
0.642,0.0079,-0.537,0.016764587159302412,0.9817744444732821,0.02365008017756183,0.020824820544995876
0.6429999999999999,-0.0012,0.463,0.016781750575190227,0.9813109811799856,0.02368576997685954,0.020776704687159503
0.644,-0.0124,0.463,0.016771104602513617,1.003299812583444,0.02366363262199728,0.023059542402896142
0.6449999999999999,-0.0048,0.463,0.016763227913989355,1.001938650727074,0.023647253747628744,0.022918229225950555
0.646,0.0042,-0.537,0.016765958876931514,1.0019386507270729,0.023652932542568644,0.02291822922595044
0.6469999999999999,0.0104,-1.537,0.016593254329411194,1.0109705355488832,0.023293808771456297,0.02385590194430031
0.648,0.0136,-0.537,0.01650914910579985,1.0109705355488825,0.023118919427155736,0.02385590194430024
0.6489999999999999,0.0129,-1.537,0.01651057291842872,1.0105204627871727,0.023121880119088743,0.023809176265413304
0.65,0.0085,-0.537,0.016524300194531296,1.0105204627871727,0.023150424770818183,0.023809176265413304
0.6509999999999999,0.0045,0.463,0.016506189818304755,1.0100701894795276,0.02311276585158229,0.02376242976623737
0.652,0.0052,0.463,0.01659747005467785,0.9992107643547604,0.023302574997809175,0.02263502536755988
0.6529999999999999,0.0074,-0.537,0.016660305406658114,1.0082670854141937,0.02343323553273035,0.02357523500857986
0.654,0.0078,-0.537,0.016646933655131403,1.0087181635947802,0.0234054301627873,0.023622065068099374
0.6549999999999999,-0.0005,-0.537,0.01666373784319079,1.0091690401525497,0.02344037297971375,0.023668874195530126
0.656,-0.002,-0.537,0.016659685814326863,1.0087181635947802,0.023431947145494774,0.023622065068099374
0.6569999999999999,0.0016,-0.537,0.01682380037763586,1.0082670854141937,0.023773208807195075,0.02357523500857986
0.658,0.0048,0.463,0.016946556755907484,1.0176898827704046,0.024028469795547527,0.024553491506063323
0.6589999999999999,0.0073,0.463,0.016946556755907484,1.0176898827704046,0.024028469795547527,0.024553491506063323
0.66,-0.0011,-0.537,0.01699807252145022,1.0265831975151622,0.024135592255604753,0.02547677814848382
0.6609999999999999,0.009,0.463,0.017066780836371746,1.017242782946553,0.024278465095467237,0.024507074471803496
0.662,0.0024,0.463,0.01707722148007905,1.0069126384252285,0.024300175486970194,0.02343461895611017
0.6629999999999999,0.0013,0.463,0.017143495731302614,1.0176898827704048,0.024437986907507647,0.024553491506063348
0.664,0.0045,-1.537,0.01715036210388311,1.0082670854141937,0.02445226491958304,0.02357523500857986
0.6649999999999999,0.0018,0.463,0.017132862120658045,1.0190300052512773,0.02441587525839332,0.024692620415958988
0.666,-0.0084,0.463,0.017155968982369475,1.0292385387454217,0.0244639239255276,0.02575245051130131
0.6669999999999999,-0.0262,1.463,0.017285625648716184,1.0287964578100075,0.024733533450214885,0.025706554528279087
0.668,-0.0194,-1.537,0.01745049552934026,1.0292385387454217,0.025076365727202808,0.02575245051130131
0.6689999999999999,0.0053,-1.537,0.01740718702278915,1.0292385387454217,0.0249863095334477,0.02575245051130131
0.67,0.0085,-1.537,0.017332903093032103,1.0203683676553268,0.0248318426976265,0.0248315665981016
0.6709999999999999,0.0233,1.463,0.017273518157933484,1.0203683676553268,0.024708356998227828,0.0248315665981016
0.672,-0.0065,0.463,0.016858940836871693,1.0199224419901758,0.0238462802718472,0.024785271462714753
0.6729999999999999,-0.0185,-0.537,0.01547961086551786,1.0199224419901758,0.020978086075266508,0.024785271462714753
0.674,-0.0221,-2.537,0.014967823990392412,1.019476321274217,0.019913870713020584,0.024738956077532355
0.6749999999999999,-0.019,-0.537,0.014904866820182681,1.01052046278717,0.019782956867908194,0.02380917626541303
0.676,-0.0104,-1.537,0.014928447843207498,0.9817744444732579,0.01983199151139008,0.020824820544993364
0.6769999999999999,0.0029,-0.537,0.01476607396873922,0.9710670634844853,0.019494349457568016,0.019713201072842287
0.678,-0.0139,0.463,0.014341582491506855,0.9597664328947935,0.018611657123767122,0.018539991580786317
0.6789999999999999,-0.0119,-0.537,0.012888360933371567,0.9483311497777612,0.015589811933744526,0.017352802725193843
0.68,-0.006199999999998801,-0.537,0.011095428203227025,0.9488107227867966,0.011861567526488781,0.01740259106239047
0.6809999999999999,-0.0008,-0.537,0.01084121657024818,0.9488107227867967,0.01133295700866064,0.017402591062390484
0.682,0.0070999999999983125,0.463,0.010854349088708193,0.958818006526166,0.01136026491468441,0.018441527799552295
0.6829999999999999,-0.0005,-0.537,0.010805229054646811,0.949290053519785,0.011258124165511519,0.017452354246959054
0.684,-0.007099999999999201,-1.537,0.010517784973948492,0.949290053519785,0.010660409723555917,0.017452354246959054
0.6849999999999999,-0.0035,-0.537,0.010315422850695486,0.9492900535197849,0.01023961565717865,0.01745235424695904
0.686,0.004100000000001444,-0.537,0.010315734884201323,0.9592923369209219,0.010240264503146744,0.018490771858729476
0.6869999999999999,0.0106,1.463,0.010268391550060955,0.958818006526166,0.010141818243695928,0.018441527799552295
0.6880000000000001,0.0112999999999988,0.462999999999889,0.010273180808765239,0.9382120163775369,0.010151777081904937,0.016302253973750458
0.689,0.0059,-0.536999999999889,0.010291947408633406,0.9279825460166782,0.01019080055993362,0.015240250253620719
0.6900000000000001,0.008099999999999823,0.46300000000011104,0.010306273043421622,0.9274922035657246,0.010220589445418045,0.015189343853906929
0.691,0.0073,1.462999999999778,0.010242838749547825,0.9372417786262082,0.010088683464012857,0.01620152577717988
0.6920000000000001,0.011299999999998134,-0.536999999999667,0.010241658398180408,0.925528235944011,0.010086229028154677,0.014985448554649316
0.693,0.0029,2.462999999999556,0.010214884252222882,0.926019618348351,0.010030554569070455,0.015036462920301337
0.6940000000000001,-0.0007000000000012212,-1.5369999999997779,0.010215484412107607,0.9372417786262083,0.010031802548259004,0.016201525777179895
0.695,-0.0062,0.462999999999778,0.010141050460257104,0.9372417786262082,0.00987702375481581,0.01620152577717988
0.6960000000000001,0.008600000000001466,-1.5369999999997779,0.010131605145967818,0.9483311497777615,0.009857383062456445,0.017352802725193867
0.697,0.0152,0.462999999999889,0.010166840096650392,0.9483311497777613,0.009930651013681615,0.017352802725193857
0.6980000000000001,0.00929999999999629,-0.537,0.01011282476034474,0.9386967591888215,0.009818330918174545,0.016352579029763142
0.699,-0.0074,-0.537,0.01006276517413471,0.9386967591888213,0.009714236453736922,0.01635257902976313
0.7000000000000001,-0.005200000000003064,-0.537,0.009980146609799763,0.9401494880181417,0.009542438485392381,0.01650339851177475
0.701,-0.019,-0.537000000000111,0.009943562651822844,0.9401494880181417,0.00946636539328494,0.01650339851177475
0.7020000000000001,-0.017199999999997512,-1.5369999999997779,0.00994756609649413,0.9401494880181417,0.0094746902009894,0.01650339851177475
0.703,-0.006,0.463,0.010091374405445976,0.9396654946226244,0.009773726809866186,0.016453151258649667
0.7040000000000001,0.007699999999998779,0.463,0.011039363765539151,0.9396654946226244,0.01174498650660919,0.016453151258649667
0.705,0.0022,-0.537,0.012067643347198216,0.9497691423435428,0.013883202589655775,0.017502092316981736
0.7060000000000001,0.023499999999999334,-0.537,0.0126691801760454,0.9497691423435428,0.015134045011237914,0.017502092316981736
0.707,0.0205,-1.537,0.01269878625239088,0.950247989623962,0.015195608218100072,0.01755180531044472
0.7080000000000001,0.0015000000000026646,-0.537,0.012849941192108244,0.9507265957260131,0.015509921493303045,0.017601493265238546
0.709,0.0135,-1.537,0.013224342384106287,0.950247989623962,0.016288455526771245,0.01755180531044472
0.7100000000000001,0.015599999999997845,-0.537,0.014108958988303198,0.9611873177590173,0.018127937204869018,0.018687505084266972
0.711,0.0059,0.463,0.015867991909656345,0.9932826958776398,0.021785689969907172,0.022019584826280737
0.7120000000000001,0.014999999999998268,1.463,0.01730844052639281,0.9932826958776398,0.024780974962475773,0.022019584826280737
0.713,0.0072,-0.537,0.017549991699047633,0.9932826958776398,0.02528325917725711,0.022019584826280737
0.7140000000000001,0.005799999999996713,1.463,0.01758856212755395,0.9932826958776398,0.025363462958439987,0.022019584826280737
0.715,-0.009,1.463,0.017586879734921883,0.9836261139103336,0.02535996457235118,0.021017057265102484
0.7159999999999999,-0.0227,-0.537,0.017586120185923027,0.9928246047986318,0.0253583851576529,0.021972026701284716
0.717,-0.0245,0.463,0.017569660107899263,0.9928246047986318,0.025324157886989964,0.021972026701284716
0.7179999999999999,-0.0132,0.463,0.017442288264857487,0.9914490616185894,0.02505929944948234,0.021829220483282098
0.719,-0.0027,0.463,0.01733722443841927,0.9822376890840459,0.024840828551641356,0.02087291369963696
0.7199999999999999,0.0039,-0.537,0.01732892508984369,0.9729391111112514,0.02482357079322658,0.019907553416976625
0.721,-0.0022,-0.537,0.017310601427853664,0.9635508030211678,0.024785468365184426,0.018932877528032955
0.7219999999999999,-0.0097,0.463,0.017161420131509574,0.9521609705979089,0.02447525910612473,0.017750407275082362
0.723,-0.0005,-0.537,0.017195453628016725,0.9516830858503051,0.024546028740076314,0.01770079420990448
0.7239999999999999,0.0031,0.463,0.01720258480326679,0.9516830858503051,0.02456085738578968,0.01770079420990448
0.725,0.0086,0.463,0.017548563457516514,0.9211026815739585,0.025280289275815146,0.014525996106102638
0.7259999999999999,-0.0063,0.463,0.018319218543506693,0.9328717950905807,0.026882798096117873,0.01574784258459742
0.727,-0.0084,-0.537,0.018660149279792475,0.9343335807861668,0.02759173328897175,0.015899602332852317
0.7279999999999999,0.0014,-0.537,0.018664411421944783,0.9673203679722031,0.027600596035116717,0.01932422643076677
0.729,0.0105,0.463,0.01863130926589369,0.9987634005942868,0.02753176304094429,0.022588580931913235
0.7299999999999999,-0.0007,1.463,0.01870340979903788,0.9987634005942867,0.027681689697385728,0.022588580931913224
0.731,-0.0082,-1.537,0.01963951766789406,1.009627637517639,0.029628242888129135,0.023716484882162547
0.7319999999999999,-0.0045,0.463,0.020401008647309645,1.0100781081064185,0.031211695762545105,0.023763251862682227
0.733,-0.0054,0.463,0.021253554503248725,1.0190378542542256,0.03298448916739175,0.024693435284181515
0.7339999999999999,-0.0041,0.463,0.021598032547812805,1.0194841668409809,0.03370080067282391,0.024739770589016895
0.735,-0.0013,-1.537,0.021665936053661572,1.0100781081064185,0.033841999983683334,0.023763251862682227
0.7359999999999999,-0.0004,-0.537,0.021676993738220792,1.0100781081064185,0.03386499345684715,0.023763251862682227
0.737,0.0073,-1.537,0.021689540914490383,1.0105283778856655,0.03389108419576193,0.02380999799554674
0.7379999999999999,-0.0074,-0.537,0.02169257729861524,0.9996739300589212,0.0338973980869311,0.022683110330270897
0.739,0.0083,-0.537,0.02168009336623565,0.9996739300589218,0.033871438858069786,0.022683110330270952
0.7399999999999999,0.0067,-1.537,0.021698632366327953,1.0001288839323879,0.03390998906257449,0.02273034275668837
0.741,0.0013,-0.537,0.021751941805822853,1.0091769658504188,0.03402084130834434,0.023669697026070195
0.7419999999999999,0.0029,0.463,0.021860517296602884,0.9983078244360699,0.034246614400362724,0.022541283901103115
0.743,0.0015,1.463,0.021874320916893723,0.9987634005942922,0.0342753178030526,0.0225885809319138
0.7439999999999999,0.0005,0.463,0.02187966126481296,0.9668499760860105,0.034286422582349645,0.019275391259889613
0.745,0.0017,1.463,0.021902308434396094,0.9668499760860139,0.03433351536052191,0.01927539125988996
0.7459999999999999,0.0094,-0.537,0.021902744731494606,0.9668499760860152,0.03433442260159687,0.0192753912598901
0.747,0.0004,0.463,0.021897645283559055,0.9569266922256517,0.034323818752424975,0.01824517522681635
0.7479999999999999,0.0092,-0.537,0.02189489101246863,0.9569266922256524,0.034318091490260424,0.01824517522681642
0.749,0.0016,1.463,0.021920050103023624,0.9574019596440781,0.034370407585045386,0.018294516565968824
0.7499999999999999,-0.0009,-0.537,0.021957594564672982,0.9578769912502929,0.03444847795925087,0.018343833423556055
0.751,0.0053,0.463,0.021955041122535643,0.9578769912502929,0.03444316830306147,0.018343833423556055
0.7519999999999999,0.0177,-0.537,0.02188824902931378,0.969199652517219,0.0343042800760708,0.019519330097680528
0.753,0.0453,-0.537,0.021821410595245602,0.9597747665532209,0.0341652954874051,0.01854085676499821
0.7539999999999999,0.0493,-1.537,0.021866105771765718,0.9597747665532209,0.03425823513823014,0.01854085676499821
0.755,0.0385,-0.537,0.02185875318265501,0.9706067280565711,0.034242946082054214,0.019665409943907298
0.7559999999999999,0.0088,0.463,0.021898744083163453,0.9710753001621837,0.03432610360863342,0.019714056188703477
0.757,-0.0198,0.463,0.021781831678720557,0.9710753001621837,0.03408299464493688,0.019714056188703477
0.7579999999999999,-0.0317,-0.537,0.021688836353154124,0.9710753001621837,0.033889619123025336,0.019714056188703477
0.759,-0.0498,1.463,0.021733899523570785,0.9715436462771333,0.0339833239844819,0.0197626789715885
0.7599999999999999,-0.0727,2.463,0.021697159569669295,0.9729473319407611,0.033906926512701115,0.019908406887509687
0.761,-0.0698,0.463,0.021649684177220144,0.9840966145676099,0.03380820564972342,0.02106590372838203
0.7619999999999999,-0.0292,0.463,0.021647030394337977,0.99329074833638,0.033802687343865004,0.022020420816887928
0.763,-0.0118,0.463,0.021594807288744296,0.9827088544906132,0.03369409403298074,0.020921829175895197
0.7639999999999999,0.0038,-0.537,0.021587930706946645,0.9831716588320898,0.03367979479174481,0.02096987662263506
0.765,-0.001,-1.537,0.021604130100767532,0.9817825913212433,0.03371347999275555,0.020825666334908448
0.7659999999999999,0.0033,0.463,0.021588905764951268,0.9817825913212417,0.03368182233828426,0.020825666334908274
0.767,0.0153,-1.537,0.02149415284436845,0.9822458320898305,0.033484792053603385,0.02087375909066223
0.7679999999999999,-0.0029,0.463,0.021358021101340323,0.9817825913212399,0.033201718181917375,0.02082566633490809
0.769,0.0003,0.463,0.021324961606550837,0.9923743621526278,0.03313297389805031,0.021925283385340725
0.7699999999999999,0.0031,0.463,0.02132461371064878,0.9919158515829068,0.03313225047941371,0.02187768170963466
0.771,0.0056,-0.537,0.021331188720179858,1.001492505506179,0.033145922627899685,0.022871911296713322
0.7719999999999999,0.0125,-0.537,0.021343749321788535,1.0019466336194929,0.03317204128361498,0.022919057994317555
0.773,0.019,-0.537,0.021351846480076358,1.0109784471236989,0.033188878605280026,0.023856723308612438
0.7739999999999999,0.041,0.463,0.02139750318868603,1.0109784471236989,0.03328381767670519,0.023856723308612438
0.775,0.0558,1.463,0.02142808558756431,1.0105283778856753,0.03334741105958087,0.023809997995547755
0.7759999999999999,0.0369,1.463,0.021417260928634965,1.019484166840989,0.03332490214252266,0.02473977058901775
0.777,0.0049,2.463,0.0214378995774006,1.0190378542542347,0.03336781838000335,0.02469343528418246
0.7779999999999999,-0.0083,2.463,0.021443134738486545,1.0471955463667157,0.03337870443262072,0.027616712122457823
0.779,-0.0203,-0.537,0.021471218498576375,1.0562711272651046,0.0334371021180047,0.028558921282504528
0.7799999999999999,-0.0603,1.463,0.021452520944807246,1.0830416613338105,0.033398222215207954,0.03133818607021137
0.781,-0.0553,0.463,0.021455161133641407,1.0733449688465997,0.033403712253450644,0.030331494312857525
0.7819999999999999,-0.0601,-1.537,0.021480516257358296,1.0648422691746855,0.033456435981788823,0.029448760567690222
0.783,-0.0385,0.463,0.02148011375530824,1.0648422691746848,0.033455599014516266,0.029448760567690153
0.7839999999999999,-0.0186,-0.537,0.02152883229286697,1.0644149755545058,0.03355690488736313,0.0294043997749795
0.785,-0.0078,-0.537,0.021590713081325,1.0644149755545058,0.03368558049220115,0.0294043997749795
0.7859999999999999,0.0084,0.463,0.021594896601431667,1.0558403649498749,0.03369427975078352,0.028514200376619104
0.787,0.0112,-0.537,0.02159800278714427,1.0851397745759126,0.03370073878815632,0.031556008106911504
0.7879999999999999,0.0086,0.463,0.021645530809789856,1.0851397745759126,0.03379956909095415,0.031556008106911504
0.789,0.0107,0.463,0.021634730137183308,1.08555891060921,0.033777110051324305,0.031599521994815756
0.7899999999999999,0.0172,-1.537,0.02162293650135849,1.08555891060921,0.03375258623285313,0.031599521994815756
0.791,0.0229,-0.537,0.02164017228136357,1.0771526282174873,0.033788426506907054,0.030726798104180105
0.7919999999999999,0.0137,0.463,0.02165961062835284,1.0859778848758606,0.03382884682342568,0.031643019088421306
0.793,0.0056,-0.537,0.021686386770601893,1.08555891060921,0.03388452543362087,0.031599521994815756
0.7939999999999999,0.0099,-1.537,0.021688839444448854,1.0758849057248931,0.033889625551098236,0.030595185620274922
0.795,0.0062,0.463,0.02179727702354681,1.08555891060921,0.034115111868019736,0.031599521994815756
0.7959999999999999,0.0072,-0.537,0.021926354657641003,1.0758849057248934,0.03438351734655361,0.030595185620274946
0.797,0.0148,0.463,0.02201232369377413,1.0758849057248934,0.034562282323494294,0.030595185620274946
0.7979999999999999,0.014,0.463,0.02204400001159199,1.084301016458934,0.034628150413669304,0.03146892987029735
0.799,0.0147,0.463,0.022029869605320055,1.093068559724176,0.034598767488548995,0.03237915916229599
0.7999999999999999,0.0038,-0.537,0.022058590284904846,1.0834616090204081,0.034658489591466904,0.031381784222382865
0.801,0.008,1.463,0.022160816047808098,1.0922358903573435,0.03487105898819535,0.03229271304788151
0.8019999999999999,-0.0011,0.463,0.022541055047753125,1.0918193175376163,0.03566173222491588,0.03224946526782557
0.803,0.0151,0.463,0.0235742045841215,1.0918193175376165,0.03781007494634845,0.03224946526782559
0.8039999999999999,-0.0054,1.463,0.02353652563974836,1.0918193175376163,0.03773172492726038,0.03224946526782557
0.805,-0.013499999999998511,0.463,0.02324079799318642,1.0834616090204081,0.03711678554563808,0.031381784222382865
0.8059999999999999,-0.0068,-0.537,0.022921582418983465,1.0934846566339544,0.03645300510411803,0.03242235753430653
0.807,0.004300000000002154,-1.537,0.0230727561245581,1.0934846566339544,0.03676735740125486,0.03242235753430653
0.8079999999999999,0.014,0.463,0.023349710914664666,1.093068559724176,0.03734326029483094,0.03237915916229599
0.809,0.0048999999999974906,1.463,0.023587920747648157,1.1030043120179858,0.03783859649046301,0.033410669643883395
0.8099999999999999,-0.0064,1.463,0.023981756321652413,1.1030043120179858,0.03865754259561965,0.033410669643883395
0.811,-0.004999999999999179,-1.537,0.0236901923077052,1.0746156877030433,0.038051261118306166,0.030463417873430685
0.8119999999999999,-0.0013,0.463,0.022724959503186922,1.0746156877030433,0.03604414521002837,0.030463417873430685
0.8130000000000001,-0.0049000000000011985,0.462999999999778,0.022538575804573593,1.08304166133381,0.03565657685887068,0.03133818607021133
0.814,-0.0103,-1.5369999999996669,0.02263968948396563,1.082621550749987,0.035866833776686,0.03129457100636666
0.8150000000000001,-0.0037999999999969135,1.462999999999889,0.022659235425502692,1.0914025857179896,0.0359074778265128,0.03220620098070927
0.816,0.0101,0.462999999999889,0.02266641075960253,1.082621550749987,0.03592239829663316,0.03129457100636666
0.8170000000000001,-0.0036999999999979575,-0.536999999999778,0.022672164308937946,1.0822012770792289,0.035934362291584546,0.03125093901115354
0.818,0.0055,1.462999999999778,0.022621364798112956,1.0733449688465988,0.03582872921961239,0.03033149431285743
0.8190000000000001,-0.0024000000000009548,-0.537000000000111,0.022619704680883874,1.0733449688465988,0.03582527715324612,0.03033149431285743
0.82,-0.0067,-1.5369999999997779,0.022708121839968846,1.0729210614541564,0.03600913278448188,0.030287485071725375
0.8210000000000001,-0.007699999999995804,0.462999999999778,0.02273823906407932,1.0729210614541564,0.03607175887773351,0.030287485071725375
0.822,0.0112,-1.536999999999889,0.022731161917375606,1.0729210614541564,0.036057042579584773,0.030287485071725375
0.8230000000000001,0.013899999999999533,-0.537,0.0227476984242725,1.0729210614541564,0.03609142877730281,0.030287485071725375
0.824,0.0118,-0.537000000000111,0.022731799335252066,1.073344968846599,0.03605836803345878,0.030331494312857456
0.8250000000000001,0.00530000000000131,-1.536999999999889,0.022388054561327156,1.073344968846599,0.035343581299209344,0.030331494312857456
0.826,0.0112,-0.5370000000002221,0.021718620859528852,1.063132064268368,0.03395155335928946,0.029271210420065478
0.8270000000000001,0.009500000000000333,-2.536999999999889,0.02142226356161153,1.0528200938444972,0.03333530467358411,0.02820064170382754
0.828,0.011,-1.537000000000111,0.02145884379650854,1.0318870470439898,0.03341137002387748,0.026027413492438263
0.8290000000000001,-0.005699999999999512,-2.536999999999667,0.021628724748156636,1.0105204627871693,0.03376462237809728,0.02380917626541296
0.83,-0.0035,0.463,0.021585303647890974,1.0105204627871693,0.03367433205571062,0.02380917626541296
0.8310000000000001,-0.013299999999998001,0.463,0.02096581431817913,1.009169040152549,0.03238615900268894,0.023668874195530057
0.832,-0.0043,0.462999999999889,0.020255780845645933,1.0181367862569506,0.030909707444619124,0.024599888156965875
0.8330000000000001,-0.01550000000000031,-0.537,0.01934848348516583,1.009169040152549,0.029023063147788682,0.023668874195530057
0.834,-0.0169,0.463,0.0189845918353,1.009169040152549,0.028266382773980137,0.023668874195530057
0.8350000000000001,-0.004499999999998201,0.463,0.018895697600798067,1.009169040152549,0.02808153510677714,0.023668874195530057
0.836,0.0036,2.463,0.018920735814170128,1.0185834936646208,0.02813359984819359,0.024646264451340848
0.8370000000000001,-0.016199999999997,-1.537,0.01890465700580332,1.0181367862569506,0.028100165393927116,0.024599888156965875
0.838,-0.0027,0.463,0.018888466201554866,1.0181367862569506,0.02806649805416953,0.024599888156965875
0.8390000000000001,0.004300000000001466,-0.537,0.018872397550404395,1.0176898827704042,0.0280330847209325,0.02455349150606328
0.84,0.0109,0.463,0.018870408419416545,1.027911725553139,0.02802894849966995,0.025614703345865148
0.8410000000000001,0.009200000000000421,-1.537,0.018809371129570283,1.0185834936646205,0.027902026875295884,0.024646264451340823
0.842,0.0111,-0.537,0.018699010251922152,1.0185834936646205,0.027672541229820324,0.024646264451340823
0.8430000000000001,-0.003700000000004019,0.463,0.018667445340893835,1.0185834936646208,0.027606904800171698,0.024646264451340848
0.844,-0.0218,1.463,0.018660946240088013,1.029238538745421,0.027593390497139512,0.02575245051130124
0.8449999999999999,-0.0239,0.463,0.018647690066852893,1.0305636437154124,0.027565825461990948,0.025890020332421004
0.846,-0.0217,-0.537,0.01868018760870861,1.0393468081806008,0.02763340121463135,0.026801871387020306
0.8469999999999999,-0.0119,-1.537,0.01881937429004047,1.0397844034758337,0.027922827559253977,0.026847301679601903
0.848,0.0048,-1.537,0.018760913813056914,1.0397844034758337,0.027801264188417486,0.026847301679601903
0.8489999999999999,0.0113,0.463,0.018767450270093744,1.0484903288246437,0.02781485617041497,0.027751133919341815
0.85,0.0212,-1.537,0.018856480534997416,1.048056368523381,0.027999986700759438,0.027706081004765418
0.8509999999999999,0.0415,-0.537,0.018852698329191807,1.0484903288246437,0.027992121939631052,0.027751133919341815
0.852,0.0712,-0.537,0.01886562592786255,1.0380329154540449,0.028019003733149073,0.02666546559921013
0.8529999999999999,0.0433,-0.537,0.01888178643949085,1.0375945814862526,0.02805260808209291,0.026619958619079877
0.854,0.0324,0.463,0.01894283688586567,1.0463187274711498,0.02817955706429986,0.027525682489825613
0.8549999999999999,-0.0039,1.463,0.01895905800408579,1.0362784671218706,0.028213287439269773,0.026483322185150898
0.856,-0.0279,0.463,0.018925864293884077,1.0362784671218706,0.028144264066370762,0.026483322185150898
0.8569999999999999,-0.041,-0.537,0.018914577235348718,1.0367173575554942,0.028120793630391033,0.026528886936481637
0.858,-0.0461,1.463,0.019001976953799824,1.0367173575554942,0.028302533584173232,0.026528886936481637
0.8589999999999999,-0.066,1.463,0.01906935149461263,1.0467534081593617,0.028442632959210307,0.027570810193574175
0.86,-0.0624,0.463,0.01920743969430721,1.0467534081593617,0.028729775108808874,0.027570810193574175
0.8609999999999999,-0.0196,0.463,0.019272357089593697,1.0367173575554942,0.028864765067908426,0.026528886936481637
0.862,-0.0022,-1.537,0.019298728912828435,1.0367173575554942,0.02891960293261522,0.026528886936481637
0.8629999999999999,0.0243,-0.537,0.019306825265641238,1.0362784671218706,0.028936438579366487,0.026483322185150898
0.864,0.0101,-1.537,0.019308856291145676,1.0362784671218717,0.028940661916556226,0.026483322185151013
0.8649999999999999,0.0057,-0.537,0.019282197907063002,1.0274690737405439,0.028885228174011575,0.02556874809548416
0.866,-0.0062,-0.537,0.019294689298129376,1.0167954865264053,0.02891120291254976,0.02446063702729854
0.8669999999999999,-0.0026,-0.537,0.01930257995501603,1.016795486526406,0.028927610832887553,0.024460637027298608
0.868,0.0006,0.463,0.019309062576387672,1.0172427829465616,0.02894109086839967,0.024507074471804394
0.8689999999999999,-0.0201,-0.537,0.01932050143198292,1.0069126384252407,0.02896487695288648,0.023434618956111437
0.87,-0.0122,0.463,0.019328977638847278,1.0163479932503854,0.028982502472408477,0.024414179145599735
0.8709999999999999,-0.0003,-0.537,0.019366693546255843,1.0163479932503887,0.029060929352846553,0.02441417914560008
0.872,0.0152,-0.537,0.01936536300102683,1.015900302858357,0.029058162602189786,0.024367700799700263
0.8729999999999999,0.017,0.463,0.019338268368539944,1.0172427829465702,0.029001821719825648,0.024507074471805293
0.874,0.0116,0.463,0.019352485447605212,1.027911725553157,0.029031384873323508,0.025614703345867015
0.8749999999999999,-0.0131,-0.537,0.019540319432436795,1.0283541868277,0.029421968965892588,0.025660638814957972
0.876,-0.0095,-0.537,0.019605230599128443,1.0296804298787277,0.029556945973182244,0.025798326789437755
0.8769999999999999,0.0134,-1.537,0.019578121467350565,1.0402218146857067,0.029500574940829968,0.026892712860799427
0.878,0.0282,-1.537,0.019555402424536652,1.0123195532326776,0.029453332708656344,0.02399595433686526
0.8789999999999999,0.0148,-0.537,0.019528472266732915,1.0123195532326759,0.02939733383679114,0.023995954336865077
0.88,0.0314,-1.537,0.019631698176767857,0.9941982448198105,0.02961198295067096,0.02211463533703508
0.8809999999999999,0.011,-1.537,0.019681295899831176,0.9937405757874632,0.029715117011706555,0.022067121028102654
0.882,0.003,0.463,0.019655549049992983,1.0028462972428096,0.0296615787236828,0.023012459322159867
0.8829999999999999,-0.0091,0.463,0.019678391990101938,1.0028462972428103,0.02970907858927989,0.023012459322159937
0.884,-0.0026,-0.537,0.019637934328880675,1.0028462972428103,0.029624950475244813,0.023012459322159937
0.8849999999999999,-0.0125,-1.537,0.019570865954768767,1.002392576716938,0.029485487746675906,0.022965354939491273
0.886,-0.0034,-0.537,0.019571328160377342,1.0114204080324052,0.029486448862196975,0.023902606830695255
0.8869999999999999,-0.0082,-0.537,0.019619163323762533,0.9803833973051826,0.029585917836889974,0.020680404733102998
0.888,-0.0039,-0.537,0.020302903560323063,0.970598487402512,0.03100769494548624,0.019664554415228064
0.8889999999999999,-0.0105,1.463,0.020881301911146923,0.9799192761014854,0.03221042295662092,0.020632220572288227
0.89,0.0082,-0.537,0.02099523418842104,0.9896120298575934,0.03244733501049306,0.02163850341823843
0.8909999999999999,0.0106,-0.537,0.020982070652835735,0.9987553922588227,0.03241996260711144,0.022587749522098757
0.892,0.0084,0.463,0.021739150776032487,0.9896120298575914,0.03399424349768631,0.021638503418238222
0.8929999999999999,-0.0029,1.463,0.02410850237200624,1.020814098525307,0.0389210997528005,0.024877841510232614
0.894,0.007,1.463,0.025383608935252662,1.0310049669058003,0.04157257062683342,0.02593583764782815
0.8949999999999999,0.0126,-1.537,0.02674907105112103,1.0506574417100973,0.04441192784934083,0.027976119364834587
0.896,0.0239,0.463,0.027145926723374292,1.0502243768759192,0.04523715398063392,0.02793115941590953
0.8969999999999999,0.0012,0.463,0.02713439053320375,1.0506574417100967,0.0452131654975407,0.027976119364834517
0.898,-0.015,-1.537,0.027109988479585644,1.0419696233065487,0.045162423593844224,0.02707416695294005
0.8989999999999999,-0.0236,-0.537,0.027106557656861156,1.0332087552698994,0.045155289502631646,0.02616463067019293
0.9,0.0008,0.463,0.02709165713501252,1.0327683738041078,0.045124305190552695,0.02611891112280205
0.9009999999999999,0.0106,-0.537,0.027031093564162077,1.0239287817044542,0.04499836862276613,0.025201201860924543
0.902,0.0078,-0.537,0.02675251257681238,1.0345287748900702,0.04441908419642262,0.026301672540183545
0.9029999999999999,0.0214,-1.537,0.025853066689019575,1.0349684073013732,0.0425487663398668,0.02634731432219406
0.904,0.0094,0.463,0.025532917989492063,1.0349684073013727,0.04188304554709204,0.026347314322194015
0.9049999999999999,0.0073,0.463,0.02539139253202541,1.0349684073013714,0.04158875592517085,0.026347314322193876
0.906,0.0015,0.463,0.02543687028516594,1.0336489491131664,0.04168332287458845,0.026210330738978164
0.9069999999999999,-0.0188,-1.537,0.025383959440539706,1.0336489491131657,0.0415732994714544,0.026210330738978094
0.908,-0.0214,1.463,0.025414509694222733,1.0336489491131646,0.041636826011250905,0.02621033073897798
0.9089999999999999,-0.0236,1.463,0.025027989116397233,1.0336489491131613,0.04083309079110631,0.026210330738977633
0.91,-0.0171,0.463,0.024149115152854096,1.0230398398547134,0.039005550424325096,0.025108913646764788
0.9109999999999999,-0.0113,-1.537,0.023347940008442137,1.0225950791459761,0.03733957785259041,0.025062739454887385
0.912,-0.0058,-0.537,0.023271933150123814,1.0327683738040965,0.037181528339815036,0.026118911122800875
0.9129999999999999,0.0055,0.463,0.023271721846713417,1.023928781704442,0.03718108895313599,0.025201201860923273
0.914,0.0012,0.463,0.02320442466198121,1.0243729633483771,0.03704115043319962,0.025247315935419
0.9149999999999999,0.0078,-0.537,0.02322540611185363,1.0257043541626962,0.03708477949514254,0.0253855383406731
0.916,0.0115,0.463,0.023229621197904636,1.0257043541626962,0.03709354439230324,0.0253855383406731
0.9169999999999999,0.0061,0.463,0.02326238321203997,1.025704354162696,0.03716167009156505,0.025385538340673076
0.918,0.0086,0.463,0.02327468917659453,1.0349684073013634,0.03718725925213703,0.026347314322193047
0.9189999999999999,0.0061,-1.537,0.023365374552374387,1.0345287748900598,0.03737583143858146,0.026301672540182463
0.92,0.0137,-1.537,0.023313373288383694,1.0345287748900598,0.03726769942761198,0.026301672540182463
0.9209999999999999,0.0072,-0.537,0.023304706572035153,1.0445858529158438,0.03724967776053409,0.027345778823327414
0.922,-0.0048,1.463,0.0235389069395832,1.0450212544002697,0.03773667662881726,0.027390981358737222
0.9229999999999999,-0.0159,1.463,0.02368291601843221,1.045456474552961,0.03803613072086765,0.027436165068638982
0.924,-0.0296,0.463,0.023628691487808943,1.045456474552961,0.037923375624352704,0.027436165068638982
0.9249999999999999,-0.0169,1.463,0.02362262385398351,1.0450212544002697,0.03791075851859374,0.027390981358737222
0.926,0.0045,1.463,0.023624038471853116,1.04502125440027,0.03791370009084131,0.027390981358737247
0.9269999999999999,0.0016,0.463,0.023611934495678548,1.045456474552961,0.037888530947169784,0.027436165068638982
0.928,0.0041,-1.537,0.023575926340183975,1.0362861854821277,0.037813655185195486,0.02648412349030329
0.9289999999999999,0.0208,1.463,0.023406053377094605,1.0274768582765665,0.0374604194424742,0.025569556270875843
0.93,0.014299999999998713,-0.537,0.0233692806992911,1.0279195067369218,0.03738395392424492,0.02561551117323381
0.9309999999999999,0.0085,-1.537,0.023173123793417905,1.0190378542542282,0.036976063056411095,0.024693435284181792
0.932,0.010299999999999667,0.463,0.02314785426571799,1.0190378542542284,0.036923517317389645,0.024693435284181813
0.9329999999999999,0.0088,-0.537,0.02320227247552994,1.0185913461082758,0.037036675152579544,0.024647079676770867
0.934,0.004399999999997979,-0.537,0.023254312780767332,1.018144642145838,0.03714488834635483,0.024600703740073216
0.9349999999999999,-0.0047,-1.537,0.023255612690574662,1.018144642145838,0.03714759139337251,0.024600703740073216
0.936,0.014100000000008992,0.463,0.02323156721435928,1.00872609283525,0.037097590960722376,0.023622888266425352
0.9369999999999999,0.0546,-0.537,0.023261085642275785,1.0194841668409835,0.037158971910459304,0.02473977058901717
0.9380000000000001,0.0487999999999941,-1.537,0.023291313494980825,1.0199302841252667,0.037221828046049975,0.024786085617929682
0.939,0.0222,-1.537,0.023347101033597415,1.0199302841252667,0.037337833278898336,0.024786085617929682
0.9400000000000001,0.007999999999985411,-1.5369999999997779,0.02334917249469674,1.0199302841252667,0.03734214069831713,0.024786085617929682
0.941,-0.0577,0.46300000000022207,0.023335133238738665,1.0203762063632411,0.03731294731218071,0.024832380397513724
0.9420000000000001,-0.10489999999999437,2.462999999999889,0.02345884514368184,1.0208219338105116,0.0375701952333998,0.024878654954305676
0.943,-0.0796,1.463000000000111,0.023735625809567895,1.0203762063632411,0.038145736051120836,0.024832380397513724
0.9440000000000001,-0.0871999999999922,2.462999999999667,0.023891848333584008,1.0100781081064212,0.03847058691789234,0.0237632518626825
0.945,-0.0521,-0.536999999999889,0.023914175868652562,0.999673930058924,0.038517015044473774,0.022683110330271185
0.9460000000000001,-0.020199999999996134,0.463,0.023884834042942147,1.001038171374415,0.038456001323342856,0.022824743210674237
0.947,-0.0028,0.463,0.023791140991142226,1.0114283160882065,0.03826117494168401,0.02390342782967015
0.9480000000000001,0.0022000000000010436,0.462999999999889,0.02380790235101507,1.0109784471236924,0.03829602870119951,0.023856723308611768
0.949,0.0069,-0.536999999999889,0.02376609206268362,1.0014925055061696,0.03820908791919655,0.022871911296712354
0.9500000000000001,0.011100000000000889,0.46300000000011104,0.02365939109953804,1.0019466336194847,0.03798721274094363,0.022919057994316705
0.951,0.0151,1.462999999999889,0.023660324279462824,1.0019466336194847,0.03798915320573467,0.022919057994316705
0.9520000000000001,0.018599999999999266,0.462999999999889,0.02367127237499433,1.0127767240089018,0.03801191879824641,0.02404341691781593
0.953,0.0153,-0.536999999999889,0.02367673853783038,1.0234922221331182,0.038023285198491116,0.025155879095183794
0.9540000000000001,0.018199999999999425,0.462999999999778,0.023579833241378148,1.024824757154194,0.03782177923931195,0.025294220289758293
0.955,0.0156,-1.5369999999997779,0.023568477797032337,1.0243807714125446,0.037798166601111766,0.025248126553456915
0.9560000000000001,0.022400000000004507,0.462999999999889,0.023604783852731914,1.034536506304222,0.03787366182011005,0.026302475200565893
0.957,0.0427,-0.536999999999778,0.02360719279982189,1.034536506304222,0.03787867101167902,0.026302475200565893
0.9580000000000001,0.012899999999998201,1.462999999999778,0.023538405074593496,1.0358548339344225,0.03773563304513473,0.02643934141144811
0.959,0.0048,-0.537,0.023444908443667544,1.0252685506307724,0.037541215103241925,0.025340294065473896
0.9600000000000001,0.008799999999999178,-0.537,0.02335941703693564,1.0150200898879427,0.03736344331422954,0.02427631880081757
0.961,0.0051,1.463,0.023299401027938205,1.0239365931557196,0.03723864535269506,0.02520201283060438
0.9620000000000001,0.0018000000000033085,0.463,0.02330820816932797,1.0150200898879413,0.037256959021177004,0.02427631880081743
0.963,0.0167,0.463,0.023304317121920482,1.0150200898879416,0.03724886793360221,0.024276318800817456
0.9640000000000001,0.014099999999998468,1.463,0.023309638027505818,1.0145718135448727,0.037259932284292294,0.02422977962262042
0.965,0.0072,-0.537,0.02343433849192738,1.014123339048727,0.03751923582716666,0.024183219872556283
0.9660000000000001,0.013699999999998713,-0.537,0.023523980376793943,1.014123339048727,0.037705638166914614,0.024183219872556283
0.967,0.0079,-1.537,0.023551100668754276,1.0136746661365008,0.03776203240587533,0.024136639523320527
0.9680000000000001,0.020499999999998225,-0.537,0.023543056642142478,1.013225794544609,0.037745305566812694,0.024090038547548247
0.969,0.0125,-0.537,0.02353490830015279,1.0127767240088812,0.03772836181318452,0.024043416917813785
0.9700000000000001,-0.010400000000005061,1.463,0.02352974606553072,1.0141233390487203,0.03771762740467321,0.024183219872555593
0.971,-0.0332,0.463,0.02352435230878909,1.0046670915481,0.03770641156647248,0.023201490646128343
0.9719999999999999,-0.0303,0.463,0.023636513173210267,1.0154681683403424,0.037939640124611144,0.02432283743439016
0.973,-0.006,0.463,0.023671027385621473,1.004667091548093,0.0380114093645996,0.02320149064612763
0.9739999999999999,0.0103,-0.537,0.023627239839343377,0.9942062898630819,0.03792035705026899,0.02211547055778273
0.975,0.0132,-0.537,0.023491792445360163,1.0046670915480944,0.03763870622165449,0.023201490646127764
0.9759999999999999,-0.0057,0.463,0.023432230675961042,0.9937486245358641,0.03751485281103008,0.02206795663350964
0.977,-0.0035,-0.537,0.023431307343073686,0.9827088544905538,0.037512932822279,0.020921829175889032
0.9779999999999999,-0.0013,0.463,0.023431959894755668,0.9822458320897798,0.03751428974555777,0.020873759090656963
0.979,-0.0071,0.463,0.023428319323184028,0.9729473319407013,0.037506719500242376,0.019908406887503474
0.9799999999999999,-0.0089,0.463,0.023340211773701016,0.9715436462770735,0.03732350767468182,0.019762678971582286
0.981,0.0023,-1.537,0.02331556749128899,0.9715436462770735,0.03727226207771732,0.019762678971582286
0.9819999999999999,0.0161,-0.537,0.023523664046748827,0.9621417217302951,0.0377049803866746,0.018786589448583805
0.983,0.0179,-0.537,0.02430682116129847,0.9616687967578774,0.03933348606523783,0.01873749129762072
0.9839999999999999,-0.0036,-0.537,0.024803445533156828,0.9616687967578774,0.040366172348308,0.01873749129762072
0.985,-0.0066,-0.537,0.025004715472069925,0.962141721730295,0.04078469531433192,0.018786589448583794
0.9859999999999999,0.0121,1.463,0.025004007925848,0.9521693708214569,0.040783224034790636,0.017751279369955623
0.987,0.0143,0.463,0.025245700098108777,0.9521693708214569,0.041285801445732365,0.017751279369955623
0.9879999999999999,0.0165,-0.537,0.02535037802844567,0.9621417217302951,0.041503469906896635,0.018786589448583805
0.989,0.0108,1.463,0.02610583702379606,0.95264701162966,0.04307437980606451,0.017800867109819304
0.9899999999999999,-0.0018,0.463,0.027087641725545127,0.9430567134800044,0.04511595550311716,0.01680522100569074
0.991,-0.0264,0.463,0.027275027796321086,0.9445027363374293,0.0455056081981805,0.01695534428674094
0.9919999999999999,-0.0372,-0.537,0.026661852355831118,0.9540784993259747,0.04423056431714822,0.017949481378708828
0.993,-0.0275,0.463,0.02453032387027374,0.9206173628424198,0.03979824010242716,0.014475611259169132
0.9939999999999999,-0.0126,0.463,0.02325513383123082,0.9091900300435193,0.037146595647887734,0.013289247790144511
0.995,-0.0046,1.463,0.021571953304337064,0.886406618146638,0.033646571201746064,0.010923918272761287
0.9959999999999999,-0.0114,1.463,0.02094191455863803,0.8864066181466386,0.03233646157492394,0.010923918272761344
0.997,-0.0091,-0.537,0.02085259298292543,0.8864066181466386,0.032150725289619514,0.010923918272761344
0.9979999999999999,0.0048,-0.537,0.0208781341939573,0.8864066181466386,0.0322038359700054,0.010923918272761344
0.999,0.0068,0.463,0.020920994336253947,0.8864066181466392,0.03229295983010626,0.010923918272761414
0.9999999999999999,0.0022,0.463,0.02090935840968231,0.8869196754670378,0.03226876395402314,0.010977182886048516
1.001,0.0128,1.463,0.020914362439890907,0.8869196754670371,0.03227916939050454,0.010977182886048448
1.0019999999999998,0.0093,1.463,0.020989806927635166,0.87453237484828,0.03243604950360735,0.00969115742476727
1.0030000000000001,-0.0019,1.462999999999556,0.02101759654683314,0.8848656613209648,0.03249383554912522,0.01076393913174084
1.004,-0.0061,-0.537,0.020980058298516034,0.8853796115911988,0.03241577809499244,0.010817296449343393
1.005,-0.0151,1.462999999999778,0.02090446875659782,0.8853796115912002,0.03225859635461511,0.010817296449343532
1.0059999999999998,-0.0038,0.463,0.020847320624073802,0.8853796115912039,0.03213976188755141,0.010817296449343924
1.0070000000000001,-0.0052,1.462999999999556,0.02072923672129203,0.8848656613209711,0.03189421689708343,0.010763939131741498
1.008,-0.004,-0.537,0.02028306673112248,0.8848656613209722,0.030966446020592783,0.010763939131741614
1.009,0.0123,0.46299999999955593,0.02024432759116608,0.8848656613209761,0.03088589141893034,0.010763939131742017
1.0099999999999998,-0.0032,-1.537,0.020240222547605956,0.8848656613209761,0.03087735534535811,0.010763939131742017
1.0110000000000001,-0.013,0.462999999999778,0.020221149694302252,0.8848656613209761,0.03083769504050428,0.010763939131742017
1.012,-0.0039,-0.537,0.0202205150259035,0.8724491976683932,0.030836375303925027,0.009474886021000934
1.013,0.0074,-0.537,0.020233096772796992,0.8719276257097434,0.030862537929382473,0.009420737434528563
1.0139999999999998,0.0241,-0.537,0.02020386200334978,0.8714057415690108,0.03080174682224473,0.009366556437919456
1.0150000000000001,0.0219,-0.537,0.02015460159480416,0.8587946962846548,0.030699314176796545,0.008057302240560756
1.016,0.0161,-0.537,0.02016166020916663,0.8593242393899087,0.030713991938587273,0.008112278375972469
1.017,-0.0006,-0.537,0.0201145338639467,0.8703610344946817,0.03061599688832878,0.009258096981051716
1.0179999999999998,0.006,-0.537,0.020098970146208577,0.8593242393899088,0.030583633519286717,0.00811227837597248
1.0190000000000001,-0.0038,1.462999999999556,0.019998150714802848,0.8719276257097435,0.0303739884640309,0.009420737434528573
1.02,-0.0129,-0.537,0.019959444886828243,0.8843514123631036,0.030293503131676634,0.010710550804969677
1.021,-0.0242,1.462999999999556,0.019942613310026457,0.8724491976683932,0.030258503362292376,0.009474886021000934
1.0219999999999998,-0.0137,-0.537,0.019673524687346858,0.8719276257097435,0.02969895746539724,0.009420737434528573
1.0230000000000001,0.0065,0.46300000000022207,0.01944099799952995,0.8719276257097435,0.02921543886549907,0.009420737434528573
1.024,0.0152,1.463,0.019431977323726708,0.8838368641962289,0.029196681171165282,0.010657131414900593
1.025,0.0018,-0.537,0.019415548942798937,0.8843514123631034,0.02916251981179889,0.010710550804969665
1.0259999999999998,0.004,-0.537,0.019443015400621298,0.8848656613209762,0.02921963387193158,0.010763939131742029
1.0270000000000001,-0.0025,-0.537,0.019479813501457357,0.8843514123631034,0.029296152255099593,0.010710550804969665
1.028,-0.0007,0.463,0.019529399221982633,0.8950796626626164,0.0293992613579231,0.011824336888378317
1.029,0.0048,-1.537,0.019540584865018674,0.9051784169098587,0.02942252090937728,0.01287276991578942
1.0299999999999998,0.0095,-0.537,0.019527973208985108,0.9046757144983197,0.02939629609051886,0.01282058032900345
1.0310000000000001,0.0323,0.463,0.01951229151879162,0.9046757144983197,0.02936368740823133,0.01282058032900345
1.032,0.062,-0.537,0.019545755404371153,0.8940626188581188,0.02943327258683805,0.011718749378389117
1.033,0.0501,-0.537,0.019478850541925795,0.9046757144983196,0.02929414986626057,0.012820580329003437
1.0339999999999998,0.0319,0.463,0.01941957462929127,0.9046757144983196,0.029170890869395234,0.012820580329003437
1.0350000000000001,-0.0043,-0.537,0.019446519671984987,0.91665576116437,0.029226920693067433,0.014064325476880798
1.036,-0.0377,0.463,0.019448993507343238,0.9284812440478353,0.029232064814028475,0.015292024113422563
1.037,-0.0594,-1.537,0.019432992016224074,0.9171518971861876,0.029198791134113018,0.014115833353855228
1.0379999999999998,-0.0793,0.463,0.019446308104588618,0.9171518971861876,0.029226480757453002,0.014115833353855228
1.0390000000000001,-0.0757,0.463,0.01939868695884397,0.9289710644498076,0.02912745681343962,0.01534287631502632
1.04,-0.033,1.463,0.01937299223384839,0.9176477649668285,0.029074026914397606,0.014167313382552327
1.041,-0.0037,-1.537,0.01937252548610084,0.9289710644498076,0.029073056353901866,0.01534287631502632
1.0419999999999998,-0.0088,-0.537,0.019325191147199376,0.9289710644498076,0.028974628799251608,0.01534287631502632
1.0430000000000001,0.0151,0.463,0.019069160089135218,0.9294606267192823,0.02844223494851605,0.015393701717816153
1.044,-0.0068,1.463,0.018871315466836923,0.9294606267192823,0.02803083462423853,0.015393701717816153
1.045,0.0052,-0.537,0.018892775807245153,0.9289710644498075,0.028075459496527153,0.015342876315026307
1.0459999999999998,-0.0057,0.463,0.018891644934962603,0.9171518971861875,0.028073107948032413,0.014115833353855217
1.0470000000000002,0.0106,0.463,0.018945084229294862,0.9051784169098586,0.02818423021540598,0.012872769915789407
1.048,0.0135,0.463,0.018985151298959856,0.9056808402941018,0.028267546128982725,0.012924930534504145
1.049,0.0,0.463,0.019032855199442814,0.9061829851151605,0.028366742154126143,0.012977062233330776
1.0499999999999998,0.012,0.463,0.019200340108610284,0.9715436462770991,0.028715012150766238,0.019762678971584947
1.0510000000000002,0.0233,-0.537,0.01933181786904536,0.9710753001621494,0.028988408478904586,0.019714056188699914
1.052,0.0215,-1.537,0.019288902556807028,0.9597747665531862,0.028899169897808854,0.018540856764994604
1.053,0.0088,0.463,0.01928746741950519,0.9583517873949238,0.028896185657223995,0.018393125835979535
1.0539999999999998,0.0041,0.463,0.019311098447621126,0.9468994203875476,0.028945324281852616,0.017204163364113734
1.0550000000000002,0.002600000000000244,-1.537,0.01933787950530289,0.9473797181524768,0.029001013113253656,0.017254026944057865
1.056,0.0037,-0.537,0.019283136675508905,0.9357930830551634,0.02888718025963604,0.016051125020199158
1.057,0.00010000000000071055,-0.537,0.019288638345008314,0.9353068353527066,0.028898620492834353,0.01600064372931146
1.0579999999999998,0.0033,1.463,0.01931137285679201,0.933846573130903,0.028945894891357057,0.015849042145142034
1.0590000000000002,0.002599999999999689,-0.537,0.019311905811626943,0.9454570631293187,0.028947003123612095,0.017054420638443753
1.06,0.0012,-0.537,0.019322819984255328,0.9564511886434739,0.028969698176459013,0.018195809369602457
1.061,-0.004999999999997269,-0.537,0.019385423820154887,0.9578769912502816,0.029099877294248042,0.01834383342355488
1.0619999999999998,0.0073,-0.537,0.019419310072647442,0.9578769912502828,0.029170340747345938,0.018343833423555004
1.0630000000000002,0.012699999999997491,-0.537,0.01950613331470355,0.9578769912502827,0.02935088196965348,0.018343833423554994
1.064,0.0014,-0.537,0.019502556129883237,0.9583517873949455,0.029343443531458995,0.018393125835981794
1.065,-0.009099999999998002,0.463,0.019437724785308596,0.9682604661797848,0.029208632507173777,0.019421825598516372
1.0659999999999998,-0.0001,-1.537,0.019367611821823304,0.979463101111767,0.02906283882534998,0.02058486137195614
