time_sec,bts_raw,diy_raw,bts_rms,diy_rms,bts_norm_rms,diy_norm_rms
0.0,-0.0485,0.436,0.08140660316763866,1.6319970611800574,0.21501975242908303,0.07054985951544639
0.001000000000000112,0.017600000000017164,0.436,0.08055985551375558,1.6328878613793276,0.2126914411167745,0.0706227354430074
0.0020000000000000018,0.0949,-0.564,0.08099258823393342,1.6394082598049504,0.21388133102432327,0.07115616604138836
0.0030000000000001137,0.08479999999998535,-2.564,0.08181990081372272,1.6402950351861416,0.21615620150020246,0.0712287127005556
0.0040000000000000036,0.0188,-1.564,0.08229693425713762,1.6467861053983446,0.21746790559239446,0.07175974397217572
0.0050000000000001155,-0.02360000000000857,-1.564,0.08199482052351063,1.6532516902788243,0.2166371801449938,0.07228869030130249
0.006000000000000005,-0.0622,2.436,0.08210525050414977,1.659692087673654,0.21694083067412254,0.07281557605457716
0.007000000000000117,0.00179999999999436,0.436,0.08234285600884947,1.66610758967219,0.2175941771368167,0.07334042512768672
0.008000000000000007,-0.0236,-0.564,0.08233055249727378,1.6724984827616487,0.21756034603607327,0.07386326095800994
0.009000000000000119,-0.03110000000000779,-0.5640000000000017,0.0810734874352169,1.67956702093458,0.21410378044551892,0.0744415346003764
0.010000000000000009,-0.0662,-1.564,0.0800652347250599,1.6986540035020485,0.21133137690833895,0.07600303128626014
0.01100000000000012,0.004399999999997891,2.436,0.07994385906322556,1.71752888459438,0.21099762891955876,0.07754717605445198
0.01200000000000001,-0.0051,0.436,0.0799511409370362,1.724412848591386,0.21101765196785463,0.07811034977397897
0.013000000000000123,-0.030500000000005172,0.436,0.07997931875563538,1.7252559324710837,0.2110951328247543,0.0781793220528301
0.014000000000000012,-0.0538,0.436,0.08003120037956706,1.7314285162845766,0.2112377922951964,0.07868429810831916
0.015000000000000124,0.05230000000003051,1.436,0.0801718641172952,1.7488269035695667,0.21162457691784298,0.0801076516420274
0.016000000000000014,0.1897,-0.564,0.08041527295530594,1.7549165829535776,0.2122938808698024,0.08060584532678691
0.017000000000000126,0.06009999999998886,1.436,0.080380331450949,1.7616544542266241,0.21219780183198012,0.08115706727219309
0.018000000000000016,0.0099,-1.5639999999999932,0.08034450899779048,1.7683666528940054,0.21209930043957456,0.08170618895431653
0.019000000000000128,-0.035800000000003065,0.436,0.08047311642597044,1.775053470191417,0.2124529336956044,0.08225323419900671
0.020000000000000018,-0.0496,1.436,0.07995033017344136,1.7758725129294055,0.2110154226023042,0.0823202396838415
0.020999999999999908,-0.0374,1.436,0.07966925929306733,1.7764700108604077,0.21024255891932345,0.08236912069663566
0.02200000000000002,0.0193,0.436,0.07929398704369077,1.7770673078965111,0.20921066869865146,0.08241798527431665
0.02299999999999991,0.0293,0.436,0.07944748961383279,1.7830605405513564,0.20963275639962245,0.082908288699449
0.02400000000000002,0.0088,-1.564,0.07888660009207166,1.7890336960907243,0.20809047232893982,0.08339694962560754
0.02499999999999991,0.0182,-1.564,0.07875865933671772,1.7949869749457181,0.20773867223049278,0.08388398444996258
0.026000000000000023,0.0097,-0.5639999999999965,0.078770641014937,1.8117751162520388,0.20777161838252575,0.08525741405934711
0.026999999999999913,-0.1074,0.436,0.07879248123724339,1.8176539126981328,0.20783167268137867,0.08573835551434728
0.028000000000000025,-0.1912,5.436,0.07841919183536408,1.834234602768179,0.20680523471822077,0.08709481363980134
0.028999999999999915,-0.176,8.436,0.07791189180583605,1.8350272308965199,0.20541030626218318,0.08715965815837139
0.030000000000000027,0.032,4.436,0.07790545919129732,1.8358195168020628,0.20539261843142326,0.08722447467986212
0.030999999999999917,0.121,-1.564,0.07790092631706662,1.8363975102301613,0.20538015433742757,0.0872717600388364
0.03200000000000003,-0.0684,-1.564,0.07772907999948116,1.8687217033023964,0.204907626632889,0.08991618642617898
0.03299999999999992,-0.0932,-0.564,0.07777954926614353,1.900496196577958,0.20504640252905482,0.09251564214266239
0.03400000000000003,-0.1155,0.436,0.07782347225275006,1.906101379172689,0.20516717804714144,0.09297419938262987
0.03499999999999992,0.0675,0.436,0.07759028465566205,1.9116901271285494,0.20452597955346952,0.0934314121128489
0.03600000000000003,0.1906,-0.564,0.07788968335297486,1.9284810571958562,0.2053492394357344,0.09480506986940244
0.03699999999999992,-0.0107,-0.564,0.07608447508021336,1.934614532906824,0.2003854384458306,0.09530684651019784
0.038000000000000034,-0.0916,0.436,0.0750529205955589,1.9351630185187152,0.1975489617637054,0.09535171784919529
0.038999999999999924,0.1302,2.436,0.07460965547945589,1.935711348716704,0.19633011081154567,0.09539657647385755
0.040000000000000036,0.2195,-1.564,0.07399731430786052,1.9512891270121784,0.19464634957491328,0.09667098687874122
0.040999999999999925,0.0845,0.436,0.0700034207078418,1.9567488167040479,0.18366429653179459,0.09711764141565783
0.04200000000000004,-0.0387,-1.564,0.06999173811729724,1.9621933151831483,0.18363217278442168,0.09756305316690574
0.04299999999999993,0.0278,-4.564000000000007,0.07010397149846279,1.9629342745718827,0.18394078214376033,0.09762367069122073
0.04400000000000004,0.048,-5.564,0.07065384174417276,1.9782977020495052,0.1854527663902088,0.09888054516078779
0.04499999999999993,0.0295,-4.564,0.07065853900665044,1.9842771986054257,0.18546568250437043,0.09936972484240163
0.04600000000000004,-0.0542,-2.564,0.0740999748188057,1.9902387303729268,0.1949286363079971,0.09985743483348265
0.04699999999999993,-0.1003,-0.564,0.07478173881242203,1.996182458305724,0.19680329023987644,0.1003436883015754
0.04800000000000004,-0.1143,1.436,0.07475470211902054,2.002108540968378,0.19672894714745046,0.10082849821876885
0.04899999999999993,-0.0517,1.436,0.07489432968694908,2.0080171345856512,0.19711288260263277,0.10131187736573424
0.050000000000000044,-0.0176,-0.564,0.07532645761084239,2.023038221199708,0.1983011094952037,0.10254074509709579
0.050999999999999934,0.1383,1.4359999999999862,0.07597531434803818,2.037427780013812,0.20008527798312628,0.10371794784876848
0.052000000000000046,0.1164,-0.5639999999999861,0.07601197824418167,2.051716421221301,0.20018609310053784,0.10488689458052185
0.052999999999999936,-0.1072,1.436,0.07783487854617367,2.0813211673366134,0.20519854205729005,0.10730884434560835
0.05400000000000005,-0.0182,1.436,0.07805670992841245,2.071499929706011,0.20580851424241864,0.1065053737102026
0.05499999999999994,-0.0453,1.436,0.07806534319388916,2.071499929706011,0.20583225322720286,0.1065053737102026
0.05600000000000005,0.0778,1.436,0.07820284002709638,2.0664767397530936,0.20621032977774878,0.1060944290029227
0.05699999999999994,0.011,1.436,0.07796848192639452,2.057539668455097,0.20556591273745,0.10536329158169856
0.05800000000000005,0.0312,-1.564,0.07804622507816442,2.087250070928744,0.20577968393467774,0.10779388504165922
0.05899999999999994,0.0125,-2.564,0.07803798381017964,2.0872500709287434,0.20575702282969713,0.1077938850416592
0.06000000000000005,-0.0042,-2.564,0.0779770227750785,2.0922233870749745,0.20558939760276543,0.10820074959726621
0.06099999999999994,0.0109,-1.564,0.0777200557104108,2.0872500709287434,0.20488281244624,0.1077938850416592
0.062000000000000055,0.0247,-0.564,0.077721086941127,2.0732063438680943,0.20488564803265247,0.10664497461618234
0.06299999999999994,-0.0381,1.436,0.07772184568666582,2.0732063438680943,0.20488773436358362,0.10664497461618234
0.06400000000000006,-0.0494,2.436,0.07771242751467256,2.0733958587511325,0.2048618371127408,0.10666047873584839
0.06499999999999995,0.0648,1.436,0.07762046874740945,2.0733958587511325,0.20460897708165274,0.10666047873584839
0.06600000000000006,-0.0112,-1.564,0.07749864524659923,2.068757170360451,0.20427399766512797,0.10628098991286165
0.06699999999999995,-0.0248,-1.564,0.07533863595173353,2.0732063438680948,0.19833459641274276,0.10664497461618237
0.06800000000000006,-0.0621,-1.564,0.07509876124712771,2.0732063438680948,0.19767501030617468,0.10664497461618237
0.06899999999999995,-0.0052,-0.564,0.07509514829682219,2.072637695247438,0.19766507573708722,0.10659845375132336
0.07000000000000006,0.0882,0.436,0.07500963298785741,2.0772677181647,0.19742993335396378,0.10697723365617813
0.07099999999999995,0.0255,0.4360000000000139,0.0749573376093959,2.0772677181647,0.19728613617815227,0.10697723365617813
0.07200000000000006,-0.0544,1.436,0.07486488874117164,2.0778350996706836,0.19703192851107515,0.10702365085900697
0.07299999999999995,-0.0025,1.436,0.07486189579120316,2.0780241924132916,0.19702369876371553,0.1070391204435714
0.07400000000000007,0.0634,1.436,0.07480623216702634,2.0832081580864115,0.19687063988571257,0.107463218133696
0.07499999999999996,-0.0138,2.436,0.0748163853661576,2.078024192413291,0.19689855824873967,0.10703912044357136
0.07600000000000007,-0.024,1.436,0.07494517054369607,2.0728272621210007,0.19725268026413043,0.10661396212430871
0.07699999999999996,-0.0145,2.436,0.07502887908346996,2.0726376952474377,0.19748285455419026,0.10659845375132332
0.07800000000000007,-0.0062,-0.564,0.074680465300785,2.0772677181646997,0.19652481735400498,0.10697723365617809
0.07899999999999996,-0.0138,-0.564,0.07229445751718255,2.004736987010103,0.1899639855780425,0.10104353010076852
0.08000000000000007,-0.0068,0.436,0.0701242942694748,1.8233132717408664,0.18399666389014335,0.08620134490296423
0.08099999999999996,0.0122,3.436,0.07016934267478196,1.7685063353666897,0.18412053398437644,0.08171761630892334
0.08200000000000007,0.0534,3.436,0.06936222418905241,1.7623969395596584,0.18190119143045314,0.0812178096332631
0.08299999999999996,-0.0264,1.436,0.06905805649558831,1.7562662915703822,0.1810648181871574,0.08071626432699291
0.08400000000000007,-0.0151,1.436,0.06843397352700425,1.7560425518975753,0.17934877040254316,0.08069796029405561
0.08499999999999996,-0.0875,-2.564,0.06757730728261775,1.7560425518975753,0.17699318583312504,0.08069796029405561
0.08600000000000008,-0.0403,-1.5639999999999723,0.0673141812977065,1.7562662915703822,0.17626966542604544,0.08071626432699291
0.08699999999999997,-0.0147,0.436,0.06456998802935021,1.7562662915703822,0.16872392709352785,0.08071626432699291
0.08800000000000008,-0.0222,0.436,0.06470459242994231,1.7562662915703824,0.16909405029038332,0.08071626432699293
0.08899999999999997,-0.0433,2.436,0.06415458806716184,1.7562662915703822,0.16758169726075495,0.08071626432699291
0.09000000000000008,0.0148,1.436,0.06299962904358496,1.7395525207849432,0.1644058937642646,0.07934891893345934
0.09099999999999997,0.1165,1.436,0.05906864113730803,1.7501141680597627,0.15359681319727383,0.08021296211885065
0.09200000000000008,-0.064,-0.564,0.05882317692757226,1.7555949870092704,0.15292185756713564,0.08066134522997538
0.09299999999999997,-0.0886,2.436,0.05873089126706187,1.7494405027748765,0.15266809867409964,0.08015784989217854
0.09400000000000008,-0.0666,-1.564,0.059950461548125576,1.6903841875217236,0.15602156445405682,0.07532648169543299
0.09499999999999997,0.2381,-1.564,0.060004159813318546,1.617108893343047,0.15616921916290283,0.06933186580406764
0.09600000000000009,0.1074,-1.564,0.06029924025612727,1.5597062686399876,0.15698060509338857,0.06463578522045425
0.09699999999999998,-0.0118,-1.564,0.06006925127726706,1.5458137899207454,0.156348201875345,0.06349924834763389
0.09800000000000009,-0.0478,-1.564,0.05927101370660106,1.583160415682316,0.15415327927099143,0.06655455749089402
0.09899999999999998,-0.0806,2.436,0.059535438024298636,1.583160415682316,0.1548803697179757,0.06655455749089402
0.10000000000000009,-0.1103,2.436,0.059388290895614704,1.5770804496330673,0.1544757576440982,0.06605715844928915
0.10099999999999998,-0.0294,2.436,0.059365984923422835,1.5770804496330673,0.15441442266767613,0.06605715844928915
0.10200000000000009,0.1925,-3.5639999999999725,0.05837428736760833,1.570976953187497,0.15168754101999404,0.06555783439749771
0.10299999999999998,0.1032,-1.564,0.05747090214484704,1.570976953187497,0.14920349276325343,0.06555783439749771
0.10400000000000009,0.0221,-1.5639999999999863,0.056471165818738574,1.5651007229916991,0.14645450682071245,0.06507710288617609
0.10499999999999998,-0.052,-0.564,0.056471814929794494,1.5658536973815402,0.14645629168850338,0.0651387033518409
0.1060000000000001,0.0146,-1.564,0.05634928717675306,1.5599581684347528,0.14611937578189313,0.06465639301916262
0.10699999999999998,0.0349,-3.564,0.05581771411854277,1.573725788881927,0.14465770351262414,0.06578271529796056
0.1080000000000001,-0.0207,-0.564,0.05595859733997986,1.574474638438595,0.14504509165203286,0.06584397831304581
0.10899999999999999,-0.0042,-1.564,0.055984196847877636,1.5873740044229583,0.14511548289971402,0.06689926911992877
0.1100000000000001,-0.0196,-0.564,0.05607123448430518,1.5676092310979408,0.14535481124336103,0.06528232270447702
0.11099999999999999,-0.0059,0.436,0.05608582242444028,1.5478459276557888,0.1453949238623734,0.06366549653942183
0.1120000000000001,0.0062,0.436,0.05608796935439893,1.540861878981287,0.1454008272992315,0.0630941349414984
0.11299999999999999,-0.028,-0.564,0.056035351558069185,1.540861878981287,0.145256143567471,0.0630941349414984
0.1140000000000001,-0.0383,0.436,0.05596282892989672,1.554798604779242,0.1450567273012458,0.0642342916461348
0.11499999999999999,-0.029,0.436,0.05591929985132218,1.535894002555627,0.14493703491639573,0.06268771540676432
0.1160000000000001,-0.0544,1.436,0.055607176531135796,1.535894002555627,0.1440787859990322,0.06268771540676432
0.11699999999999999,-0.0001,1.436,0.05560532783811688,1.5478459276557888,0.14407370262755878,0.06366549653942183
0.1180000000000001,0.006599999999998579,1.436,0.05565549145551966,1.5470841888101334,0.14421163807660267,0.0636031790579239
0.119,0.0002,1.436,0.055388787724954994,1.5400966857971745,0.14347827990305365,0.06303153486226488
0.1200000000000001,0.040999999999991786,1.436,0.05546604449104836,1.5400966857971745,0.14369071368025121,0.06303153486226488
0.121,0.004,-1.564,0.05489193698870517,1.5403517924275851,0.14211208398336703,0.06305240501062516
0.12200000000000011,0.01809999999999707,-0.564,0.05485204876639047,1.5406068568152966,0.14200240290091315,0.06307327170313094
0.123,0.0049,-1.564,0.05458529957722377,1.534614340128873,0.14126891972934746,0.06258302685102414
0.12400000000000011,-0.015100000000007194,0.436,0.05464411381554573,1.5353822655688965,0.14143064188562607,0.06264585045477418
0.125,-0.0475,0.436,0.0543441580157349,1.5361498071209645,0.14060585013251123,0.06270864265283879
0.1260000000000001,-0.03670000000000951,0.436,0.05454021330071853,1.5233325548773684,0.1411449455002656,0.06166006953082929
0.127,-0.0795,1.436,0.054603902556926855,1.5361498071209647,0.14132007254670303,0.0627086426528388
0.1280000000000001,-0.03869999999998943,0.436,0.05502995805581291,1.517012826439066,0.1424916020256198,0.06114305564572659
0.129,0.0089,1.436,0.055027014290082256,1.517012826439066,0.1424835075206985,0.06114305564572659
0.13000000000000012,0.040700000000003865,0.436,0.055095392830063684,1.5167537943744234,0.14267152874216607,0.061121864359516345
0.131,0.0581,0.436,0.05509354821147706,1.5167537943744231,0.14266645657420382,0.061121864359516324
0.13200000000000012,-0.021699999999997513,0.436,0.055110068757039055,1.4774639086094494,0.1427118832995583,0.057907578068118803
0.133,-0.0105,0.436,0.054863012631555796,1.443769817840219,0.14203255036122672,0.055151081021818114
0.13400000000000012,0.04119999999999789,0.436,0.054801857795312825,1.4373736370788377,0.14186439223716943,0.05462781260964735
0.135,0.0317,-0.564,0.05479417645595702,1.4373736370788377,0.14184327077408207,0.05462781260964735
0.13600000000000012,-0.011199999999987944,-0.564,0.05409488205559127,1.4157935184575394,0.13992041329046345,0.05286235368553389
0.137,0.0431,-0.564,0.05394476777174283,1.4084336846564507,0.1395076423974818,0.05226024929064422
0.13800000000000012,0.03619999999998142,0.436,0.05397727846421281,1.416071018606699,0.13959703740519364,0.052885055836683924
0.139,-0.0475,0.436,0.0540027238681922,1.416071018606699,0.13966700491163994,0.052885055836683924
0.14000000000000012,-0.013500000000011458,2.436,0.054165632562272165,1.4021565435318724,0.1401149567347839,0.05174671945279758
0.14100000000000001,-0.0651,1.4359999999999722,0.05539998218064812,1.416071018606699,0.143509061420671,0.052885055836683924
0.14200000000000013,0.020400000000022893,0.43599999999997224,0.05497193803502826,1.4298500924594788,0.14233206373801574,0.054012315112979103
0.14300000000000002,0.1235,-0.5640000000000555,0.05459812385453886,1.4295752670198747,0.14130418278535709,0.053989831778506435
0.14400000000000013,0.05430000000000271,-2.5639999999999725,0.056261912573427234,1.4166258558280944,0.14587912087666952,0.05293044679774084
0.14500000000000002,0.0665,-1.564,0.056680968816491296,1.4166258558280946,0.147031404425074,0.05293044679774086
0.14600000000000013,-0.013100000000002244,1.436,0.0515568672833061,1.4157935184575399,0.1329416062302744,0.05286235368553392
0.14700000000000002,-0.0232,3.436,0.05046818237062727,1.4149606914724093,0.12994803738351648,0.05279422051819859
0.1479999999999999,-0.1273,1.436,0.05059147876922003,1.4141273740076519,0.13028706684323088,0.052726047224965454
0.14900000000000002,-0.0304,0.436,0.0508404069327325,1.4141273740076519,0.1309715473450668,0.052726047224965454
0.1499999999999999,0.0068,-0.564,0.051398232922073794,1.4368268117300638,0.1325054075870491,0.054583077095961545
0.15100000000000002,0.0863,0.436,0.050250873289406466,1.43819348526669,0.12935050021910452,0.05469488398794059
0.1519999999999999,0.0555,-0.564,0.050281948286801194,1.4395588613254817,0.129435947480319,0.054806584733894124
0.15300000000000002,-0.0103,-0.564,0.04690529517589827,1.3964140455919292,0.12015112738096188,0.05127692851176122
0.15399999999999991,-0.0184,-1.564,0.046359538447877505,1.3889515268341746,0.11865045411922683,0.05066642351091108
0.15500000000000003,-0.0259,-0.564,0.046330701141549746,1.3814486965007247,0.11857115986168561,0.05005262063981725
0.15599999999999992,0.0093,-2.564,0.04604507398423429,1.3814486965007249,0.1177857677340188,0.05005262063981726
0.15700000000000003,0.0412,-1.564,0.04610072331041351,1.3814486965007235,0.11793878729666091,0.05005262063981716
0.15799999999999992,0.0355,-2.564,0.04601535368946129,1.357823789773527,0.11770404551346372,0.04811987860327833
0.15900000000000003,-0.0336,0.436,0.04630573646510049,1.3575343830796733,0.11850251421700225,0.0480962023835444
0.15999999999999992,0.0135,-0.564,0.04637109443501881,1.3498569399799651,0.11868222974383304,0.04746811452765208
0.16100000000000003,-0.0119,0.436,0.04663365989769795,1.3575343830796733,0.11940420887678237,0.0480962023835444
0.16199999999999992,-0.0043,-0.564,0.04664142540326703,1.3645928910895275,0.11942556177262963,0.0486736554631871
0.16300000000000003,-0.0253,-2.564,0.04663816545261933,1.3645928910895275,0.11941659785057351,0.0486736554631871
0.16399999999999992,-0.0442,0.436,0.04658993366294385,1.3645928910895275,0.11928397436942265,0.0486736554631871
0.16500000000000004,-0.0267,1.436,0.04643203297771878,1.3645928910895275,0.1188497931231625,0.0486736554631871
0.16599999999999993,0.0103,2.436,0.046372480354132606,1.3648808011117706,0.11868604062082314,0.048697209240950355
0.16700000000000004,0.0343,1.436,0.04609481127541309,1.3657441670158472,0.11792253090916799,0.04876784078227205
0.16799999999999993,0.03,0.436,0.04609656951441239,1.3586916399865143,0.11792736555823144,0.048190877003713446
0.16900000000000004,-0.0297,-0.564,0.04612332815854868,1.3516023140704805,0.1180009440955428,0.047610902726275585
0.16999999999999993,-0.0379,-0.564,0.046141439852121297,1.344475607153998,0.11805074601803625,0.04702787032751817
0.17100000000000004,-0.0145,-0.564,0.045959619963483404,1.3444756071539978,0.1175507938757694,0.04702787032751815
0.17199999999999993,0.0066,-0.5640000000000277,0.04597338049261199,1.3435985746262944,0.11758863135366084,0.04695612072641801
0.17300000000000004,0.0255,-1.564,0.045985039985421,1.3433061032044693,0.11762069158893697,0.046932193782791315
0.17399999999999993,-0.0273,-1.5639999999999168,0.04610967581257271,1.3352526357373382,0.11796340409005283,0.04627334355775725
0.17500000000000004,-0.0482,1.4360000000000277,0.04616640146899409,1.3352526357373382,0.11811938324976866,0.04627334355775725
0.17599999999999993,0.0357,2.436,0.04592663162069317,1.3355468707892444,0.11746008546773239,0.046297414783096215
0.17700000000000005,0.0699,0.436,0.045848996947774424,1.3586916399865143,0.1172466125559916,0.048190877003713446
0.17799999999999994,-0.0025,-0.564,0.04518049430681442,1.3595589362229006,0.11540842351098218,0.048261830083594436
0.17900000000000005,-0.0307,0.436,0.04506538352242057,1.3674692635399206,0.11509190212442288,0.04890897008312662
0.17999999999999994,-0.0051,0.436,0.045060346607122215,1.3607144712941361,0.11507805206317438,0.04835636384123678
0.18100000000000005,0.0182,0.436,0.04497374547649796,1.361003201767253,0.11483992398432293,0.04837998473968377
0.18199999999999994,0.0115,1.436,0.0447999777214285,1.3689051833065655,0.11436211288205732,0.049026441975233474
0.18300000000000005,0.0053,-0.564,0.044752229257508006,1.3689051833065655,0.11423081840703679,0.049026441975233474
0.18399999999999994,-0.012,1.436,0.04478850248814122,1.3689051833065655,0.11433055930720934,0.049026441975233474
0.18500000000000005,-0.0068,-0.564,0.04472730444313306,1.3767618118419935,0.11416228237153643,0.04966918890377104
0.18599999999999994,-0.0021,-0.564,0.044626522193474176,1.3767618118419935,0.11388516031411519,0.04966918890377104
0.18700000000000006,-0.0238,-1.564,0.04461815919146974,1.3767618118419935,0.11386216447576537,0.04966918890377104
0.18799999999999994,-0.0277,0.436,0.04441026007378586,1.3767618118419935,0.1132905019913138,0.04966918890377104
0.18900000000000006,-0.0603,1.436,0.044316496202815234,1.3770471776151616,0.11303267844676,0.049692534537764864
0.18999999999999995,-0.1172,2.436,0.04413974799532342,1.3770471776151616,0.1125466719617745,0.049692534537764864
0.19100000000000006,-0.094,2.436,0.04448991345014635,1.3556661148825508,0.11350952575405257,0.04794336027831186
0.19199999999999995,-0.0019,0.436,0.04494823624140363,1.3556661148825513,0.11476978096075964,0.04794336027831189
0.19300000000000006,0.1622,-1.564,0.04562728786287564,1.377047177615162,0.11663697665320033,0.0496925345377649
0.19399999999999995,0.0958,-1.564,0.04392697201113742,1.3837222422563769,0.11196159950400508,0.05023861830341373
0.19500000000000006,0.0349,1.436,0.044017547495558584,1.3610032017672535,0.11221065590708872,0.048379984739683815
0.19599999999999995,-0.0205,1.436,0.04352284132473274,1.3744767527662956,0.11085035692247329,0.04948224934110636
0.19700000000000006,-0.0372,1.436,0.043544195716135874,1.367469263539921,0.11090907532676218,0.048908970083126654
0.19799999999999995,0.0694,-1.564,0.04412719809957156,1.3237559122514677,0.1125121633757591,0.04533280224598879
0.19900000000000007,0.1105,-3.564,0.04271549822913767,1.3246460824367454,0.10863039675633888,0.04540562663241395
0.19999999999999996,0.0226,-2.564,0.04261116880748319,1.3246460824367454,0.10834352100117053,0.04540562663241395
0.20100000000000007,-0.0343,-2.564,0.04263684863599718,1.3243494255231825,0.10841413310733117,0.04538135727576024
0.20199999999999996,-0.065,-0.564,0.041760401042880375,1.3462279581188008,0.10600415554631722,0.04717122930080651
0.20300000000000007,-0.0745,-0.564,0.0416849429816928,1.388951526834173,0.10579666768773005,0.05066642351091095
0.20399999999999996,-0.0148,-0.564,0.041754250481772406,1.4095491532403825,0.10598724328096984,0.05235150522860404
0.20500000000000007,0.0083,-0.5640000000000277,0.041883834508824734,1.401876289027606,0.10634356190163187,0.05172379196920666
0.20599999999999996,-0.0269,-1.563999999999889,0.04205723432953426,1.4236673822914816,0.1068203612907519,0.05350651062539278
0.20700000000000007,-0.0207,2.4359999999999444,0.04210947966890173,1.4725489808707712,0.1069640208735176,0.05750549023950703
0.20799999999999996,0.0558,0.43599999999997224,0.04201302979465704,1.5066426871446374,0.1066988115962969,0.06029467963431858
0.20900000000000007,0.025,-0.564,0.04201605279107994,1.4930459952375816,0.10670712396272182,0.059182340935584915
0.20999999999999996,0.0532,-1.564,0.04188458073802966,1.500252655241059,0.10634561381626245,0.059771914257190015
0.21100000000000008,0.0104,1.436,0.04187575608788048,1.5063818718688102,0.10632134857894496,0.060273342464475604
0.21199999999999997,0.0028,0.436,0.041862606758685236,1.5066426871446374,0.1062851917242148,0.06029467963431858
0.21300000000000008,-0.0183,-0.564,0.041860594086966595,1.5135250343346975,0.10627965745871198,0.060857721083662004
0.21399999999999997,0.0005,0.436,0.04178735170848571,1.4930459952375816,0.1060782620871684,0.059182340935584915
0.21500000000000008,-0.017,-0.564,0.04155301287735233,1.4933091397049756,0.10543389803261344,0.059203868655448015
0.21599999999999997,0.0199,-1.564,0.04149240429763461,1.487126044553481,0.10526724195611581,0.05869803267255053
0.21700000000000008,-0.004,0.436,0.041544116408459265,1.467349841739232,0.10540943531450807,0.057080151216188396
0.21799999999999997,-0.017,0.436,0.04173945225450778,1.467349841739232,0.10594655243313066,0.057080151216188396
0.21900000000000008,-0.0129,0.436,0.04164170956608432,1.4738825310114492,0.10567778829058103,0.057614587322703276
0.21999999999999997,-0.002,1.436,0.041902921030437364,1.4933091397049756,0.10639604431948035,0.059203868655448015
0.22100000000000009,-0.0119,1.436,0.04287011207262494,1.4930459952375816,0.10905554013781749,0.059182340935584915
0.22199999999999998,-0.0208,0.436,0.04286305902633907,1.4930459952375816,0.1090361462990766,0.059182340935584915
0.2230000000000001,-0.0342,0.436,0.04285815469518574,1.4999907288801535,0.10902266080590606,0.05975048619002152
0.22399999999999998,-0.0274,0.436,0.0427969785184326,1.4930459952375814,0.10885444400161387,0.0591823409355849
0.2250000000000001,-0.0071,-0.564,0.04305885260830407,1.4858043808766062,0.10957452205916988,0.05858990801513032
0.22599999999999998,-0.0252,-2.564,0.043531717605370314,1.4795899242340702,0.11087476412871107,0.05808150636402664
0.2270000000000001,0.0155,-1.564,0.04375591372904912,1.4597116254787619,0.11149123866931744,0.05645527248878201
0.22799999999999998,0.0215,-1.564,0.04347568310397171,1.4662783455832715,0.11072068544554302,0.05699249264100212
0.2290000000000001,0.0058,-0.564,0.04450233368106251,1.4662783455832713,0.11354367779924687,0.0569924926410021
0.22999999999999998,0.0296,-0.564,0.044396419099466476,1.4662783455832713,0.11325244331239877,0.0569924926410021
0.2310000000000001,0.0426,-1.564,0.04441530119795589,1.4662783455832715,0.11330436362574291,0.05699249264100212
0.23199999999999998,0.0067,0.436,0.044378890076300484,1.4728157874951577,0.11320424356511403,0.05752731755863821
0.2330000000000001,0.0209,0.436,0.04438231518793216,1.4736159175271155,0.11321366163213954,0.05759277580426513
0.23399999999999999,0.0339,-1.564,0.04469777279062966,1.4806517872952831,0.1140810788626994,0.05816837686045452
0.2350000000000001,-0.0101,-0.564,0.04476843241853572,1.4814476851090685,0.1142753724166558,0.058233488870387734
0.236,0.0072,-0.564,0.04477631954463039,1.4884465346617088,0.1142970597337964,0.0588060613208951
0.2370000000000001,0.0021,-0.564,0.04477753683266066,1.4884465346617088,0.11430040692404633,0.0588060613208951
0.238,-0.0218,-0.5639999999999722,0.04477181798681034,1.4814476851090679,0.11428468175087864,0.05823348887038768
0.2390000000000001,0.0264,0.436,0.04531966661731727,1.4814476851090679,0.1157911071398271,0.05823348887038768
0.24,-0.0573,0.436,0.04524611053690139,1.4749485030150882,0.11558884917863171,0.057701793969696505
0.2410000000000001,-0.0913,1.436,0.04454561293410281,1.4749485030150882,0.11366268323608496,0.057701793969696505
0.242,-0.081,2.436,0.04354227975446393,1.494887033763761,0.11090380698593563,0.05933295539478776
0.2430000000000001,0.004300000000012634,1.436,0.04658717226659377,1.4951498542107577,0.1192763813275876,0.05935445660670102
0.244,0.0612,0.436,0.04400687612535092,1.5087275862056357,0.11218131272336875,0.06046524420431508
0.2450000000000001,0.009399999999993717,2.436,0.04308623353691018,1.522184210997249,0.1096498116989141,0.06156612408100646
0.246,-0.0189,0.436,0.04297347000180977,1.5229584041278406,0.1093397445694852,0.06162946044144895
0.2470000000000001,0.07519999999999727,0.436,0.0429244730053228,1.5166371166284478,0.10920501699077083,0.06111231901032282
0.248,0.0629,-1.564,0.042792012587315735,1.510289371731949,0.10884078912634788,0.06059301311251097
0.2490000000000001,0.006000000000002287,0.436,0.04232907855201941,1.503130832863067,0.10756785433132345,0.06000737655733431
0.25,0.0163,0.436,0.0408983941769355,1.4618634588118402,0.10363388581121592,0.05663131291876086
0.2510000000000001,0.006800000000009481,2.436,0.040840508556008695,1.440650230467635,0.10347471708437526,0.054895869108337506
0.252,0.0495,3.436,0.04077130589378252,1.4191199388647817,0.10328442976493107,0.053134486508173845
0.2530000000000001,0.02619999999998581,2.436,0.04027834530465653,1.419119938864782,0.10192893062546395,0.053134486508173866
0.254,-0.0377,0.436,0.03958897247281056,1.4264246365353537,0.10003335458763914,0.05373208024325806
0.2550000000000001,-0.04609999999999485,-2.564,0.039594463365670206,1.4264246365353537,0.10004845295596783,0.05373208024325806
0.256,-0.0229,-4.564,0.03991848972164292,1.4261491509949378,0.10093943178140377,0.05370954290626162
0.2570000000000001,-0.029700000000001354,-3.564,0.03996017233079334,1.4390128663628587,0.10105404690902343,0.054761917153692205
0.258,-0.0358,-1.564,0.03993466245491709,1.4253223748995476,0.10098390212349509,0.05364190475924931
0.2590000000000001,0.005300000000001133,-1.564,0.039593983344667696,1.4320467972653175,0.10004713303695162,0.054192026456144904
0.26,0.0104,1.436,0.03974596710687753,1.453385604449391,0.10046504445509087,0.05593774380988911
0.2610000000000001,0.005699999999999045,-0.564,0.0394259198775324,1.4462170903392364,0.09958500707779197,0.05535129118511461
0.262,0.0014,-1.564,0.03941679888086347,1.4395588613254828,0.09955992697319833,0.054806584733894215
0.2630000000000001,0.005399999999999201,-0.564,0.03941593352894297,1.4395588613254828,0.09955754750553004,0.054806584733894215
0.264,0.0018,-0.564,0.03942269148245079,1.4459453757171647,0.09957612992442208,0.0553290623450991
0.2650000000000001,-0.01450000000000191,-0.564,0.03944690799227757,1.4459453757171647,0.09964271832713657,0.0553290623450991
0.266,-0.0231,0.436,0.039661385359106176,1.445945375717165,0.10023246909542173,0.055329062345099114
0.2670000000000001,-0.052899999999990274,1.436,0.0397837374645459,1.4384666641583967,0.10056890202189478,0.054717232619137045
0.268,-0.0091,1.436,0.03981334787690441,1.438739791180608,0.10065032209756937,0.054739577006915494
0.26900000000000013,0.055400000000009504,2.436,0.03977806922844464,1.4390128663628596,0.10055331601090924,0.05476191715369228
0.27,0.0982,0.436,0.03975809227164989,1.446488753921274,0.10049838515367283,0.05537351584956996
0.27100000000000013,0.012299999999997513,-0.564,0.039765566438897886,1.439831781164784,0.10051893695334277,0.05482891217214038
0.272,0.0011,-1.564,0.03975239628776005,1.433143887013299,0.10048272284428865,0.0542817788305464
0.27300000000000013,0.011199999999985367,-0.564,0.03970391627922441,1.4547367216709315,0.10034941683301517,0.05604827804735795
0.274,-0.0547,0.436,0.039559299000788126,1.455006794557786,0.09995176111611492,0.05607037257782026
0.2749999999999999,-0.0801,-0.564,0.0394643574324951,1.4749485030150904,0.09969069924431494,0.057701793969696685
0.276,-0.0568,0.436,0.039466588935108245,1.494361254199317,0.09969683523152884,0.05928994162639967
0.2769999999999999,0.0494,1.436,0.039453392304951033,1.473349255797095,0.09966054831282468,0.057570960338871005
0.278,0.0951,-0.564,0.039501148599415545,1.4858043808766073,0.099791864319578,0.05858990801513041
0.2789999999999999,-0.0016,0.436,0.03945929995692555,1.4787930265593914,0.0996767926482632,0.05801631255596395
0.28,-0.0139,0.436,0.0394576766773145,1.5196007185754374,0.09967232909851007,0.06135476983261205
0.2809999999999999,-0.0026,1.436,0.03939786915941498,1.5397266087061863,0.09950787571048124,0.06300125903689244
0.28200000000000003,-0.0127,-1.564,0.039203079109158184,1.5397266087061863,0.09897225937253425,0.06300125903689244
0.2829999999999999,0.0533,-1.564,0.03919784831516566,1.5467157835946204,0.09895787620091363,0.06357304000786439
0.28400000000000003,0.0279,-1.564,0.03917882823828219,1.5467157835946204,0.0989055764868658,0.06357304000786439
0.2849999999999999,-0.0108,-1.5639999999999445,0.039104191500690284,1.539726608706186,0.09870034703077919,0.06300125903689241
0.28600000000000003,-0.0039,-0.564,0.03917696623507958,1.5394713984762494,0.09890045651623429,0.0629803804131057
0.2869999999999999,-0.0227,-0.5639999999999444,0.03924587759293496,1.5454450818659173,0.09908994283285462,0.0634690845224385
0.28800000000000003,-0.0755,0.436,0.03929094965098638,1.5513957636272842,0.09921387796529804,0.06395590687983721
0.2889999999999999,-0.0545,0.436,0.03923104830578719,1.5513957636272844,0.09904916657931406,0.06395590687983722
0.29000000000000004,-0.0863,2.436,0.039258856316522844,1.5516490125773028,0.09912563057147476,0.06397662505227542
0.2909999999999999,0.0018,3.436,0.03887666770420127,1.5516490125773028,0.09807472235174358,0.06397662505227542
0.29200000000000004,0.1657,-0.564,0.03784998832493879,1.5454450818659176,0.09525165080039234,0.06346908452243852
0.2929999999999999,0.0541,-2.564,0.037185336857500716,1.5264246416795095,0.09342405136946173,0.061913031636124945
0.29400000000000004,0.034,-2.564,0.03730313285927896,1.5583326028366191,0.0937479563277185,0.06452340629456119
0.29499999999999993,0.0157,-1.564,0.037000338881228854,1.5583326028366196,0.09291536040476561,0.06452340629456121
0.29600000000000004,-0.0007,0.436,0.03698894155665644,1.558332602836616,0.09288402105636552,0.06452340629456092
0.29699999999999993,-0.0158,0.436,0.03776061313406325,1.5652386996002905,0.09500589485763777,0.06508839068487782
0.29800000000000004,-0.0295,0.436,0.03762570397137279,1.5654897091829905,0.09463493365309732,0.06510892565577359
0.29899999999999993,-0.0172,-0.564,0.03789497249468815,1.5976012378627813,0.09537534426540747,0.06773595407343534
0.30000000000000004,-0.006,-0.564,0.03804675286776114,1.6036034024624828,0.09579269642220606,0.06822698821659723
0.30099999999999993,0.0248,-0.564,0.038106101815354114,1.6229298816903788,0.0959558888744327,0.06980807800685018
0.30200000000000005,0.0153,-0.564,0.03824858636955608,1.6050728735412134,0.09634768021611086,0.06834720492509627
0.30299999999999994,0.007,-1.564,0.03792766346257174,1.5682481629842846,0.09546523497840162,0.06533459340884344
0.30400000000000005,-0.0162,-0.564,0.03793872012317147,1.5556953890575806,0.0954956375993391,0.06430765712827052
0.30499999999999994,-0.0514,0.436,0.03830156233296265,1.56185860458096,0.09649334880381147,0.06481186676853849
0.30600000000000005,-0.0325,2.436,0.03883333791080285,1.5606002327778932,0.09795557794352837,0.06470891998828379
0.30699999999999994,-0.015,1.436,0.03896457572422652,1.4938352895782203,0.09831644399871693,0.059246912718617546
0.30800000000000005,-0.02,1.436,0.03886024017820675,1.4523038056463753,0.09802955140331417,0.05584924238019844
0.30899999999999994,0.0428,-2.564,0.03926151810336045,1.444858006252544,0.09913294971594068,0.0552401051823137
0.31000000000000005,-0.0171,-0.564,0.04064493246438294,1.4376469717565028,0.10293693935985355,0.05465017398561668
0.31099999999999994,0.006,0.436,0.04065271843035963,1.452574330878244,0.10295834851590807,0.055871373916784574
0.31200000000000006,-0.0009,0.436,0.04072090175982391,1.473615917527103,0.10314583296487527,0.05759277580426411
0.31299999999999994,-0.0197,1.436,0.040875365482165374,1.4662783455832586,0.10357056355659248,0.056992492641001063
0.31400000000000006,-0.0138,0.436,0.04112684715158616,1.472548980870759,0.10426206546163526,0.05750549023950603
0.31499999999999995,0.0446,-0.564,0.04112669427154236,1.472282125895739,0.1042616450857018,0.057483658964833234
0.31600000000000006,0.037,0.436,0.04133770496714671,1.4720152225437895,0.10484186351009385,0.05746182373246755
0.31699999999999995,0.0159,-0.564,0.04127658124275118,1.4722821258957388,0.10467379093462476,0.05748365896483321
0.31800000000000006,-0.003,-0.564,0.040936116534838474,1.4657423037708606,0.10373761139253837,0.05694863932313922
0.31899999999999995,0.0029,-1.564,0.040928491642566546,1.4594424232310015,0.10371664514261675,0.05643324918487714
0.32000000000000006,0.008,0.436,0.040572170845936076,1.4459453757171505,0.10273686593944925,0.055329062345097935
0.32099999999999995,-0.0061,0.436,0.03937392258189878,1.4459453757171505,0.09944202954360215,0.055329062345097935
0.32200000000000006,0.007,-2.564,0.03935588307146454,1.4523038056463753,0.09939242610387612,0.05584924238019844
0.32299999999999995,-0.005,-0.564,0.03935597621109849,1.44512992532281,0.0993926822109493,0.05526235074813575
0.32400000000000007,-0.0014,2.436,0.039354741599761295,1.44512992532281,0.0993892873866123,0.05526235074813575
0.32499999999999996,0.0083,2.436,0.03897886738299057,1.452574330878244,0.09835574192959326,0.055871373916784574
0.32600000000000007,0.0231,0.436,0.03815741283774838,1.4736159175271029,0.09609697935556816,0.05759277580426409
0.32699999999999996,-0.0248,2.436,0.03796238498153872,1.4809171340936376,0.09556070911998397,0.05819008475193374
0.32800000000000007,-0.0114,-0.564,0.037657138176050126,1.4817128893771607,0.09472136863051712,0.05825518510153608
0.32899999999999996,-0.0045,-3.564,0.03644723240564704,1.4887104921299668,0.09139447746153861,0.05882765555196028
0.33000000000000007,0.0201,-2.564,0.03654474207716558,1.495938038503171,0.0916626008749487,0.05941893757723257
0.33099999999999996,0.0168,-1.564,0.036593264667387236,1.5023464221707594,0.09179602397355134,0.059943204303177296
0.3320000000000001,0.0019,-1.564,0.03673221967195624,1.4959380385031713,0.09217811007388621,0.059418937577232586
0.33299999999999996,-0.0169,0.436,0.03682792498783319,1.4887104921299668,0.09244127203079568,0.05882765555196028
0.3340000000000001,-0.0237,0.436,0.03644785237202245,1.4879184792466105,0.09139618218988182,0.05876286136628077
0.33499999999999996,-0.0259,0.436,0.03675904412381062,1.4871260445534686,0.09225186956340191,0.05869803267254951
0.3360000000000001,-0.0243,1.436,0.03674410520243771,1.4798554614307369,0.09221079184742983,0.05810322983189843
0.33699999999999997,-0.0189,1.436,0.03683337679675848,1.479855461430737,0.09245626292960134,0.05810322983189845
0.3380000000000001,0.0025,-0.564,0.03690857993917689,1.4860688076477189,0.0926630498352526,0.05861154063963196
0.33899999999999997,-0.0302,-0.564,0.03648813342204722,1.4925195671186622,0.09150694343499925,0.05913927410927316
0.3400000000000001,-0.0173,0.436,0.037074711875469984,1.4927828043836495,0.09311986464286745,0.059160809420861875
0.34099999999999997,-0.0215,0.436,0.036466281384117526,1.4795899242340584,0.09144685664659731,0.058081506364025676
0.3420000000000001,-0.0397,0.436,0.03647350505047602,1.4392858897346446,0.09146671964122352,0.05478425306188018
0.34299999999999997,-0.0299,3.436,0.0324938726243827,1.4390128663628459,0.08052388070448595,0.05476191715369116
0.3440000000000001,-0.0386,0.436000000000111,0.03213004275987946,1.4171804758263897,0.07952345373501774,0.05297581998788243
0.345,0.0019,2.435999999999778,0.03199475564125353,1.3950064417662063,0.07915145326089551,0.05116177313289847
0.3460000000000001,0.0783,-1.5639999999999445,0.03203921448082527,1.42902545758011,0.07927370221975863,0.05394485213779971
0.347,0.0681,-0.5640000000001665,0.03204390059665246,1.4493246954182404,0.07928658768385315,0.05560552283303211
0.3480000000000001,0.0774,-3.5639999999997225,0.03200479319607812,1.4559382644596375,0.07917905363550398,0.0561465756738099
0.349,0.0345,1.435999999999778,0.03187194360473494,1.4758673870828891,0.07881375565688968,0.05777696742477306
0.3500000000000001,0.0268,-2.563999999999889,0.03183843481352308,1.4758673870828891,0.07872161616611864,0.05777696742477306
0.351,0.0337,-0.564,0.03183402304856459,1.4756011322249112,0.07870948508761728,0.05775518524538125
0.3520000000000001,0.0017,-0.564,0.03174739553627298,1.4950054089966158,0.0784712844668057,0.059342639614550635
0.353,-0.0277,1.436,0.03193311117795025,1.5141610364934233,0.07898194880393952,0.06090975210844839
0.3540000000000001,-0.0647,1.436,0.032102118849295744,1.5070208886315977,0.07944667105177343,0.06032562011254227
0.355,-0.0789,2.436,0.03289340931867523,1.5067601388212182,0.08162249113551302,0.06030428829839547
0.3560000000000001,-0.0393,0.436,0.03249494129151989,1.506760138821218,0.08052681923023586,0.06030428829839546
0.357,0.0085,-0.564,0.03237889860952962,1.506760138821218,0.08020773539463319,0.06030428829839546
0.3580000000000001,0.0665,0.436,0.032524610355321386,1.500370607140773,0.0806084005804266,0.05978156384427618
0.359,0.1053,-0.564,0.0336547687314823,1.53282101796299,0.08371600946466574,0.06243631604386278
0.3600000000000001,0.0131,-2.564,0.03338572107483819,1.5186826204916424,0.08297620617186433,0.061279660678501664
0.361,-0.0242,-2.564,0.033356832532569866,1.524737753228565,0.08289677103029529,0.06177502811900041
0.3620000000000001,-0.0355,0.436,0.03349871018926495,1.5247377532285653,0.08328689357924139,0.06177502811900043
0.363,-0.0457,1.436,0.033552828950702704,1.5310255952429597,0.08343570453122431,0.06228943339139648
0.3640000000000001,0.0014,0.436,0.03352847723896866,1.5310255952429608,0.0833687443623423,0.06228943339139657
0.365,0.0442,0.436,0.03350357410852794,1.5689747750664285,0.08330026795139374,0.06539403718704045
0.3660000000000001,0.0055,-0.564,0.03347249062283136,1.5687243231247856,0.08321479734980256,0.06537354783648616
0.367,-0.0015,0.436,0.033309929372219875,1.5748365499733248,0.08276780089577516,0.06587358611826416
0.3680000000000001,0.004599999999996158,-0.564,0.03348306799402907,1.5930325265472716,0.08324388206341372,0.06736219004066009
0.369,-0.0127,1.436,0.03362149569050638,1.5927858574856038,0.08362451821890454,0.06734201016566188
0.3700000000000001,-0.0075999999999989565,0.436,0.03364071919123745,1.5859997169430018,0.08367737728973758,0.06678683933497884
0.371,-0.0029,1.436,0.03424932739567044,1.5862474412823226,0.08535087394561468,0.06680710554172445
0.3720000000000001,0.0013999999999973133,-0.564,0.034675953799814176,1.5862474412823224,0.08652397324898108,0.06680710554172443
0.373,-0.0107,-0.564,0.03467699512044139,1.5733388389483307,0.08652683657973252,0.06575105911360676
0.3740000000000001,-0.007099999999996381,-1.564,0.034673448448283496,1.5733388389483307,0.08651708425639464,0.06575105911360676
0.375,0.0092,-2.564,0.03475631085187877,1.5608270067418475,0.08674493191652241,0.06472747225509222
0.3760000000000001,0.041799999999993245,-1.564,0.0348829563700127,1.5489752471555025,0.08709317048697747,0.06375788561401094
0.377,0.0114,-1.564,0.03480673820162391,1.5492288917819357,0.0868835925532811,0.06377863615654261
0.3780000000000001,-0.008500000000004043,-1.564,0.03472487418326845,1.5302554835042257,0.08665849016399906,0.06222643092762084
0.379,-0.0267,-1.564,0.03471278004829772,1.5299986934515066,0.08662523478840302,0.062205423059306854
0.3800000000000001,-0.02340000000000191,1.436,0.03486946664462214,1.4894759056356086,0.08705607764109506,0.0588902736555901
0.381,-0.032,0.436,0.03492998659073013,1.4749220664642866,0.08722249000078372,0.057699631208436734
0.3820000000000001,-0.02939999999999185,0.436,0.03538717806221613,1.4678587327504808,0.08847963440510567,0.057121783340319705
0.383,0.0073,1.436,0.03552508764845973,1.4670554627612231,0.08885884590720343,0.05705606821632553
0.3840000000000001,0.05529999999998712,1.436,0.03550938003524047,1.4670554627612231,0.08881565451082926,0.05705606821632553
0.385,-0.0027,0.436,0.035613166410428554,1.4673232682844568,0.08910103704517199,0.05707797725488165
0.3860000000000001,-0.02590000000000151,-0.564,0.03555061956690648,1.4746556409249747,0.08892905130342968,0.05767783506568867
0.387,-0.0327,1.436,0.03572612793989459,1.4746556409249747,0.08941164860187996,0.05767783506568867
0.3880000000000001,0.051200000000007594,1.436,0.03569471327255775,1.4746556409249747,0.08932526734649962,0.05767783506568867
0.389,0.0854,-0.564,0.035997695548802396,1.474389167241951,0.09015838103506357,0.05765603498432714
0.3900000000000001,0.054599999999989546,1.436,0.036100397370156134,1.4814213645387484,0.09044078135983095,0.058231335597434285
0.391,0.0075,0.436,0.0360795138628158,1.4814213645387486,0.0903833577506149,0.058231335597434306
0.3920000000000001,-0.0008000000000051293,0.436,0.03616910781715765,1.4816865735179223,0.09062971522967253,0.058253032213993916
0.393,-0.0239,0.436,0.03603413492072948,1.488156328922418,0.09025857877577437,0.05878231973164571
0.39400000000000013,-0.01690000000000135,0.436,0.03605435730012626,1.4480907388026998,0.09031418447423174,0.055504573447298665
0.395,-0.023,3.436,0.03586486506250989,1.4483620509518957,0.08979313558981668,0.055526769361205534
0.39600000000000013,-0.005499999999998823,2.436,0.03587186254819643,1.4280491295121678,0.08981237665296811,0.05386497921723523
0.397,-0.0002,1.436,0.03507765085411713,1.4280491295121682,0.08762852404562697,0.053864979217235265
0.39800000000000013,-0.0048000000000009545,2.436,0.03441365839727558,1.4277739574137869,0.08580273670336266,0.05384246752277799
0.399,-0.0091,-0.564,0.03358737013662567,1.3909023183933074,0.08353068280905736,0.05082601681193015
0.40000000000000013,0.0028999999999976015,0.436,0.03344176625382095,1.3909023183933098,0.08313031421530263,0.05082601681193035
0.401,-0.0079,2.436,0.033403234150466476,1.3894891309955328,0.08302436206802967,0.05071040464377537
0.40200000000000014,-0.03759999999999911,2.436,0.03323393392044442,1.3894891309955328,0.08255883536839359,0.05071040464377537
0.403,-0.0336,0.436,0.033234194770459295,1.3894891309955328,0.08255955263054089,0.05071040464377537
0.4039999999999999,-0.0735,0.436,0.03314887035420785,1.3903372158037857,0.08232493514720529,0.05077978604613973
0.405,0.0063,0.436,0.03255961786812137,1.3834100680855463,0.08070466112238879,0.05021307948755076
0.4059999999999999,0.0175,2.436,0.0317099464856062,1.362128886024859,0.07836831040138864,0.04847207641689833
0.40700000000000003,-0.0342,0.43600000000016653,0.03146520278631548,1.362128886024859,0.07769533596672491,0.04847207641689833
0.4079999999999999,0.0888,3.435999999999889,0.03161385417449254,1.3697375460192207,0.07810408431943165,0.04909453716066522
0.40900000000000003,0.0051,1.436,0.030907352187746217,1.3767334898749735,0.07616140805647852,0.04966687189753482
0.4099999999999999,-0.01,1.4359999999999444,0.02918287597669527,1.3834100680855463,0.07141959690225322,0.05021307948755076
0.41100000000000003,0.0314,0.4360000000000555,0.02919761162280807,1.3677280596502803,0.07146011567001274,0.04893014206603266
0.4119999999999999,0.0191,1.436,0.029128550511315424,1.3447388284200092,0.07127021757417328,0.04704940433023849
0.41300000000000003,-0.015,1.436000000000111,0.029207004775492495,1.3527358213351515,0.0714859441249876,0.04770363439986267
0.4139999999999999,-0.0049,3.4359999999998334,0.029093051465126897,1.3459070874269718,0.07117260545746072,0.04714497902682438
0.41500000000000004,0.0422,0.4360000000000555,0.029130714843130415,1.3538971798659685,0.07127616886110666,0.04779864457187825
0.4159999999999999,0.0168,1.4360000000000555,0.028849010969086163,1.3538971798659682,0.07050156462848728,0.047798644571878234
0.41700000000000004,-0.0375,2.436,0.028928576945097366,1.3538971798659682,0.07072034806552686,0.047798644571878234
0.4179999999999999,-0.0306,0.436,0.02898554572453385,1.3541873638756403,0.07087699574326427,0.047822384383438166
0.41900000000000004,-0.0117,0.436,0.02899032442900791,1.3541873638756403,0.07089013579937675,0.047822384383438166
0.41999999999999993,0.0648,-0.564,0.028963849815968876,1.3541873638756385,0.07081733826548918,0.04782238438343802
0.42100000000000004,0.0546,0.436,0.02895381205082982,1.362128886024856,0.07078973731257672,0.04847207641689808
0.42199999999999993,0.0075,-1.564,0.028984860001376116,1.355057543049279,0.07087511020277538,0.04789357331500233
0.42300000000000004,-0.0008,-0.564,0.029058558888773105,1.3547675454273753,0.07107776084189325,0.04786984875173434
0.42399999999999993,-0.024,1.436,0.029167056507370982,1.3615518412754057,0.07137609793392004,0.04842486866885891
0.42500000000000004,-0.0308,-1.564,0.029172944091192508,1.3606858153101111,0.07139228708773812,0.04835401950923314
0.42599999999999993,0.0011,-0.564,0.02915965673126308,1.3456151177638829,0.07135575068838405,0.04712109313183388
0.42700000000000005,0.0069,0.436,0.02891543906597241,1.3456151177638822,0.07068422269518058,0.047121093131833824
0.42799999999999994,-0.0068,0.436,0.028918695790577993,1.3378692769935603,0.0706931777465533,0.046487409696042585
0.42900000000000005,-0.0333,-0.564,0.028906186552311582,1.3297828832784713,0.07065878095687166,0.045825865790806164
0.42999999999999994,-0.0287,1.436,0.02878509069799746,1.3219442778835158,0.07032580235789916,0.045184593326554265
0.43100000000000005,-0.0591,-0.564,0.02872556660722041,1.3146568056570518,0.07016212831253803,0.044588408796607235
0.43199999999999994,-0.0313,1.436,0.02858781393391481,1.3219442778835158,0.06978334827566714,0.045184593326554265
0.43300000000000005,-0.0132,0.436,0.028438259232653564,1.329191796166955,0.06937211607306387,0.045777509244011055
0.43399999999999994,0.0361,-0.564,0.02843216974214232,1.329191796166955,0.06935537173420624,0.045777509244011055
0.43500000000000005,0.0151,-1.564,0.02798140113717211,1.3219442778835158,0.06811588835639862,0.045184593326554265
0.43599999999999994,-0.0429,1.436,0.02867022947779795,1.3219442778835158,0.07000996720074262,0.045184593326554265
0.43700000000000006,0.0116,1.436,0.028667531974401896,1.3216470145229913,0.07000254984606415,0.04516027435677196
0.43799999999999994,0.0467,0.436,0.028641124961381055,1.3143578941174925,0.06992993819268814,0.04456395499010616
0.43900000000000006,0.0407,-1.564,0.02819520654165992,1.3073287113392091,0.06870379142246416,0.043988900993280705
0.43999999999999995,-0.0122,0.436,0.02799120595364015,1.3152544249396279,0.06814284876779506,0.04463729973711416
0.44100000000000006,-0.0333,-0.564,0.027631612717266205,1.3082300592732683,0.06715407130116778,0.044062639825853456
0.44199999999999995,0.0246,1.436,0.028771436145136865,1.3155531327752237,0.07028825628411431,0.044661736878693854
0.44300000000000006,0.0323,0.436,0.0314225501054614,1.3155531327752235,0.07757805342230044,0.04466173687869383
0.44399999999999995,0.0114,-0.564,0.033290793160262476,1.3155531327752235,0.0827151818438406,0.04466173687869383
0.44500000000000006,-0.0073,0.436,0.03361903808345645,1.3228356671647734,0.08361776050984053,0.04525751744662385
0.44599999999999995,0.0222,-1.564,0.0356788060447815,1.2850937273156922,0.0892815270677884,0.04216986785167896
0.44700000000000006,-0.0044,0.436,0.043264353226522084,1.2624671942194932,0.11013958936332975,0.040318802272409686
0.44799999999999995,0.0192,1.436,0.044159669945905665,1.279440028999474,0.11260145156782497,0.0417073415643229
0.44900000000000007,0.0146,1.436,0.044243026780019686,1.2567117077120258,0.11283065876897383,0.039847948743032206
0.44999999999999996,-0.0214,2.436,0.04447185980570581,1.2567117077120258,0.11345988344989437,0.039847948743032206
0.45100000000000007,0.0024,-0.564,0.04456782363275769,1.25702432718381,0.11372375623781729,0.039873523988747876
0.45199999999999996,-0.0021,-0.564,0.04459067649111509,1.233883174221211,0.11378659499312781,0.037980357610516116
0.45300000000000007,-0.0142,-1.564,0.04480636780885086,1.2099749473807624,0.11437968377553885,0.036024437294418246
0.45399999999999996,-0.0178,0.436,0.044911359278058345,1.2188564554335126,0.11466837997012605,0.03675102911379029
0.45500000000000007,-0.0277,0.436,0.045015249911517306,1.2276737126023405,0.11495404918457988,0.03747236459984954
0.45599999999999996,-0.0007,0.436,0.04503225120035249,1.227993724514196,0.11500079781498616,0.03749854461746309
0.4570000000000001,0.0318,-1.564,0.04564519134961112,1.203968551544896,0.11668620606706975,0.035533056995900196
0.45799999999999996,0.0012,1.436,0.04571440074215383,1.2042948625401286,0.11687651189293914,0.035559752338436515
0.4590000000000001,-0.0268,1.436,0.04485938383903186,1.1637247656115788,0.11452546253528864,0.03224073259940843
0.45999999999999996,-0.016,1.436,0.04485709190242373,1.1647372487355356,0.11451916037205578,0.032323563347379375
0.4610000000000001,0.0136,0.436,0.04490496641663926,1.1647372487355363,0.1146508014489553,0.03232356334737942
0.46199999999999997,0.0415,-1.564,0.045033148606627355,1.164737248735536,0.1150032654228643,0.03232356334737941
0.4630000000000001,0.0378,-0.564,0.04500625856832808,1.164737248735536,0.11492932558958162,0.03232356334737941
0.46399999999999997,0.0149,-1.564,0.045185540931800355,1.15679926705323,0.11542230027106512,0.03167416095778155
0.4650000000000001,-0.0178,0.436,0.04525491244783413,1.1134434111879101,0.11561305188967633,0.028127239645937458
0.46599999999999997,-0.0221,-0.564,0.045058117216721795,1.1134434111879097,0.11507192188393497,0.028127239645937423
0.4670000000000001,-0.0182,-0.564,0.04502835335585875,1.104781459271109,0.11499007986922422,0.027418609606403486
0.46799999999999997,0.007,-0.564,0.04490888117042853,1.086889099945636,0.11466156589039267,0.02595484446224782
0.4690000000000001,-0.0029,1.4359999999998334,0.045041594039094024,1.0872505499709202,0.11502648792116035,0.025984414511604697
0.47,-0.0002,-1.563999999999889,0.04522525237288147,1.1155587330599719,0.11553149525622182,0.028300293091191375
0.4710000000000001,-0.0137,0.436,0.04475903639951799,1.1237880588631926,0.1142495360800928,0.028973530200481143
0.472,-0.0207,0.4360000000000555,0.04461785917555633,1.1237880588631926,0.11386133951871723,0.028973530200481143
0.4730000000000001,-0.0273,1.436,0.0447584611760937,1.1141489647173015,0.11424795438193311,0.028184960634258367
0.474,-0.0092,1.4359999999998334,0.04486929040398322,1.1223886269549275,0.11455270272560579,0.02885904336217909
0.4750000000000001,0.0026,-1.564,0.044811998564649846,1.1223886269549275,0.1143951667265261,0.02885904336217909
0.476,0.0181,-1.5639999999999445,0.04470682046983376,1.1127374102882044,0.11410595736545574,0.02806948205847047
0.4770000000000001,0.0122,-0.5639999999999444,0.044739658439172304,1.1220384962586325,0.11419625228996311,0.028830399341577183
0.478,-0.0006,0.4359999999999445,0.044753639974900936,1.1223886269549275,0.11423469747212704,0.02885904336217909
0.4790000000000001,0.004,-0.5639999999999444,0.044748572979308676,1.1223886269549275,0.11422076469876442,0.02885904336217909
0.48,0.0144,0.436,0.04464678662602769,1.1220384962586327,0.11394088164659895,0.028830399341577204
0.4810000000000001,0.0154,1.436,0.04455582440987353,1.1137962438207452,0.11369076184302684,0.028156104710643
0.482,-0.0036,1.436,0.044166062144503915,1.123088560880501,0.11261902826643001,0.028916304613466837
0.4830000000000001,0.0043,1.436,0.04422597364323723,1.114501573983666,0.11278376757169817,0.028213807425462457
0.484,-0.0226,0.436,0.044206230950288965,1.1148540717257582,0.1127294808723302,0.028242645092920533
0.4850000000000001,-0.0625,0.436,0.0441422520571608,1.12413764463029,0.11255355740807711,0.029002129640692563
0.486,-0.0256,0.436,0.04423045953244394,1.1148540717257582,0.11279610247045797,0.028242645092920533
0.4870000000000001,-0.0303,0.436,0.04402850579109871,1.1065583070522629,0.11224078805254278,0.027563972652227223
0.488,0.0092,-0.564,0.044014107171624295,1.0978420331440237,0.11220119601062786,0.02685089855720668
0.4890000000000001,0.0784,-1.564,0.043766427007406634,1.0981998782413143,0.11152014714614285,0.02688017368917182
0.49,0.0313,-0.564,0.04382307184208013,1.0883341797933066,0.11167590406941194,0.02607306573609238
0.4910000000000001,-0.0805,1.436,0.04380640811323037,1.0883341797933068,0.11163008363140042,0.0260730657360924
0.492,-0.1263,0.436,0.04397649885280753,1.0883341797933068,0.1120977840038317,0.0260730657360924
0.4930000000000001,-0.11249999999998608,0.436,0.04401035757735257,1.1079777336355205,0.11219088571012759,0.027680095245087435
0.494,-0.0498,1.436,0.04389223434793495,1.1622211620676333,0.1118660809704413,0.032117723530664596
0.4950000000000001,0.12170000000002734,1.436,0.04398738058933527,1.161883034873307,0.11212770563412959,0.032090061510673666
0.496,0.2448,-0.564,0.0440584845103617,1.1618830348733067,0.11232322086575278,0.03209006151067365
0.4970000000000001,0.08849999999998648,-2.564,0.044008433783678705,1.161883034873307,0.11218559583355946,0.032090061510673666
0.498,0.0276,-0.564,0.04405085367480812,1.1701223627873165,0.1123022382735244,0.03276411688774325
0.4990000000000001,0.045999999999996315,-0.564,0.04412333679892305,1.1701223627873165,0.11250154591500924,0.03276411688774325
0.5,0.0294,-0.564,0.04410702546309614,1.186760507037346,0.11245669445595824,0.03412527531149312
0.5010000000000001,-0.016300000000009213,-0.564,0.04419195483531837,1.186760507037346,0.11269022568239324,0.03412527531149312
0.502,-0.0578,0.436,0.04419156343223822,1.186760507037346,0.11268914943705026,0.03412527531149312
0.5030000000000001,-0.04550000000000757,-1.564,0.04421441500509086,1.186760507037346,0.11275198465759423,0.03412527531149312
0.504,-0.0796,-1.564,0.04424490043381691,1.1779705676425472,0.11283581077537316,0.03340617467913383
0.5050000000000001,0.013900000000013922,-0.564,0.04420950079619902,1.1783040783530958,0.11273847200349778,0.03343345902685027
0.506,0.0766,0.436,0.04412720608352521,1.1874224971451426,0.11251218532932404,0.03417943239765163
0.5070000000000001,0.04249999999999316,-0.564,0.044147572559186964,1.2133959433015702,0.11256818725086189,0.036304307293454546
0.508,0.0117,-1.564,0.04403568275194749,1.2133959433015702,0.11226052262051658,0.036304307293454546
0.5090000000000001,0.002299999999994382,-1.564,0.04407241494437815,1.2054524287802242,0.11236152553297817,0.03565445226500746
0.51,-0.023,1.436,0.04401668860314386,1.1974562208630322,0.1122082942011943,0.03500028641568072
0.5110000000000001,-0.046199999999992185,0.436,0.04403281297893066,1.1894062568000088,0.11225263157417215,0.03434172280241906
0.512,-0.011,1.436,0.044080431364443305,1.1894062568000088,0.1123835683711677,0.03434172280241906
0.5130000000000001,-0.042899999999996136,-0.564,0.0438857847745736,1.180636015410158,0.1118483465078208,0.03362423365418704
0.514,-0.0255,1.436,0.04399696065129887,1.1884147908961349,0.11215404803559972,0.03426061146291878
0.5150000000000001,0.0010999999999989564,0.436,0.044173166286075795,1.1793040445779177,0.11263856260243933,0.03351526577343977
0.516,-0.0036,0.436,0.04428316276397131,1.179637178283758,0.11294102112431861,0.03354251927858586
0.5170000000000001,0.018300000000006197,1.436,0.04441445674110773,1.1874224971451384,0.11330204161348423,0.03417943239765128
0.518,0.0462,-0.564,0.04533025234990017,1.1870915482366822,0.11582021484483085,0.03415235762970802
0.5190000000000001,0.042399999999990494,-2.564,0.045551418977975544,1.1948282965481216,0.1164283591481443,0.03478529721589593
0.52,-0.0004,1.436,0.045594679833237485,1.1958144449396775,0.11654731399640943,0.03486597353232054
0.5210000000000001,-0.04139999999999885,0.436,0.04563312107245668,1.1870915482366802,0.11665301629357289,0.034152357629707863
0.522,-0.0362,0.436,0.04562780040400053,1.1874224971451366,0.11663838599315376,0.03417943239765114
0.5230000000000001,-0.03149999999999123,1.436,0.04558416800959108,1.1877533538398561,0.11651840951961911,0.03420649962163381
0.524,0.008,1.436,0.04551652586035068,1.188745371411438,0.11633241315985002,0.0342876560927988
0.5250000000000001,0.003000000000003153,0.436,0.04551156989823941,1.18874537141144,0.11631878569646806,0.03428765609279896
0.526,0.0172,-1.564,0.045556667310218915,1.1877533538398526,0.11644279054488565,0.03420649962163352
0.5270000000000001,-0.013099999999997336,-0.564,0.045549370800541104,1.1786374946924743,0.11642272725218528,0.033460735654107544
0.528,-0.0011,0.436,0.045675419011333436,1.1783040783530876,0.11676932340009094,0.0334334590268496
0.5290000000000001,0.014199999999996027,0.436,0.04591581921615243,1.1783040783530876,0.11743035448035968,0.0334334590268496
0.53,-0.0037,-0.564,0.04597693127579682,1.1860981474568841,0.11759839498113461,0.03407108799895702
0.5310000000000001,0.0062000000000072605,-1.564,0.046000486093921614,1.1941704118630718,0.1176631639229177,0.034731475992359546
0.532,0.0389,0.436,0.046274396688703257,1.1864293734698608,0.11841633889006006,0.03409818543668524
0.5329999999999999,-0.0006,-0.564,0.04650875433136606,1.1874224971451348,0.11906075467088384,0.03417943239765099
0.534,-0.0271,-1.564,0.046623216978550146,1.1796371782837531,0.1193754938674477,0.03354251927858546
0.5349999999999999,-0.0317,-0.564,0.04656842030246848,1.2057783382046456,0.119224818846132,0.03568111475523259
0.536,0.0078,-0.564,0.046450902281836175,1.2057783382046454,0.11890167825568156,0.03568111475523257
0.5369999999999999,0.0027,0.436,0.04639816458294357,1.2146905311833234,0.11875666482652864,0.03641021689335056
0.538,-0.002,-0.564,0.0464556698975284,1.2146905311833234,0.11891478782084898,0.03641021689335056
0.5389999999999999,0.0464,0.436,0.046475109150459694,1.214367013598027,0.11896824014787369,0.03638375007831157
0.54,0.0019,0.436,0.046097806963454176,1.2057783382046454,0.11793076818543587,0.03568111475523257
0.5409999999999999,-0.051,-0.564,0.046033238972325155,1.2057783382046456,0.1177532248719477,0.03568111475523259
0.542,-0.03,-2.564,0.0453446311329879,1.1977843060062985,0.11585975234241572,0.03502712690039784
0.5429999999999999,0.0018,-3.564,0.04354967399947054,1.1977843060062985,0.11092413902254172,0.03502712690039784
0.544,0.0311,0.436,0.042071874914121975,1.2057783382046456,0.10686061866679311,0.03568111475523259
0.5449999999999999,0.0261,0.436,0.04178226505428674,1.1977843060062985,0.10606427525831928,0.03502712690039784
0.546,-0.0071,-1.564,0.04007241984775472,1.1900667751760226,0.10136269513771497,0.03439575948692197
0.5469999999999999,-0.0198,1.436,0.032011757098958246,1.1987680226838269,0.07919820235564422,0.03510760427949008
0.548,-0.0317,1.436,0.03126201560292184,1.1816340082182206,0.07713662993967892,0.033705878956518984
0.5489999999999999,0.0083,2.436,0.03126339770680732,1.2057783382046456,0.07714043032589385,0.03568111475523259
0.55,0.0348,2.436,0.03103836007333562,1.2057783382046456,0.076521641876579,0.03568111475523259
0.5509999999999999,0.0015,-0.564,0.0313005527855389,1.2133959433015626,0.07724259605345594,0.03630430729345393
0.552,0.0144,-0.564,0.03155466090415622,1.2133959433015626,0.07794131993466535,0.03630430729345393
0.5529999999999999,-0.0217,-0.564,0.031040719113329607,1.2137197197261496,0.07652812855472804,0.03633079528400836
0.554,0.0022,-0.564,0.030711132723925973,1.2137197197261496,0.07562186124437613,0.03633079528400836
0.5549999999999999,0.0065,-1.564,0.029839792674813594,1.2048003454470186,0.0732259279531385,0.03560110564722116
0.556,-0.0134,-2.564,0.02986506082280162,1.2133959433015629,0.07329540805684095,0.03630430729345394
0.5569999999999999,0.0048,-1.564,0.028956874642879077,1.2137197197261496,0.07079815855552976,0.03633079528400836
0.558,-0.018,0.436,0.028664167183526726,1.2133959433015629,0.0699932976436845,0.03630430729345394
0.5589999999999999,-0.0151,0.436,0.028969936668814388,1.2048003454470186,0.07083407535152841,0.03560110564722116
0.56,0.02,0.436,0.02941753244543465,1.196142980399008,0.07206483436841774,0.0348928508571741
0.5609999999999999,0.0246,0.436,0.029354868752854892,1.1884147908961287,0.07189252732553975,0.034260611462918276
0.562,0.0028,-0.564,0.029238253397371353,1.1964714256467872,0.07157186880335067,0.03491972080186486
0.563,-0.049,1.435999999999889,0.029376503095746714,1.1964714256467872,0.07195201551550802,0.03491972080186486
0.5640000000000001,-0.0421,0.435999999999889,0.029157862242200464,1.2443474197600606,0.07135081636212387,0.03883643240764181
0.565,-0.0359,-0.5639999999997779,0.029199674764626652,1.236602742959498,0.07146578871370299,0.03820284419564591
0.5660000000000001,0.0407,1.435999999999889,0.029220084458366914,1.2443474197600606,0.0715219094724654,0.03883643240764181
0.567,0.0925,0.436000000000111,0.029262001825081693,1.2446631447483911,0.07163717011553496,0.03886226171414357
0.5680000000000001,0.0454,1.4359999999996669,0.029478529207278975,1.2456098395521993,0.07223255783356707,0.03893971035189783
0.569,0.0201,-1.563999999999889,0.02911474785693137,1.2456098395521993,0.07123226426400477,0.03893971035189783
0.5700000000000001,-0.0187,-0.564,0.02892122878313414,1.228169573415463,0.07070014274397068,0.03751293072986058
0.571,-0.0118,-0.564,0.028945374223931855,1.228169573415463,0.07076653572739637,0.03751293072986058
0.5720000000000001,-0.0056,-0.564000000000111,0.028647609297767884,1.2284894561594553,0.06994776824358115,0.03753910018031456
0.573,-0.0114,-1.563999999999667,0.028447204331083227,1.2284894561594553,0.06939671250833947,0.03753910018031456
0.5740000000000001,-0.0063,1.436,0.028299254176106337,1.2294486050214768,0.06898989234425543,0.03761756767846529
0.575,-0.0204,1.435999999999889,0.02844847439252587,1.2304070061908607,0.06940020481022029,0.037695974008247916
0.5760000000000001,-0.0161,0.436,0.02844702678971245,1.2304070061908607,0.0693962243208847,0.037695974008247916
0.577,-0.036,0.436,0.028442309739621828,1.2219310774557306,0.06938325379650669,0.03700256243400305
0.5780000000000001,-0.0469,0.436,0.028412825875058802,1.2219310774557308,0.0693021816906935,0.03700256243400307
0.579,-0.024,1.436,0.0284336101918758,1.2307263073953487,0.06935933255463946,0.037722095883240166
0.5800000000000001,0.0206,1.436,0.0284069660033899,1.2307263073953487,0.06928606873728547,0.037722095883240166
0.581,0.0526,-0.564,0.028406588121622615,1.238190436908686,0.06928502967164478,0.038332732659214816
0.5820000000000001,0.0468,-1.564,0.02839989557318017,1.2297681550685435,0.06926662709777846,0.037643709911146905
0.583,-0.0329,-0.564,0.028148742469970556,1.2297681550685435,0.06857602865485077,0.037643709911146905
0.5840000000000001,0.0012,-2.564,0.02817609522898412,1.2294486050214768,0.06865124083635735,0.03761756767846529
0.585,0.0531,0.436,0.02821962979275464,1.2294486050214768,0.06877094830391098,0.03761756767846529
0.5860000000000001,-0.0129,-1.564,0.028301434934952994,1.236920444784703,0.06899588880077799,0.03822883522620318
0.587,-0.0381,0.436,0.028294547119576095,1.236920444784703,0.06897694929928001,0.03822883522620318
0.5880000000000001,0.0163,0.436,0.028556350256173525,1.2369204447847033,0.06969683225584009,0.0382288352262032
0.589,0.0515,-0.564,0.0285700366489514,1.2452943545836148,0.06973446588019473,0.03891390068129383
0.5900000000000001,0.0196,-0.564,0.02845869799135192,1.2456098395521993,0.06942831675206038,0.03893971035189783
0.591,0.0139,0.436,0.028463342489737795,1.2688467940324348,0.06944108778022,0.04084071420531791
0.5920000000000001,-0.0016,0.436,0.028024079338966543,1.2760879676039267,0.06823324107603271,0.041433111065000965
0.593,0.0031,1.436,0.027989154590417908,1.251730328545511,0.06813720811184035,0.03944042455568892
0.5940000000000001,0.0074,0.436,0.02801592422532602,1.201534620422948,0.06821081687059757,0.03533393828412076
0.595,-0.0284,-0.564,0.02784318055934912,1.2018615922419484,0.06773582171734358,0.03536068768832552
0.5960000000000001,-0.0425,-1.564,0.027787063288588234,1.2018615922419484,0.06758151544235212,0.03536068768832552
0.597,-0.0555,-1.564,0.027871102630661688,1.2170981536345442,0.06781259934312382,0.03660718330567643
0.5980000000000001,-0.0277,2.436,0.027800485191914647,1.2331026205264437,0.06761842179716077,0.03791650089543686
0.599,0.0267,-0.564,0.027659694141932274,1.2723876716969225,0.06723128710261218,0.04113039167102906
0.6000000000000001,0.05,1.436,0.027794117847556574,1.2492165836031728,0.06760091344053258,0.03923477631439444
0.601,0.0432,-0.564,0.027587564420932707,1.2334212239055304,0.06703295121755033,0.037942565681675165
0.6020000000000001,0.0113,-0.564,0.02768940343793449,1.2334212239055304,0.06731297907972657,0.037942565681675165
0.603,-0.0061,-1.564,0.0277177726038299,1.2418187300939094,0.06739098608638568,0.0386295615458193
0.6040000000000001,-0.0326,0.436,0.027639147515908766,1.2418187300939096,0.06717478981964846,0.03862956154581932
0.605,-0.0185,-1.564,0.027723571624819903,1.2501598302791064,0.06740693171801444,0.03931194286249783
0.6060000000000001,-0.0228,-0.564,0.027775238356278726,1.2501598302791066,0.06754900029626668,0.03931194286249785
0.607,-0.0108,0.436,0.027881979277797914,1.2249661516748873,0.06784250697906603,0.03725086036783687
0.6080000000000001,0.0436,-0.564,0.02789947812747193,1.21612926413532,0.0678906237579689,0.03652791893077179
0.609,0.0512,-0.564,0.028452673365729667,1.2249661516748873,0.06941175077289954,0.03725086036783687
0.6100000000000001,-0.0127,-0.564,0.028538278593009486,1.2252868707288986,0.06964714040540022,0.037277098236403475
0.611,-0.0381,1.436,0.02848373061133892,1.225607505856606,0.06949714922183478,0.037303329239000316
0.6120000000000001,-0.0305,1.436,0.02838460139903179,1.2259280571238609,0.06922457253935271,0.03732955338101464
0.613,-0.0237,3.436,0.02840466443506946,1.23437654063698,0.06927974008962763,0.038020719675102614
0.6140000000000001,-0.0299,0.436,0.02808218386719743,1.22656890833999,0.06839301173468872,0.037381981104809794
0.615,0.011,1.436,0.027767607475190484,1.2265689083399904,0.06752801757883113,0.03738198110480983
0.6160000000000001,0.0161,-0.564,0.027575172977304933,1.2262485245964312,0.06699887832907869,0.03735577066782691
0.617,0.0401,-1.564,0.02727859036099221,1.2183888077729381,0.06618336185563083,0.03671277108795686
0.6180000000000001,0.0005999999999941158,-0.564,0.025682015620584888,1.2183888077729377,0.061793242778253696,0.03671277108795682
0.619,-0.0259,1.436,0.025308799630829642,1.2104780583462897,0.06076700667721863,0.036065596555842926
0.6200000000000001,-0.011799999999997113,1.436,0.025235456038140914,1.2104780583462913,0.06056533299585748,0.03606559655584305
0.621,0.0012,-0.564,0.025168544599435672,1.2101534146158386,0.06038134587886245,0.03603903761142096
0.6220000000000001,0.01299999999999436,0.436,0.02517680482628765,1.2187112577381927,0.06040405911524816,0.036739150561523645
0.623,-0.0124,-1.564,0.02517448545884523,1.2421350978228998,0.060397681525149356,0.03865544343461931
0.6240000000000001,0.03019999999999347,-1.564,0.02518489229203256,1.233421223905543,0.06042629730852267,0.0379425656816762
0.625,0.0008,0.436,0.025304021238195893,1.2492165836031852,0.06075386747857687,0.03923477631439546
0.6260000000000001,0.016399999999996848,-0.564,0.02525985616258657,1.2415022817460508,0.060632426285703665,0.0386036730616292
0.627,0.0022,-0.564,0.02523652056182112,1.2492165836031865,0.06056826012829827,0.03923477631439557
0.6280000000000001,-0.010899999999999134,-1.564,0.025014631910130394,1.2492165836031865,0.059958130468729415,0.03923477631439557
0.629,-0.007,0.436,0.02458564131092577,1.2492165836031865,0.058778530312269976,0.03923477631439557
0.6300000000000001,-0.0033999999999991784,1.436,0.024468737785089664,1.2492165836031865,0.058457079404901365,0.03923477631439557
0.631,0.0003,-0.564,0.024382300085712585,1.241502281746051,0.058219400714743026,0.03860367306162922
0.6320000000000001,-0.009500000000000643,0.436,0.02384278928651263,1.289839309400575,0.056735901952001455,0.04255810159538047
0.633,-0.0124,0.436,0.023426152201329212,1.2817564516098674,0.055590270388558405,0.041896846962384104
0.6340000000000001,-0.031300000000001556,-1.564,0.02345129781669612,1.2898393094005751,0.05565941356296845,0.04255810159538049
0.635,-0.0383,1.436,0.02365595580255102,1.2657463246686063,0.056222163871676174,0.0405870663267604
0.6360000000000001,-0.004599999999990385,-0.564,0.023412456294017718,1.2657463246686063,0.05555261060198628,0.0405870663267604
0.637,0.0387,0.436,0.024339309785634138,1.2657463246686063,0.05810118981503381,0.0405870663267604
0.6380000000000001,0.009099999999989342,-1.564,0.024880609677289896,1.2742391628242133,0.05958960806492661,0.041281861252404135
0.639,-0.0389,-0.564,0.025420029248288397,1.2742391628242131,0.06107285597648191,0.04128186125240412
0.6400000000000001,0.0055000000000012435,2.436,0.02499023781927618,1.274239162824213,0.059891053769515805,0.0412818612524041
0.641,0.0111,1.436,0.025292598682452774,1.274239162824213,0.06072245875174992,0.0412818612524041
0.6420000000000001,0.026599999999996845,-0.564,0.025484084388296396,1.2745474831901644,0.06124898909761687,0.04130708479037937
0.643,0.0124,0.436,0.025832707145971672,1.282062964161647,0.06220760091862538,0.0419219226039683
0.6440000000000001,-0.0006999999999955813,-0.564,0.026649085516194805,1.282062964161647,0.06445240547851731,0.0419219226039683
0.645,0.0192,0.436,0.027006830729651,1.2895346452280794,0.0654361014162557,0.042533177168799285
0.6460000000000001,0.022799999999994915,2.436,0.027126091943521974,1.2895346452280785,0.06576403528427652,0.04253317716879921
0.647,-0.0001,2.436,0.02686917350802277,1.2886202205262811,0.06505758384390913,0.04245836853226907
0.6480000000000001,-0.015000000000002997,3.436,0.02629614845289215,1.2802227880671142,0.06348193056399927,0.04177137869987563
0.649,-0.0285,0.436,0.026149909163348608,1.2648147018112041,0.0630798147853647,0.04051085071755215
0.6500000000000001,0.008100000000003486,1.436,0.02643165917569076,1.264504008331461,0.06385454588496794,0.040485433036301074
0.651,0.0238,-0.564,0.026105870918281062,1.256883538724955,0.0629587223398235,0.03986200615395469
0.6520000000000001,0.019099999999997112,-1.564,0.026144130326157932,1.2565708842267247,0.06306392465335035,0.03983642804274263
0.653,0.0061,-0.564,0.026289583050437288,1.2638823922436253,0.06346387760484974,0.040434578928921015
0.6540000000000001,-0.021699999999999203,-1.564,0.026328862916896612,1.2783799631164896,0.06357188588453473,0.04162061809416477
0.655,-0.0181,-1.564,0.02612703636724544,1.2786872850424185,0.06301692120701594,0.04164575995025129
0.6560000000000001,-0.027799999999991384,0.436,0.026275326250825425,1.2705334824780168,0.06342467552656657,0.040978701360101795
0.657,0.011,0.436,0.027567288003132698,1.2786872850424185,0.06697719692910281,0.04164575995025129
0.6580000000000001,0.05869999999999292,-1.564,0.028313398503081094,1.2786872850424185,0.06902878515529458,0.04164575995025129
0.659,0.0268,-0.564,0.02817564760458304,1.2858730447700828,0.06865000999863147,0.0422336234305391
0.6599999999999999,0.0094,-0.564,0.027752489632554993,1.2858730447700828,0.06748644788110066,0.0422336234305391
0.661,-0.0063,-0.564,0.027723287655066316,1.2858730447700828,0.06740615088326798,0.0422336234305391
0.6619999999999999,-0.011,-1.564,0.02749690880049096,1.2783799631164896,0.06678367446357183,0.04162061809416477
0.663,-0.0241,0.436,0.027344381822922568,1.2793017074138604,0.06636426936020234,0.04169602554322012
0.6639999999999999,-0.0042,0.436,0.027242147850295034,1.241185752717613,0.06608315548420948,0.03857777797700047
0.665,-0.015,0.436,0.027218857095493865,1.241185752717613,0.06601911264024402,0.03857777797700047
0.6659999999999999,-0.0052,0.436,0.027307117332113908,1.2337397450078582,0.0662618027810517,0.03796862373689216
0.667,0.0098,0.436,0.027632434741283428,1.2337397450078582,0.06715633162962516,0.03796862373689216
0.6679999999999999,0.0125,0.436,0.028084629925167724,1.2337397450078582,0.06839973768712175,0.03796862373689216
0.669,0.0057,-1.564,0.028220140074423253,1.2334212239055322,0.06877235143101271,0.03794256568167531
0.6699999999999999,0.0037,0.436,0.028116734993307753,1.2259280571238627,0.06848801734516398,0.037329553381014784
0.671,0.0135,-1.564,0.028192246363321814,1.2433997637804277,0.06869565178761611,0.038758905136564575
0.6719999999999999,0.0045,2.436,0.02819291818975154,1.2507882662170908,0.06869749911611955,0.039363354898474937
0.673,-0.0135,0.436,0.02835840320283906,1.2507882662170908,0.06915253507189958,0.039363354898474937
0.6739999999999999,-0.0253,2.436,0.028581262536976806,1.2498454938159576,0.06976533382764094,0.039286227150560425
0.675,-0.0139,0.436,0.028616303025748573,1.2877051464737128,0.06986168504399447,0.04238350677267073
0.6759999999999999,-0.0119,1.436,0.028697815301179756,1.2877051464737128,0.07008582024189917,0.04238350677267073
0.677,-0.0135,0.436,0.028653303569748254,1.2948408622653282,0.06996342584570907,0.042967276183085906
0.6779999999999999,-0.0086,0.436,0.02868366614225887,1.3019374689013106,0.07004691414440475,0.043547846092653164
0.679,0.002,1.436,0.028862284992048844,1.293930187489927,0.0705380643550376,0.04289277432619572
0.6799999999999999,0.001,0.436,0.029238396690534074,1.3178060777641065,0.07157226281813207,0.04484604920366107
0.681,-0.0127,-3.564,0.030418400058990797,1.3566657925772239,0.07481693102446328,0.04802514342039133
0.6819999999999999,0.0148,-0.564,0.031401822261342964,1.364304920309467,0.07752105784195322,0.04865009671485659
0.683,0.0347,-1.564,0.03180660493353168,1.4087126346087608,0.07863409319594736,0.0522830700494792
0.6839999999999999,0.0311,-0.564,0.03178268214144962,1.4163484643862272,0.07856831243213748,0.052907753539881086
0.685,0.0409,0.436,0.031639400355099566,1.4155159639067736,0.07817432893247646,0.052839647083815104
0.6859999999999999,0.0678,-1.564,0.031422855765960274,1.4163484643862272,0.07757889390032716,0.052907753539881086
0.687,0.0642,-1.564,0.03142822680351596,1.4163484643862272,0.07759366270121179,0.052907753539881086
0.688,0.0546,0.435999999999889,0.031199837471525254,1.416348464386227,0.07696565804971267,0.052907753539881065
0.6890000000000001,0.022,-0.564,0.03118836196142523,1.4089915293350028,0.07693410371370964,0.05230588629029662
0.69,-0.0436,-0.564,0.03099988456450509,1.4089915293350028,0.07641584534788934,0.05230588629029662
0.6910000000000001,-0.0341,-0.5639999999997779,0.031029084691010317,1.3881025954160078,0.0764961372560525,0.050596972847804726
0.692,-0.0423,1.436,0.031011687809680433,1.3889515268341652,0.07644830086062405,0.050666423510910316
0.6930000000000001,-0.0655,1.436,0.03096443881046571,1.3889515268341652,0.07631837976918389,0.050666423510910316
0.694,-0.0444,1.435999999999778,0.03129508419037007,1.3889515268341652,0.07722755899733226,0.050666423510910316
0.6950000000000001,-0.0381,-0.5639999999997779,0.03182661905080723,1.4095491532403748,0.07868912623376545,0.0523515052286034
0.696,-0.0205,1.435999999999889,0.031844410917143844,1.409827882484983,0.0787380487237997,0.0523743079314495
0.6970000000000001,0.0061,0.436000000000111,0.031834705816488396,1.3958511743962982,0.078711362502067,0.051230880295211
0.698,0.0014,1.435999999999889,0.03187276518015342,1.3747625928597245,0.07881601475183016,0.04950563377900817
0.6990000000000001,-0.0468,0.436,0.03198858109290216,1.331583853180913,0.07913447503756184,0.04597320225554587
0.7,-0.028,0.436,0.031905230458266966,1.3547963265917238,0.07890528488318792,0.04787220332467887
0.7010000000000001,-0.0454,0.436000000000111,0.031963237135740896,1.3556661148825437,0.07906478648054414,0.047943360278311274
0.702,-0.0298,1.436000000000111,0.03202732389704214,1.355376247471268,0.079241006551096,0.04791964636751093
0.7030000000000001,-0.0156,2.435999999999667,0.03239590177616407,1.347394925976207,0.08025448918844473,0.047266698369080214
0.704,-0.0024,-0.564,0.032562250813566875,1.34710327878563,0.08071190096136246,0.04724283885540782
0.7050000000000001,0.0335,-0.564,0.032529187981366836,1.3607144712941286,0.0806209877289782,0.048356363841236163
0.706,0.0865,-1.564,0.03249583698871181,1.3598479120456664,0.08052928213862985,0.04828547105397591
0.7070000000000001,0.0655,0.436,0.03341529207761513,1.3601368264723928,0.08305751788258015,0.048309107001577506
0.708,0.0335,1.436,0.036002843675613745,1.3680438123061922,0.09017253689582928,0.04895597363600568
0.7090000000000001,0.0159,-0.564,0.03657792585521029,1.3680438123061922,0.09175384667344878,0.04895597363600568
0.71,0.0001,-0.564,0.03671430559270052,1.390365260660711,0.0921288515336477,0.05078208038213498
0.7110000000000001,0.0143,0.436,0.03677451381361807,1.3978202319624513,0.09229440673916073,0.05139196792930895
0.712,0.0098,-1.564,0.03677486340920219,1.4052356541573354,0.09229536802597328,0.05199861998344116
0.7130000000000001,-0.0022,-1.564,0.03676855169601417,1.4052356541573354,0.09227801263898365,0.05199861998344116
0.714,-0.0277,0.436,0.036834983818845944,1.4052356541573354,0.09246068177586353,0.05199861998344116
0.7150000000000001,-0.0245,-0.564,0.036889163022106305,1.4120557357567587,0.0926096589253891,0.05255656751534214
0.716,-0.0452,-0.564,0.03688315078567517,1.419673584506815,0.09259312701292297,0.05317977998670734
0.7170000000000001,-0.0642,-1.564,0.03708119207415126,1.4264246365353463,0.09313768331626611,0.053732080243257464
0.718,-0.0276,0.436,0.038055754720774826,1.493835289578225,0.09581744891618392,0.05924691271861793
0.7190000000000001,0.0095,-0.564,0.04074578885724669,1.626907746432064,0.10321426528965852,0.07013350517110097
0.72,0.0238,-2.564,0.04412433043315227,1.743715020509139,0.11250427812194902,0.07968945099510652
0.7210000000000001,0.0023,1.436,0.04702101290731917,1.896059380116865,0.12046931769641941,0.09215266836326158
0.722,-0.0332,0.436,0.04746461887292739,1.9417327612059667,0.12168910588620255,0.0958891852774276
0.7230000000000001,-0.0377,1.436,0.04782623793018111,1.9583261150608062,0.12268345377472525,0.0972466794209068
0.724,-0.0333,3.436,0.05094290829232381,2.009718982118226,0.13125339645792705,0.10145110467799283
0.7250000000000001,-0.0216,0.436,0.0525186815083899,2.0455980267164797,0.13558631735564008,0.1043863517258073
0.726,0.0036,1.436,0.05285307618378294,2.060783544043541,0.13650580606272172,0.10562867145318271
0.7270000000000001,0.0134,1.436,0.05374751247882686,2.061355462770785,0.13896524735475232,0.10567545984385837
0.728,0.0339,-0.564,0.05379993738610332,2.066010769832414,0.13910940069736719,0.10605630823216751
0.7290000000000001,0.0473,-2.564,0.05434597703029463,2.1131155031700914,0.14061085189679987,0.10990992337202649
0.73,0.084,-3.564,0.054699592207288344,2.1223739743283594,0.14158319142797277,0.11066735435824356
0.7310000000000001,0.078,-1.564,0.05470407713553094,2.1223739743283594,0.14159552368435901,0.11066735435824356
0.732,0.0515,-3.564,0.055133807933660205,2.09830874783562,0.14277715917392117,0.10869858997756553
0.7330000000000001,-0.0015,-1.564,0.05655545420205894,2.1272651761681685,0.14668627551293265,0.11106750118270117
0.734,-0.0085,1.436,0.057262451001701194,2.1368301225341293,0.1486303123683336,0.11185000475540101
0.7350000000000001,0.0102,-1.564,0.05758068627200325,2.1511891265604914,0.14950536738197545,0.11302470783486894
0.736,-0.0074,-0.564,0.05744140122913211,2.1561971950392103,0.14912237377170082,0.1134344154617584
0.7370000000000001,0.0081,0.436,0.05705946944329699,2.151371771931463,0.1480721717505767,0.11303964996312078
0.738,0.0033,-0.564,0.05681182125609323,2.146352444357789,0.14739121081363757,0.11262902123519314
0.7390000000000001,-0.0185,-0.564,0.05732715941035245,2.1508237892884723,0.14880824178942298,0.11299481977176251
0.74,-0.0145,0.436,0.05729094692201665,2.1551035443584508,0.14870866791301196,0.11334494443576025
0.7410000000000001,-0.0038,-1.564,0.057157615259777375,2.159374817219903,0.14834204437876658,0.1136943751744371
0.742,-0.0203,-0.564,0.058162473485545485,2.159192848823851,0.1511051140649865,0.11367948842917153
0.7430000000000001,-0.04700000000000242,0.436,0.05822529748475086,2.154738870778427,0.15127786190475143,0.11331511066897058
0.744,-0.0579,2.436,0.059108627709558874,2.1552858580099747,0.153706764713626,0.11335985942620673
0.7450000000000001,-0.021899999999990385,-0.564,0.059129086613987296,2.165271461286906,0.15376302078755744,0.11417677673455352
0.746,0.0214,1.436,0.059038333460706784,2.1933440290017976,0.15351347584646233,0.1164733797358976
0.7470000000000001,0.015600000000003441,0.436,0.05900271366672186,2.1891390351507387,0.15341553170820946,0.11612937125056576
0.748,0.0311,-0.564,0.059736994273935445,2.1891390351507387,0.15543459114857994,0.11612937125056576
0.7490000000000001,0.016800000000000908,-2.564,0.06075155174490023,2.1989709153480055,0.15822433095571334,0.11693371254913248
0.75,0.0209,-1.564,0.060669956983544146,2.2131042937558876,0.1579999689453561,0.11808995730737222
0.7510000000000001,-0.031200000000004682,0.436,0.06070345820341378,2.2179725653631546,0.15809208761712437,0.1184882282207478
0.752,-0.0523,0.436,0.060957899347029776,2.2228301748821213,0.15879172722082577,0.11888562687390694
0.7530000000000001,-0.033399999999996134,0.436,0.06118698701394934,2.231633514611,0.1594216520915392,0.1196058237810274
0.754,-0.016,2.436,0.06157573580715975,2.2316335146110036,0.16049059891262252,0.11960582378102769
0.7550000000000001,0.01060000000001601,1.436,0.061592261127312246,2.2357585866707956,0.16053603876672087,0.11994329390380001
0.756,0.0827,-0.564,0.061555637493244546,2.2617411625883403,0.16043533435838075,0.12206891570088378
0.7570000000000001,0.13449999999998952,-1.564,0.060947155639660994,2.2612199269536246,0.15876218513082038,0.12202627366915897
0.758,0.0873,-1.564,0.06059627374651664,2.274966612182794,0.15779736134023087,0.12315088324803604
0.7590000000000001,-0.04139999999999591,-2.564,0.06051809410844223,2.270912761910797,0.15758238993182355,0.12281923974480465
0.76,-0.023,-1.564,0.060499935982861894,2.275484698924772,0.15753246033472915,0.12319326767038984
0.7610000000000001,-0.006499999999996625,-1.564,0.06077758506284993,2.280047468337489,0.15829591505565296,0.12356654559901081
0.762,0.0087,-1.564,0.06076108441811453,2.284257125421908,0.15825054305181968,0.12391093558117756
0.7630000000000001,-0.032699999999997266,0.436,0.06075611832448154,2.2923104597141775,0.1582368877296813,0.12456977491124148
0.764,-0.0204,1.436,0.06077415433911069,2.2876003929996505,0.15828648155695374,0.1241844466625763
0.7650000000000001,0.013499999999988431,-1.564,0.06150909002472756,2.2876003929996505,0.16030734227359564,0.1241844466625763
0.766,-0.0386,1.436,0.062436287319205114,2.3010187404093476,0.16285686684514178,0.12528219508541977
0.7670000000000001,-0.08610000000001332,4.436,0.0622736264220386,2.3143592913326763,0.16240959639188893,0.12637357901585544
0.768,-0.1461,6.436,0.06197198188982908,2.323154056925479,0.16158016111277282,0.12709307447710724
0.7690000000000001,-0.16939999999999847,6.436,0.06199947169454828,2.3233231835112274,0.16165575013035952,0.12710691064016796
0.77,-0.1625,7.436,0.06202721531580478,2.3233231835112274,0.1617320370700631,0.12710691064016796
0.7710000000000001,-0.06609999999997225,4.436,0.062223674490243346,2.3098643004614887,0.16227224301708218,0.12600584601648654
0.772,0.0589,-3.564,0.06226886744763013,2.3098643004614883,0.16239651058775426,0.1260058460164865
0.7730000000000001,0.17599999999998983,-4.564,0.06226727378329883,2.3098643004614883,0.1623921284714607,0.1260058460164865
0.774,0.1302,-4.564,0.0622004649853383,2.3057013964036783,0.16220842358684734,0.12566528087650458
0.7750000000000001,0.061000000000008305,-2.564,0.062290409901910454,2.2802197921918856,0.1624557461105995,0.12358064332905211
0.776,0.0984,-1.564,0.06262561925429382,2.2802197921918856,0.16337747494393806,0.12358064332905211
0.7770000000000001,-0.027300000000011104,1.436,0.06262512873975781,2.276002667734605,0.16337612617073768,0.12323564244477267
0.778,-0.0773,4.436,0.06298632338098933,2.2765205186928013,0.1643693070378685,0.12327800757777087
0.7790000000000001,-0.06209999999998464,2.436,0.06294878297700057,2.2810812161912963,0.1642660817772199,0.12365111600410517
0.78,0.0071,0.436,0.06278414286905583,2.271604750729102,0.16381336906637917,0.12287585101076207
0.7810000000000001,0.06990000000001266,-1.564,0.062404382172074405,2.2443361540128723,0.16276913691209188,0.12064502048264783
0.782,0.1269,-3.564,0.06242912671685106,2.2438108752109636,0.16283717725830035,0.12060204768139722
0.7830000000000001,0.09619999999999373,-2.564,0.06259723005212876,2.220531024227724,0.16329941284332852,0.11869753448609768
0.784,0.068,-2.564,0.06280794844845286,2.2288146307470456,0.16387882752918329,0.11937521227415893
0.7850000000000001,0.00829999999999487,-1.564,0.06282729892032005,2.2288146307470456,0.1639320357339421,0.11937521227415893
0.786,-0.0148,-0.564,0.06398842624805233,2.2241467612099375,0.16712480028403198,0.11899333615588997
0.7869999999999999,-0.036,0.436,0.06419727721064906,2.2288146307470456,0.16769908006688172,0.11937521227415893
0.788,-0.0941,1.436,0.06420083540926647,2.23312086896358,0.16770886408465177,0.11972750351139227
0.7889999999999999,-0.0082,1.436,0.06420003683982686,2.2331208689635798,0.16770666824950375,0.11972750351139223
0.79,-0.0194,1.436,0.06418051746688172,2.237770019066322,0.1676529956155981,0.12010784820191349
0.7909999999999999,-0.1129,0.436,0.06460874915913163,2.2425847462013464,0.1688305089972793,0.12050173866826666
0.792,-0.0502,0.436,0.06553352231195765,2.237945598325286,0.1713733678799345,0.12012221225500637
0.7929999999999999,0.1211,-1.564,0.06550355147738131,2.251659873676837,0.17129095674733388,0.12124417039768542
0.794,0.0471,-2.564,0.0655280704203822,2.2788408364894917,0.17135837675386478,0.1234678316391133
0.7949999999999999,-0.0195,-3.564,0.06591152005215821,2.2797027815505455,0.17241275241262263,0.12353834694196392
0.796,0.001,-0.564,0.06635215392219873,2.2837410287829103,0.1736243681986208,0.12386871396817288
0.7969999999999999,0.0936,0.436,0.06666879407324344,2.2837410287829107,0.17449503709534298,0.12386871396817292
0.798,0.1106,-2.564,0.06667109617703976,2.296497637900714,0.1745013672154047,0.1249123259057934
0.7989999999999999,0.0347,-2.564,0.06678288819548034,2.3090136145959077,0.174808762954817,0.1259362518228974
0.8,-0.0345,-1.564,0.06739645519481427,2.295641998815667,0.1764958948634289,0.1248423264917482
0.8009999999999999,-0.0718,-1.564,0.06809897265587651,2.3350224228518,0.17842761483240013,0.12806401967472023
0.802,-0.0607,2.436,0.06803056250446733,2.339637023318694,0.17823950668864288,0.12844153787647167
0.8029999999999999,-0.0708,2.436,0.06786477352238143,2.339804958477307,0.1777836349059736,0.1284552765694626
0.804,0.0145,1.436,0.06778751110484008,2.339804958477307,0.1775711855889275,0.1284552765694626
0.8049999999999999,0.0259,3.436,0.06776972338765716,2.3274545693115676,0.1775222745078667,0.12744489728695904
0.806,-0.0048,1.436,0.0678683463341663,2.323323183511224,0.17779345910573055,0.1271069106401677
0.8069999999999999,0.0047,-2.564,0.06753567790866583,2.323323183511224,0.17687871708691463,0.1271069106401677
0.808,0.0132,-0.564,0.06628522099741889,2.3186761156698577,0.17344032200113074,0.12672673629842873
0.8089999999999999,0.0057,-1.564,0.06588203125096287,2.318167681787398,0.17233166673249745,0.12668514157177954
0.81,-0.058,-1.564,0.06579829474874584,2.318167681787398,0.17210141555380096,0.12668514157177954
0.8109999999999999,0.0018,1.436,0.06638016657314402,2.3269480535059204,0.17370139489221076,0.1274034594772335
0.812,-0.0059,2.436,0.06654864281372785,2.3356954181884304,0.17416465585904978,0.12811907709325396
0.813,0.015,0.436,0.06654629343147,2.357338493345683,0.17415819573688374,0.12988968646070753
0.8140000000000001,0.0988,0.43599999999966693,0.06647973467258106,2.3575051675533456,0.1739751783874483,0.12990332199591942
0.815,0.11,-2.564,0.06645249285918298,2.3580051194887237,0.17390027127431765,0.1299442228186364
0.8160000000000001,-0.0041,-2.564,0.06643903524119274,2.353426535473789,0.1738632667145061,0.12956965110516158
0.817,-0.0194,-2.563999999999778,0.06634875888816616,2.3534265354737887,0.17361503283629948,0.12956965110516155
0.8180000000000001,-0.0332,-0.564,0.0658614395109786,2.311224746578726,0.17227504539918093,0.12611714344633856
0.819,-0.0208,-0.5639999999998889,0.06460929611203303,2.2195663734582256,0.1688320129596721,0.11861861687959374
0.8200000000000001,-0.0548,0.436000000000111,0.06294305112372797,2.128474594714174,0.1642503208374005,0.11116644312099648
0.821,-0.0238,1.435999999999889,0.06135393437546216,2.0427338614802393,0.15988070908282556,0.10415203577207266
0.8220000000000001,-0.0329,0.436,0.06101757921047574,2.0232517074426015,0.15895582959600335,0.10255821030195893
0.823,-0.0243,0.435999999999889,0.061125555024276204,1.9974028781175406,0.15925273187565472,0.10044353024803301
0.8240000000000001,-0.0472,-0.5639999999998889,0.05988209998706944,1.945886658103832,0.15583358991972637,0.09622901354607047
0.825,-0.0682,0.436,0.05854193970667721,1.9091629580849383,0.1521485364957996,0.09322466565241086
0.8260000000000001,0.0026,0.43599999999977795,0.05829940514596242,1.8978302951523083,0.1514816365537113,0.09229754605406743
0.827,0.0687,-1.564,0.05749269176164866,1.897209081968457,0.14926340791159476,0.0922467249080648
0.8280000000000001,0.026,-1.563999999999667,0.057498025400496526,1.8923461592336808,0.14927807387684225,0.09184889158332525
0.829,-0.0128,1.435999999999889,0.05700709836510129,1.8448120540750932,0.14792816642237572,0.08796014974530991
0.8300000000000001,-0.0479,0.436000000000111,0.05696533922225526,1.83479559793087,0.1478133408492137,0.08714070837901654
0.831,-0.0799,1.436,0.05702667753035526,1.840664709242117,0.14798200346784884,0.08762085749788326
0.8320000000000001,-0.0689,1.436000000000111,0.056597082861428935,1.8517106725082082,0.14680074229424928,0.0885245223370702
0.833,-0.0514,2.436,0.05516179269482162,1.824078049047774,0.14285410917866648,0.08626391095948752
0.8340000000000001,0.0178,1.436,0.05451370425325054,1.8122133863571912,0.141072053281651,0.08529326872177467
0.835,0.1218,-0.564,0.05434998733133767,1.8122133863571912,0.14062187906556903,0.08529326872177467
0.8360000000000001,0.0523,-1.564,0.05435093361943365,1.8122133863571912,0.14062448108432687,0.08529326872177467
0.837,-0.0105,1.436,0.05461169539710623,1.8119965548700043,0.14134150060482809,0.085275529844116
0.8380000000000001,0.0007,-0.564,0.054859470791414316,1.8172907505485552,0.14202281132453734,0.08570864539694137
0.839,-0.0096,-1.564,0.05433041704034664,1.817290750548555,0.14056806642175404,0.08570864539694135
0.8400000000000001,0.0757,-1.564,0.054540507809175215,1.8172907505485552,0.14114575531339957,0.08570864539694137
0.841,0.1098,-0.564,0.05451412321972202,1.8172907505485552,0.14107320531835352,0.08570864539694137
0.8420000000000001,-0.0045,-2.564,0.05354873744043669,1.8232162125464435,0.13841867345122158,0.08619340453785465
0.843,-0.0503,-3.564,0.05375823520959882,1.8234317098601833,0.13899473176517935,0.08621103426743773
0.8440000000000001,-0.0916,-2.564,0.052754321576455564,1.8175069504298365,0.13623425943566173,0.08572633260323057
0.845,-0.0794,1.436,0.05254414665661161,1.8062518296265697,0.13565633915304612,0.08480555668847302
0.8460000000000001,-0.0683,1.436,0.05269462688472686,1.7720576016413883,0.13607011628699242,0.08200814366174253
0.847,-0.0165,2.436,0.05273647771367324,1.7720576016413883,0.13618519397043033,0.08200814366174253
0.8480000000000001,0.0496,2.436,0.05197774151113682,1.7722793195110254,0.1340988887113342,0.08202628229195376
0.849,0.0923,-0.564,0.05078912287784201,1.7548225838253837,0.1308305310167723,0.08059815530419524
0.8500000000000001,0.0998,-4.564,0.05073818370363651,1.754822583825384,0.1306904630106805,0.08059815530419526
0.851,-0.0066,-1.564,0.0506658959689672,1.7488900645472725,0.1304916926336976,0.08011281881064697
0.8520000000000001,-0.022,-0.564,0.05017727738954987,1.7482159275609694,0.1291481327659562,0.08005766799431323
0.853,-0.0083,0.436,0.05000707600621076,1.7369642403369434,0.12868012815515897,0.07913717297898994
0.8540000000000001,0.004,-0.564,0.04986677581250959,1.7369642403369434,0.12829434317351127,0.07913717297898994
0.855,0.0381,0.436,0.04997652851009856,1.7316513673000584,0.1285961313700075,0.0787025294406364
0.8560000000000001,0.0483,-0.564,0.05024341547766554,1.6973432140750035,0.12932999339235177,0.07589579624588709
0.857,-0.0367,0.436,0.05096725243013436,1.7260945225287043,0.13132033580070857,0.07824792669430032
0.8580000000000001,-0.0478,1.436,0.05106130704384374,1.7135515543390751,0.13157895880376042,0.07722179261626994
0.859,0.0248,-2.564,0.05175992876652661,1.7196059933046564,0.13349996661817545,0.07771710329967538
0.8600000000000001,0.0907,-2.564,0.05221436304121253,1.7196059933046566,0.13474952952821106,0.07771710329967539
0.861,0.0478,-2.564,0.052569155344578,1.7718358560271872,0.1357251058166809,0.08199000276176212
0.8620000000000001,-0.0066,-3.564,0.05274338505621027,1.7839690782155757,0.1362041871659747,0.08298261572032116
0.863,-0.0136,-0.564,0.0527431032459515,1.802015740502267,0.13620341226921487,0.08445900431408249
0.8640000000000001,-0.0074,-1.564,0.05287165011009219,1.8192356245171308,0.13655687899164157,0.08586775458277825
0.865,-0.0016,0.436,0.051954781600299864,1.8245088146349977,0.13403575559264633,0.08629915168098265
0.8660000000000001,-0.0171,1.436,0.05093745972327705,1.8126469715184668,0.13123841446785092,0.08532874011124061
0.867,-0.0312,0.436,0.05095795164990262,1.8013614852448787,0.1312947613432801,0.08440548001224364
0.8679999999999999,-0.0708,0.436,0.05106569814871428,1.7900048485108113,0.1315910330729913,0.0834763991289585
0.8690000000000002,-0.08629999999999792,1.436,0.05098795886766978,1.7897853264737584,0.13137727251913964,0.08345844013873441
0.8700000000000001,-0.0816,4.436,0.05094549325410936,1.7895657775084284,0.1312605043557046,0.08344047894552116
0.871,-0.016,3.436,0.0507399832302046,1.7955827348502247,0.13069541118862474,0.08393272327566124
0.8719999999999999,0.0692,1.436,0.050714997444621074,1.796239094938788,0.1306267074999233,0.08398641977270656
0.8730000000000002,0.12619999999995854,-0.564,0.05099157837415965,1.796239094938788,0.13138722511583914,0.08398641977270656
0.8740000000000001,0.0328,-2.564,0.05124623677524389,1.7962390949387883,0.13208746211478417,0.08398641977270657
0.875,-0.0297,1.436,0.05111642304974013,1.7960203348946484,0.13173051188977056,0.08396852312074911
0.8759999999999999,-0.0183,1.436,0.050833437233506945,1.7960203348946484,0.13095238268665194,0.08396852312074911
0.8770000000000002,-0.028399999999995783,-0.564,0.05210576049004405,1.8299815339726306,0.1344509039019438,0.08674687216683098
0.8780000000000001,-0.0189,1.436,0.05270913577760691,1.8242934445558339,0.13611001154890046,0.08628153236039784
0.879,0.0582,-1.564,0.05271831163442896,1.8242934445558365,0.13613524250305892,0.08628153236039807
0.8799999999999999,0.0274,-1.564,0.052731987217303954,1.8192356245171406,0.13617284640330507,0.08586775458277904
0.8810000000000002,-0.0008999999999962697,-2.564,0.0525200838643586,1.8251547723892176,0.1355901734292304,0.08635199716815538
0.8820000000000001,0.0075,-1.564,0.051936906228763395,1.819883453962525,0.13398660348744804,0.08592075319208829
0.883,0.0463,1.436,0.0514866751452993,1.8198834539625242,0.13274859813842216,0.08592075319208822
0.8839999999999999,0.0533,-2.564,0.05161179492989861,1.8090775629690399,0.13309264138264046,0.0850367285478207
0.8850000000000002,0.00889999999997149,-1.564,0.05205035168986735,1.8037592610072537,0.1342985457162893,0.08460164087178267
0.8860000000000001,-0.0553,0.436,0.051172317265785555,1.8037592610072537,0.1318842048287641,0.08460164087178267
0.887,-0.0633,1.436,0.05111957860426618,1.8037592610072537,0.13173918875266577,0.08460164087178267
0.8879999999999999,-0.0555,1.436,0.05110881041504171,1.7984252318350262,0.13170957934463326,0.08416526656036917
0.8890000000000002,-0.048499999999974244,1.436,0.0520243183780484,1.81546275097115,0.13422696163320746,0.08555909764774501
0.8900000000000001,0.0095,1.436,0.053827012444379145,1.8266611188162871,0.13918384928210895,0.0864752306308228
0.891,0.0482,-1.564,0.05424428467734691,1.837791251972489,0.1403312273183819,0.0873857813674529
0.8919999999999999,0.0691,-0.564,0.053178107646046614,1.8707843847757761,0.13739954863995146,0.09008493338622524
0.8930000000000002,0.06299999999997132,0.436,0.053334221386525396,1.854043334398249,0.13782881630464078,0.08871535626263757
0.8940000000000001,-0.0016,-1.564,0.053799885248302697,1.8205310528801324,0.13910925733348486,0.08597373294203312
0.895,-0.0443,-0.564,0.05351586440498258,1.8086431221153363,0.13832828210503156,0.08500118715457675
0.8959999999999999,-0.021,-0.564,0.05327156912486884,1.8194515932949915,0.1376565406934977,0.0858854228826099
0.8970000000000002,0.02849999999998588,-0.564,0.05286488973740223,1.8463023627458168,0.13653828992069786,0.08808207116699367
0.8980000000000001,-0.0033,-0.564,0.052852734412271556,1.8306255606144815,0.1365048662898478,0.08679955967064759
0.899,0.0262,-2.564,0.052663359992161075,1.8198834539625088,0.13598414136952108,0.08592075319208696
0.8999999999999999,-0.0214,-0.564,0.051892736295218074,1.8198834539625084,0.13386514893665494,0.08592075319208693
0.9010000000000002,-0.015200000000013012,1.436,0.050954042733691925,1.7629652781179044,0.1312840129534966,0.08126430513206832
0.9020000000000001,-0.0445,1.436,0.051308524226578785,1.7570602519600471,0.13225873460298398,0.08078121783720871
0.903,-0.0601,2.436,0.05127556131046781,1.7622965253767702,0.13216809611096583,0.08120959479819205
0.9039999999999999,-0.0361,-0.564,0.05142952520205278,1.7677395737278723,0.132591452312569,0.08165488791517939
0.9050000000000002,-0.05780000000001239,0.436,0.05146297331282603,1.7675172863913284,0.13268342494967236,0.08163670269715971
0.9060000000000001,-0.0857,3.436,0.0513901795032009,1.7675172863913284,0.13248326301283203,0.08163670269715971
0.907,-0.0313,1.436,0.05120038474954445,1.7675172863913275,0.13196138229674312,0.08163670269715964
0.9079999999999999,0.0858,-1.564,0.05113246564632367,1.7729443067566208,0.1317746243935761,0.08208068457248614
0.9090000000000003,0.06900000000000675,-1.564,0.05120422637635808,1.785069994758315,0.1319719456601334,0.0830726811629256
0.9100000000000001,0.0842,-4.564,0.05114535277343408,1.7850699947583104,0.13181006026835734,0.08307268116292521
0.911,0.0429,-2.564,0.0508694122592385,1.7675172863913193,0.13105130360953524,0.08163670269715896
0.9119999999999999,0.0057,-3.564,0.051047738559692066,1.7497885098484993,0.1315416493940486,0.0801863201802508
0.9130000000000003,0.039799999999977,-2.564,0.05119166227877066,1.7144685184346575,0.131937398023175,0.07729680899936062
0.9140000000000001,-0.012,1.436,0.051198613626871,1.7144685184346575,0.13195651222129953,0.07729680899936062
0.915,-0.0403,1.436,0.05141470930808067,1.7081658628601213,0.13255071288639045,0.07678119183687214
0.9159999999999999,-0.015,-1.564,0.052523642298502336,1.70839587270401,0.13559995809462982,0.07680000882943151
0.9169999999999998,-0.0384,-1.564,0.05373569653242358,1.7209764173857327,0.13893275691731183,0.07782921702185708
0.9180000000000001,-0.0176,0.436,0.05377007881104524,1.7563892508563033,0.13902729824599533,0.08072632356588967
0.919,0.001,0.436,0.05332301317118486,1.7625194711510095,0.13779799695197004,0.08122783388267678
0.9199999999999999,0.0303,-1.564,0.05263604512358274,1.7572838620579492,0.13590903337575988,0.08079951126968657
0.9209999999999998,-0.0177,-1.564,0.052142109769540826,1.7066814667177657,0.13455085391451072,0.07665975411623538
0.9220000000000002,-0.0624,0.436,0.05233101916710275,1.677597482860764,0.1350703001572346,0.07428040765618213
0.923,-0.0565,0.436,0.051888707177136194,1.6718609862462266,0.13385407002646763,0.07381110768063488
0.9239999999999999,-0.03,0.436,0.05038584434698977,1.6718609862462266,0.12972163161671077,0.07381110768063488
0.9249999999999998,0.0421,0.436,0.05054454824854667,1.6531066598492379,0.13015802147572947,0.0722768254329635
0.9260000000000002,0.1145,-3.564,0.050525170838340995,1.6531066598492379,0.13010473919832577,0.0722768254329635
0.927,0.1051,-0.564,0.050525170838340995,1.6531066598492379,0.13010473919832577,0.0722768254329635
0.9279999999999999,0.0278,-1.564,0.05050668687250657,1.6528689560901282,0.1300539136347104,0.07225737900497207
0.9289999999999998,0.0176,-0.564,0.050474571297155844,1.647046334757436,0.12996560508487562,0.0717810332084578
0.9300000000000002,0.0082,-1.564,0.05019201281470107,1.640724165119314,0.12918865092613518,0.07126381960999473
0.931,-0.0172,0.436,0.05012312684233002,1.6341371118555512,0.12899923441225958,0.07072493601198505
0.9319999999999999,-0.0097,1.436,0.050127218959015486,1.6149447581416836,0.1290104865503982,0.06915481896427574
0.9329999999999998,-0.0627,1.436,0.050332036687360214,1.6082521214618164,0.1295736761047825,0.06860729763875996
0.9340000000000002,-0.0697,0.436,0.05021083114058588,1.6089849019430649,0.12924039588324887,0.06866724605066347
0.935,-0.0759,-0.564,0.05012510464306383,1.5894888757668086,0.12900467279263286,0.0670722857076906
0.9359999999999999,-0.0468,-1.564,0.05016219046623388,1.5829368412400413,0.1291066480874177,0.06653626697538555
0.9369999999999998,0.0009,0.436,0.049950730828078466,1.6196701870630017,0.1285251952007683,0.0695414039875467
0.9380000000000002,0.0972,-2.564,0.04986343853607241,1.6497756905706398,0.12828516662788358,0.07200432046938815
0.9390000000000001,0.1385,-2.564,0.05018108589961747,1.6793415803626623,0.12915860506786664,0.07442309141771675
0.94,0.1012,-2.564000000000111,0.05027954370375902,1.6736110618558895,0.12942933557195077,0.07395428050823478
0.9409999999999998,-0.0244,-3.563999999999556,0.05033641546293193,1.6736110618558895,0.12958571647200517,0.07395428050823478
0.9420000000000002,-0.041,0.436,0.05036196241876889,1.6673896195955413,0.12965596321670822,0.0734453073671628
0.9430000000000001,-0.0867,0.436000000000111,0.05054856798244842,1.70368590768054,0.1301690745821337,0.07641468890006185
0.944,-0.0731,1.436000000000111,0.050178650367768106,1.7394507878508665,0.1291519080592238,0.07934059621200013
0.9449999999999998,-0.0608,2.436000000000111,0.050188207011574476,1.7394507878508667,0.1291781860675301,0.07934059621200014
0.9460000000000002,0.0188,3.435999999999556,0.05002243183556665,1.7394507878508665,0.12872235224758513,0.07934059621200013
0.9470000000000001,-0.012,-0.5639999999997779,0.05012496704474741,1.7447399111879491,0.12900429443703282,0.07977329679905684
0.948,-0.0214,1.435999999999778,0.050239099599968404,1.7445146932200652,0.12931812597610481,0.07975487182752407
0.9489999999999998,0.0214,-0.5639999999998889,0.05030958011920693,1.7445146932200652,0.12951192703299336,0.07975487182752407
0.9500000000000002,-0.0173,0.435999999999889,0.05034056031927538,1.7445146932200655,0.1295971136289599,0.07975487182752408
0.9510000000000001,0.0606,-0.5639999999997779,0.051026111201583686,1.7442894461726428,0.13148218041021598,0.0797364444770085
0.952,-0.0121,1.436,0.05277188008168537,1.7389989527576297,0.13628254025010073,0.07930363180454801
0.9529999999999998,-0.0406,1.435999999999889,0.05298110725169955,1.7336923150764094,0.13685785449461305,0.07886949837758432
0.9540000000000002,0.019,0.436,0.05263894834934062,1.7348251374453123,0.13591701640747336,0.0789621740201844
0.9550000000000001,0.0265,0.435999999999889,0.05252364678986783,1.7348251374453123,0.13559997044458677,0.0789621740201844
0.956,0.0196,-0.5639999999997779,0.05228577739976275,1.7348251374453116,0.13494589837329873,0.07896217402018436
0.9569999999999999,0.0256,1.4359999999995559,0.05158147981174336,1.7008120498273405,0.13300928356970626,0.07617957999808589
0.9580000000000002,0.055,-2.564,0.051623573147354905,1.6951541144301043,0.13312502807638157,0.0757167070772091
0.9590000000000001,-0.0033,-2.563999999999667,0.05134412261277649,1.689012027440266,0.13235661987600947,0.07521422595191123
0.96,-0.0735,0.436,0.05089503505885877,1.6883139815637267,0.13112175890272124,0.0751571191609893
0.9609999999999999,-0.064,0.436,0.05273054372593534,1.6270404816776467,0.13616887721925436,0.07014436417646468
0.9620000000000002,-0.0389,-0.564,0.053511480247676255,1.6699797647518655,0.1383162269395942,0.07365720587250599
0.9630000000000001,-0.016,-0.564,0.053514867609945956,1.693994763130078,0.13832554120678497,0.0756218611157604
0.964,0.0477,0.436,0.053528983346122966,1.681913319609748,0.13836435540139394,0.07463348414464918
0.9649999999999999,0.1074,-0.564,0.053627021517456436,1.6761915933186504,0.13863393203654253,0.07416539252202096
0.9660000000000002,0.1148,-2.564,0.05358652604196743,1.6761915933186464,0.13852258118337396,0.07416539252202065
0.9670000000000001,0.0367,-3.564,0.05494005949281169,1.6699797647518575,0.1422444069607901,0.07365720587250534
0.968,-0.0151,-1.564,0.054967945889273,1.663744743597778,0.14232108649104053,0.07314712184879463
0.9689999999999999,0.0132,-0.564,0.05518831307931967,1.6639808937246454,0.142927032570837,0.07316644117489404
0.9700000000000002,0.0386,-1.564,0.055774092693991424,1.6704502687429927,0.14453775720302867,0.07369569757334153
0.9710000000000001,-0.0472,1.436,0.05570865961814038,1.6704502687429925,0.14435783515659076,0.07369569757334152
0.972,-0.0132,0.436,0.055680613404660795,1.66421701034213,0.1442807161757321,0.07318575775960727
0.9729999999999999,-0.0234,-0.564,0.055426842356122094,1.669979764751856,0.14358291913981536,0.07365720587250521
0.9740000000000002,-0.0517,0.436,0.055504894423105966,1.6757227013588047,0.14379753976459564,0.07412703270067422
0.9750000000000001,-0.0262,1.436,0.056182454481295274,1.733465661766484,0.14566063408911611,0.07885095598142286
0.976,-0.0183,1.436,0.05642187313628892,1.7336923150763945,0.14631896619106297,0.0788694983775831
0.9769999999999999,-0.0249,0.436,0.05532050220043535,1.697806134995752,0.14329051444722168,0.07593366757945277
0.9780000000000002,-0.0058,0.436,0.05431785359913617,1.697806134995752,0.14053352058964252,0.07593366757945277
0.9790000000000001,-0.0232,-0.564,0.05448951403887793,1.6978061349957518,0.1410055371838353,0.07593366757945276
0.98,-0.0076,0.436,0.0550568831150606,1.733465661766484,0.1425656381563885,0.07885095598142286
0.9809999999999999,0.0065,0.436,0.0550966644354695,1.733465661766484,0.14267502528949935,0.07885095598142286
0.9820000000000002,0.046,0.436,0.0550898000508913,1.7336923150763945,0.1426561502159256,0.0788694983775831
0.9830000000000001,0.0304,-1.564,0.05508712421074774,1.728142032989876,0.14264879242893014,0.07841543252127588
0.984,0.0445,0.436,0.05529279458966065,1.7281420329898762,0.14321432652593497,0.0784154325212759
0.9849999999999999,-0.0212,-0.564,0.05527092139154871,1.7283693844250472,0.14315418155314777,0.07843403203072143
0.9860000000000002,-0.0307,3.436,0.05486532785139448,1.7283693844250472,0.14203891654661402,0.07843403203072143
0.9870000000000001,-0.056,3.436,0.05489174699627797,1.7221176043914506,0.14211156155910581,0.07792257697129398
0.988,-0.0791,3.436,0.05501913248346619,1.7221176043914506,0.14246183483058655,0.07792257697129398
0.9889999999999999,-0.0578,0.436,0.054189231033933694,1.7041471056490636,0.1401798457111758,0.07645241927975076
0.9900000000000002,-0.0257,1.436,0.05247354701860462,1.6857520070276586,0.13546221055397326,0.07494752528027777
0.9910000000000001,0.0508,-0.564,0.05181207926101385,1.7020707306716638,0.1336433654049336,0.07628255206085426
0.992,0.0816,-3.564,0.05185622855967223,1.6712616665417879,0.1337647632157517,0.07376207762944906
0.9929999999999999,0.0155,-3.564,0.051697541674416404,1.6777029664737741,0.13332842014664276,0.074289037218846
0.9940000000000002,-0.009900000000003331,-1.564,0.05165618944966193,1.6777029664737737,0.1332147134806208,0.07428903721884597
0.9950000000000001,-0.0174,-0.564,0.05166900729526435,1.6777029664737728,0.13324995885127955,0.07428903721884589
0.996,-0.0383,1.436,0.05151395805571674,1.6604351153264596,0.13282361825647776,0.07287636278256177
0.9969999999999999,-0.0442,0.436,0.052142511507404364,1.6437030842575635,0.13455195857752097,0.07150752352419122
0.9980000000000002,-0.026799999999974067,-0.564,0.05252458583347099,1.704377657833957,0.13560255254308326,0.07647128064096181
0.9990000000000001,0.0316,-2.564,0.05251607067427307,1.716987644640842,0.13557913831642943,0.07750289747921203
1.0,0.0861,0.436,0.05247403562770873,1.7169876446408423,0.13546355408778663,0.07750289747921206
1.001,0.1355,-0.564,0.05285250632218069,1.717216472865533,0.13650423910802292,0.07752161780408416
1.0020000000000002,0.06479999999997069,-0.564,0.05307713769893582,1.7172164728655337,0.13712191046878777,0.07752161780408422
1.0030000000000001,-0.0012,-2.563999999999556,0.05324351032832678,1.7297328655045205,0.1375793871128541,0.07854557774934601
1.004,-0.0096,-0.564,0.05309449693461753,1.7304142031608454,0.13716964334956447,0.07860131764896389
1.005,0.0292,0.43599999999977795,0.05308986531440099,1.7359572205758267,0.13715690773264833,0.07905478918605437
1.0060000000000002,-0.005800000000014122,-0.564,0.05336704785391196,1.7538258180799062,0.13791907960210464,0.08051661038725177
1.0070000000000001,-0.0376,0.43599999999977795,0.053374984584214955,1.7590717195443701,0.13794090331648098,0.08094577501410037
1.008,-0.0669,-0.564,0.053313741924999485,1.759071719544374,0.13777250370463284,0.08094577501410068
1.009,0.0129,1.4359999999995559,0.053066633274286804,1.7414825950430664,0.13709302633710171,0.07950681736224009
1.0100000000000002,0.16159999999997296,-0.564,0.05308439360200169,1.7234860313746811,0.13714186210504187,0.07803452731188006
1.0110000000000001,0.1007,-4.564,0.05260821938092726,1.7290512593651508,0.13583252062594472,0.07848981588526184
1.012,0.0083,-4.564,0.052324020566040394,1.7345986321569553,0.13505105602712206,0.07894364373359487
1.013,-0.0416,-1.563999999999556,0.05231595176654257,1.7343720972874725,0.13502886916063192,0.07892511102698795
1.0140000000000002,0.034599999999969315,0.436,0.052291867858704634,1.734145532825291,0.13496264537506072,0.07890657589941685
1.0150000000000001,-0.0345,1.4359999999995559,0.05208697012852277,1.734145532825291,0.13439923583874727,0.07890657589941685
1.016,-0.1221,-0.564,0.050973045337617984,1.7401283205124116,0.13133626462196177,0.07939602482686059
1.017,-0.0422,-0.564,0.04966490080516278,1.7221176043914785,0.12773924525133523,0.07792257697129627
1.0180000000000002,-0.052300000000012566,-0.564,0.04958190548870302,1.685985074675725,0.12751103211924594,0.07496659243029774
1.0190000000000001,-0.0806,-1.564,0.049558821165459475,1.6852857750349075,0.12744755690239895,0.07490938306953492
1.02,0.0137,-1.564,0.04958400741592768,1.6850526106634105,0.12751681181159277,0.07489030800661851
1.021,0.0014,-0.5639999999995559,0.04955034590984304,1.6788735681617426,0.12742425239906083,0.0743848035690164
1.0220000000000002,-0.03280000000001373,1.436,0.049355340442296836,1.679575537558952,0.12688804372583015,0.07444223134124074
1.0230000000000001,-0.0637,1.436000000000666,0.049517516671270974,1.679575537558952,0.12733398148163783,0.07444223134124074
1.024,-0.092,4.436,0.04980647822509055,1.7156140343506006,0.12812854223594877,0.07739052309482067
1.025,-0.0668,-0.564,0.04978654095645705,1.715843045762688,0.1280737205096847,0.0774092584061639
1.0260000000000002,-0.02819999999998441,0.436,0.04999039453446947,1.7165298966771534,0.12863425892932398,0.07746544934272721
1.0270000000000001,0.0069,-0.564,0.04998073755834024,1.711153579270238,0.12860770503612892,0.07702561545156696
1.028,0.0514,-1.564,0.05033131328270409,1.7113831875651873,0.12957168695106414,0.07704439959360447
1.029,0.0808,-3.564,0.05089003301049328,1.7176740378615636,0.1311080047154605,0.07755905097207458
1.0300000000000002,0.022499999999996623,-1.564,0.05125248029523814,1.7355044759396376,0.13210462999020087,0.07901775036933927
1.0310000000000001,0.0149,-0.564,0.05137824841914069,1.7355044759396374,0.13245045598011326,0.07901775036933925
1.032,0.0081,0.436,0.051377760127256596,1.7357308630193649,0.13244911331856324,0.07903627098533875
1.033,0.0788,1.436,0.05117190111133635,1.7357308630193649,0.1318830605243101,0.07903627098533875
1.0340000000000003,0.06799999999995382,-0.564,0.051130902331627266,1.7295056933051944,0.13177032573000658,0.07852699290309706
1.0350000000000001,-0.036,-0.564,0.051016960409565465,1.735051613164187,0.13145701837702356,0.0789807018877091
1.036,-0.0498,0.436,0.05102342200854784,1.7348251374453316,0.13147478590662615,0.07896217402018599
1.037,-0.0374,0.436,0.05093593888706671,1.7005810142438127,0.1312342326078405,0.07616067909026955
1.0380000000000003,0.019500000000004486,-0.564,0.05065429757610376,1.6656330071479781,0.13045980040561206,0.07330159976405914
1.0390000000000001,0.0296,0.436,0.05007637604613052,1.630176887894854,0.1288706832351154,0.07040095203137799
1.04,0.0578,3.436,0.04974145104327656,1.636059547508928,0.12794973628079703,0.07088220953025655
1.041,0.0325,1.436,0.04970994838628727,1.636059547508928,0.12786311307930415,0.07088220953025655
1.0420000000000003,-0.006300000000034595,-1.564,0.049571388197583194,1.641681807577903,0.127482112608484,0.0713421638700192
1.0430000000000001,-0.0842,0.436,0.04889595310754253,1.6039830512938562,0.12562486133219175,0.06825804710135776
1.044,-0.074,1.436,0.04904375011656387,1.5712518622680391,0.12603126038916188,0.0655803245745945
1.045,-0.0458,-0.564,0.049186404939727785,1.570501476021745,0.1264235199212725,0.06551893584368436
1.0459999999999998,0.0829,-2.564,0.049690631385720524,1.5702512675858744,0.1278099969109473,0.0654984664142179
1.0470000000000002,0.0644,-4.564,0.049935619196603005,1.5702512675858744,0.1284836425819327,0.0654984664142179
1.048,-0.0192,-2.564,0.049856314358411764,1.5702512675858744,0.12826557719842122,0.0654984664142179
1.049,-0.0039,-0.564,0.04985051617033248,1.5884997686058202,0.1282496338570562,0.06699136733578934
1.0499999999999998,0.0655,-0.564,0.04994970117539811,1.575609619172627,0.12852236395349834,0.06593683053043892
1.0510000000000002,0.0778,-0.564,0.049737776701967884,1.5952752742155856,0.12793963290419474,0.06754566812783111
1.052,0.0438,-2.564,0.04787486668878542,1.5952752742155856,0.12281716880569428,0.06754566812783111
1.053,-0.0081,-1.564,0.04744592309458683,1.601776839436457,0.12163769789941557,0.0680775579909649
1.0539999999999998,-0.0176,1.436,0.047477396491020805,1.5824403172607178,0.12172424064283852,0.06649564659207273
1.0550000000000002,-0.0604,-2.564,0.047545339105605024,1.5821919968388054,0.12191106319545948,0.06647533162010255
1.056,-0.0216,1.436,0.04756947433726131,1.5882523955685806,0.121977428106697,0.06697112986889475
1.057,-0.0007,1.436,0.04771643322044565,1.5947825917223855,0.12238152255985928,0.06750536201461466
1.0579999999999998,-0.0198,-0.564,0.04768266684317951,1.614214683167971,0.12228867478188919,0.06909509188861726
1.0590000000000002,-0.0141,0.436,0.047211323964691,1.61397125145513,0.12099261809849812,0.06907517685953939
1.06,-0.0193,1.436,0.04721595715644306,1.6147014364946706,0.12100535803668272,0.06913491293962927
1.061,-0.0334,1.436,0.04469737050761638,1.6211250944481077,0.11407997270068493,0.06966042924741062
1.0619999999999998,-0.0378,0.436,0.04410745180579165,1.5768560131434064,0.11245786677514485,0.06603879741010667
1.0630000000000002,-0.0022,0.436,0.04472908881347771,1.5110696591688895,0.11416718887424682,0.060656848045167945
1.064,0.0116,0.436,0.04461415706700098,1.5041760774687796,0.1138511597902122,0.0600928875060654
1.065,0.007,-1.564,0.04448319640076249,1.5113296654576167,0.11349105580967887,0.060678119032172906
1.0659999999999998,0.0028,0.436,0.0447283091727479,1.5049595345136952,0.11416504508757977,0.060156981742796836
1.0670000000000002,-0.0228,0.436,0.0435158069640225,1.5239900498459225,0.11083101446366468,0.061713858871850234
1.068,-0.0,1.436,0.04370678711679915,1.5237322038986847,0.11135615468471771,0.06169276462132336
1.069,0.0206,0.436,0.0442782856972167,1.5297673494800037,0.11292761060036433,0.06218649692242146
1.0699999999999998,0.034,-0.564,0.04432261651498293,1.5417667697188642,0.11304950753626447,0.06316816360909
1.0710000000000002,0.0174,-1.564,0.04469436763599533,1.5347550575080289,0.11407171567164844,0.062594538870822
1.072,0.0422,0.436,0.044736798706987,1.5407470268942953,0.11418838885300324,0.06308473894857126
1.073,0.0585,-3.564,0.04461791789048205,1.5347550575080304,0.11386150096779256,0.06259453887082213
1.0739999999999998,0.0498,-0.564,0.04468507941289524,1.535522912574332,0.11404617574270265,0.06265735671733248
1.0750000000000002,0.0522,-1.564,0.044427468166165524,1.4702924298240567,0.1133378192716949,0.057320882904716576
1.076,0.0155,-0.564,0.04394025141032288,1.4910840066410733,0.11199811401361415,0.05902183161042783
1.077,-0.0643,-0.564,0.04386737922202818,1.491084006641073,0.11179773655808635,0.059021831610427816
1.0779999999999998,-0.0754,-1.564,0.04416013985429384,1.4908204694158724,0.11260274368007461,0.05900027175924111
1.0790000000000002,-0.0651,-2.564,0.04396367035381583,1.4838328171320136,0.11206250933943158,0.058428615351802965
