time_sec,bts_raw,diy_raw,bts_rms,diy_rms,bts_norm_rms,diy_norm_rms
0.0,-0.0004,1.612999999999778,0.004928904226517129,1.01248034608816,0.0,0.02613498963560418
0.001,0.0004,-0.386999999999889,0.005587184003879386,1.0144307076251826,0.0015616274119581762,0.02637299701892643
0.002,-0.0003,0.613000000000222,0.0056692398279531275,1.0144307076251826,0.001756287233801459,0.02637299701892643
0.003,-0.0009,2.612999999999667,0.005677228482535986,1.008568308295746,0.0017752386013054806,0.025657594106233982
0.004,-0.0097,-0.387,0.005716501628974026,1.0145460136348108,0.0018684057076644844,0.026387068092987305
0.005,-0.0131,-0.387,0.005717738650013186,1.0086842844556962,0.0018713402744404241,0.02567174696037592
0.006,0.0007,-0.387,0.005723598529382938,0.9967400746181382,0.0018852415798872393,0.024214165852809173
0.007,0.0026,-0.38700000000011103,0.005890216912406169,1.0086842844556962,0.0022805079137670904,0.02567174696037592
0.008,0.0012,-1.387,0.006005502453498623,1.0224237890542953,0.002553998103445715,0.027348412273745765
0.009000000000000001,-0.0029999999999999936,-1.386999999999778,0.006085109501402914,1.0145460136348035,0.0027428487296802754,0.026387068092986413
0.01,0.0007,0.612999999999778,0.006269919420722677,1.0164924117475724,0.0031812705769500866,0.02662459180996388
0.011,-0.0052,-1.386999999999889,0.006277041406201802,1.014546013634802,0.0031981659581151217,0.026387068092986223
0.012,0.0093,-0.38700000000011103,0.006352916903200467,1.0203740695728396,0.0033781642811440546,0.02709827999772137
0.013000000000000001,0.003499999999999991,-1.386999999999667,0.006461379854826011,1.0203740695728396,0.0036354693424039465,0.02709827999772137
0.014,-0.0018,1.612999999999667,0.006600684991004951,1.0124803460881435,0.003965940863426966,0.026134989635602176
0.015,-0.0003,-1.387000000000111,0.006648859438824958,1.010526220271715,0.004080224395837945,0.025896522888067444
0.016,0.0041,-2.387,0.0067134375084344335,1.008568308295729,0.004233421998409904,0.02565759410623192
0.017,0.0052,-0.387,0.006731218012646342,0.9966227085213238,0.004275602426444645,0.024199843381275937
0.018000000000000002,-0.0009000000000000034,0.613,0.006825231084861526,0.9966227085213224,0.004498628251788877,0.02419984338127576
0.019,-0.0019,-1.387,0.006829769074659906,0.9885393429188872,0.004509393658091853,0.023213410528211183
0.02,0.0047,-1.387,0.006848863988968291,0.9865377961033103,0.0045546922418223945,0.022969156880295383
0.021,0.0022,0.613,0.0068734692867312985,0.9845321801659142,0.0046130630269923,0.022724406667502653
0.022,-0.0031,-0.387,0.006880964019899248,0.9845321801659126,0.00463084267200476,0.022724406667502462
0.023,-0.0023,-0.387,0.00688444596766736,0.9825224701878916,0.004639102845366728,0.022479156848930065
0.024,-0.0129,-0.387,0.0069079141475618215,0.984532180165911,0.0046947760625796415,0.02272440666750227
0.025,-0.017,1.613,0.006937399346180971,0.984532180165911,0.0047647233646146495,0.02272440666750227
0.026000000000000002,-0.007799999999999952,-1.387,0.006942309926931857,0.9825224701878901,0.00477637266294179,0.022479156848929878
0.027,0.006,-0.387,0.007157303341444157,0.9805086409950627,0.005286398370913881,0.02223340435251094
0.028,-0.0029,1.613,0.007321330972364359,0.9946374283035134,0.005675518701770688,0.02395757478602677
0.029,0.0019,-1.387,0.007348478501142788,0.9865377961032995,0.00573992038410277,0.022969156880294068
0.03,0.0005,1.613,0.0073647259986966244,0.988539342918878,0.005778464083041028,0.02321341052821006
0.031,0.0096,0.613,0.007391531793201343,1.0025549616927463,0.005842055074193183,0.024923770728966944
0.032,-0.0041,-0.387,0.0074097254211518485,1.0025549616927465,0.005885215549583031,0.02492377072896697
0.033,0.005,0.613,0.007410414692749298,1.0085683082957184,0.0058868506984329225,0.02565759410623062
0.034,-0.0029,0.613,0.007424000556002022,1.0164924117475538,0.005919080241554516,0.026624591809961604
0.035,0.0076,-0.387,0.007503436097308168,1.0164924117475538,0.00610752400521452,0.026624591809961604
0.036000000000000004,0.0010999999999999584,0.613,0.007508698521782145,1.0106419717516055,0.006120007977219328,0.025910648323952783
0.037,-0.0049,-0.387,0.007509378708832316,1.0106419717516055,0.006121621574931632,0.025910648323952783
0.038,-0.0124,-0.387,0.007536692846550205,1.0106419717516055,0.006186418501194768,0.025910648323952783
0.039,-0.0108,-0.387,0.007551894677038481,1.016607483913883,0.006222481579567854,0.026638634347553404
0.04,-0.0099,1.613,0.007559054722565255,1.004757466750851,0.006239467250022873,0.025192547802182694
0.041,0.0021,0.613,0.007611393674113462,1.0047574667508508,0.006363630173238199,0.025192547802182667
0.042,0.0132,0.613,0.0076148356978464685,1.0107577099757044,0.006371795635400217,0.025924772142201465
0.043000000000000003,0.008899999999999937,1.613,0.0076242580499512585,0.9968574268966817,0.006394148142400997,0.02422848663806506
0.044,-0.0002,0.613,0.007659982289362386,0.9948726150623227,0.006478896228935444,0.02398627520079279
0.045,0.0085,-0.387,0.007669455186333649,0.994872615062324,0.006501368642777864,0.023986275200792953
0.046,0.0073,-0.387,0.007669611269224667,0.9968574268966833,0.006501738915919365,0.02422848663806526
0.047,0.0098,0.613,0.007675916976674951,0.9948726150623236,0.006516697852749553,0.023986275200792898
0.048,-0.0021,0.613,0.0076817355269250985,0.982760556210324,0.0065305011137351725,0.022508211067919247
0.049,-0.0168,0.613,0.007694967489047884,0.9827605562103244,0.006561891102423164,0.0225082110679193
0.05,-0.0263,0.613,0.007763454259715706,0.9807472158944404,0.006724361258896629,0.02226251823034813
0.051000000000000004,-0.009599999999999954,-1.387,0.007804346532679469,0.9664153779656274,0.006821369395244629,0.02051356903355328
0.052000000000000005,-0.002999999999999933,-1.387,0.007864167788145575,0.9664153779656277,0.006963282477745741,0.020513569033553322
0.053,0.0067,-1.387,0.007864408499238699,0.9726521804078716,0.006963853513123572,0.021274661272811853
0.054,0.0012,-1.387,0.007882326630664576,0.9370943630904776,0.007006360432169213,0.016935453953699706
0.055,0.0026,0.613,0.007838314073421896,0.9370943630904776,0.0069019500914232835,0.016935453953699706
0.056,-0.0139,1.613,0.007737777400990869,0.9518677765594362,0.006663448425453143,0.018738289692478777
0.057,-0.0117,1.612999999999556,0.007801960551644476,0.9664153779656354,0.006815709167607699,0.020513569033554255
0.058,-0.0098,-0.387,0.007797685678886853,0.966415377965635,0.006805567949981835,0.020513569033554217
0.059000000000000004,-0.015099999999999876,0.612999999999778,0.007797844609313286,0.9601380637620396,0.006805944978289626,0.019747533045083025
0.06,0.003,-0.387,0.00782698890992106,0.9601380637620426,0.0068750835729975155,0.01974753304508339
0.061,0.0098,1.612999999999556,0.007826693207338212,0.9664153779656397,0.006874382082119255,0.020513569033554786
0.062,0.0118,-0.387,0.007822801913710346,0.9664153779656411,0.006865150823608469,0.02051356903355496
0.063,0.0135,-0.387,0.007840658788715286,0.9746822422771145,0.006907512424949717,0.021522394682392094
0.064,0.008,-0.387,0.007938231480833613,0.9684585133740162,0.007138982684116866,0.02076289783905567
0.065,0.0093,-0.38699999999977797,0.007937963856875884,0.9539420702591765,0.007138347803747062,0.01899142082039811
0.066,0.0049,0.613,0.007937925624145366,0.9475821294888471,0.007138257104804053,0.01821530171012209
0.067,0.0113,0.612999999999778,0.007929185122808277,0.9218305268328901,0.007117522142328147,0.01507277072386453
0.068,0.0025,-0.387,0.007945888948183903,0.9239722558384166,0.0071571483810311835,0.01533413114690121
0.069,-0.0051,-0.387,0.008057749415437172,0.9239722558384166,0.007422513318531041,0.01533413114690121
0.07,-0.0058,-0.387,0.008147504489181102,0.9725319073649333,0.007635437956870212,0.021259984059541107
0.07100000000000001,-0.003199999999999925,0.612999999999778,0.00819175868693832,0.9725319073649333,0.007740421537846694,0.021259984059541107
0.07200000000000001,0.0022000000000000487,-0.387,0.008237170953066619,0.9725319073649333,0.007848152387348492,0.021259984059541107
0.073,0.0057,0.612999999999778,0.008354769992691616,0.9745622197689605,0.008127130855491969,0.02150774804249316
0.074,0.0064,-0.387,0.008571920374299201,0.9765883111931724,0.008642273504707775,0.021754996928965997
0.075,-0.0026,-0.387,0.008590813445301675,0.9786102078546192,0.00868709325853913,0.022001733918290328
0.076,-0.0174,-0.387,0.008435609531354173,0.9662943286386051,0.008318905301383886,0.02049879708843921
0.077,-0.0154,1.612999999999556,0.008408839603085099,0.9579550818891567,0.008255399395173836,0.019481138433857296
0.078,-0.0063,-0.387,0.008387573047716501,0.966294328638605,0.008204949059368895,0.020498797088439196
0.079,0.0049,0.613000000000222,0.008511985349387581,0.9517448769722248,0.008500090528628174,0.018723291955593423
0.08,0.0063,1.613,0.008510463392182385,0.9453701547854851,0.008496480011985866,0.01794536903296015
0.081,0.0052,-0.387,0.008547941611051707,0.9304935845253718,0.008585389038133108,0.01612994481893247
0.082,-0.001,-1.387,0.008518899605994135,0.9283669002526677,0.008516493117650997,0.015870420341398125
0.083,0.0045,-1.387,0.008511593422067924,0.9369695257192829,0.008499160765225257,0.016920219744300656
0.084,0.0109,-0.387,0.008591185896724854,0.9369695257192829,0.008687976819559929,0.016920219744300656
0.085,-0.0028,-1.387,0.008653776279655419,0.936969525719283,0.00883645906232453,0.016920219744300666
0.08600000000000001,-0.001000000000000075,0.613,0.008622334666207711,0.9390767282201954,0.008761870586231768,0.017177366813627037
0.08700000000000001,-0.006399999999999845,-0.387,0.008643123585258077,0.9390767282201954,0.008811187832439935,0.017177366813627037
0.088,0.0048,-1.387,0.00863048421906531,0.9538194379446268,0.008781203650341112,0.018976455699448634
0.089,0.0033,0.613,0.008543339831471722,0.9538194379446268,0.008574472304271573,0.018976455699448634
0.09,-0.0089,0.613,0.008484628569519937,0.9621945285870602,0.008435192443021773,0.019998488471862304
0.091,0.0023,-1.387,0.008431162713775914,0.947582129488847,0.008308356181594711,0.018215301710122075
0.092,0.0038,-0.387,0.008449826641597557,0.9454938829884039,0.00835263234243604,0.01796046788784467
0.093,0.0074,-0.387,0.008353135163140587,0.9454938829884039,0.008123252573447523,0.01796046788784467
0.094,-0.0038,-1.387,0.008315276029334063,0.9306192906082661,0.008033439908409925,0.016145285039342597
0.095,0.0005,0.613,0.008368091864625744,0.9284928942615037,0.008158734135900021,0.01588579569811436
0.096,-0.0031,-0.387,0.008508708153663381,0.9306192906082661,0.008492316085521673,0.016145285039342597
0.097,0.003,0.613,0.00847789382867894,0.932740839360195,0.008419215716603291,0.016404182816730076
0.098,-0.0045,-0.387,0.008457133774794482,0.9306192906082661,0.008369966946802702,0.016145285039342597
0.099,0.0103,-0.387,0.008512140987922303,0.9370943630904922,0.008500459747629785,0.016935453953701496
0.1,0.008,-0.387,0.008354506119011946,0.9497889527121821,0.00812650487185152,0.018484605739590668
0.101,0.0097,-0.387,0.007932695211366896,0.9477055689062797,0.007125849073672604,0.01823036532380819
0.10200000000000001,0.0007000000000000653,-1.387,0.00818423304732899,0.9477055689062798,0.007722568573938947,0.018230365323808204
0.10300000000000001,0.005399999999999856,0.613,0.008576301580363594,0.9413034920004453,0.008652666975269802,0.017449104237973034
0.10400000000000001,-0.0049999999999999845,-0.387,0.008602907351827388,0.947582129488847,0.008715783454710567,0.018215301710122075
0.105,-0.0039,1.613,0.00862744943597773,0.9390767282201953,0.008774004279158995,0.017177366813627023
0.106,-0.01,1.613,0.008650247692989867,0.9369695257192829,0.00882808824819368,0.016920219744300656
0.107,0.0002,-0.387,0.008553550357738129,0.9240988490245454,0.008598694585217271,0.015349579622686346
0.108,0.0013,0.613,0.008473986209491424,0.9088741739384212,0.008409945729208007,0.013491675326280103
0.109,0.0074,-1.387,0.008417158218580141,0.9110463618336754,0.00827513352408579,0.013756752722044862
0.11,-0.0001,-1.387,0.008281415554021601,0.908874173938423,0.007953113201972497,0.01349167532628032
0.111,0.0046,-1.387,0.008283043698093453,0.9176595527177396,0.007956975624153245,0.01456377656241933
0.112,0.0107,-1.387,0.008235654865576484,0.9045141487760203,0.007844555795344696,0.012959610803665322
0.113,0.0129,0.613,0.008150983301501134,0.9045141487760203,0.00764369069205492,0.012959610803665322
0.114,0.0017,-0.387,0.008048983785491853,0.9133414673482639,0.007401718743828257,0.014036830055198988
0.115,0.0002,0.613,0.00803251248214103,0.9133414673482639,0.00736264411369699,0.014036830055198988
0.116,0.0017,0.613,0.007984215973166392,0.9155030558856753,0.007248071017408215,0.01430061398543072
0.117,-0.0073,0.613,0.00797124005243299,0.9155030558856753,0.007217288431933882,0.01430061398543072
0.11800000000000001,-0.013399999999999983,0.613,0.007979958621395649,0.9220842839023751,0.0072379713645612425,0.01510373731901172
0.11900000000000001,-0.012199999999999966,-3.387,0.00804871814355278,0.924225424870948,0.007401088565372095,0.015365025982462328
0.12,-0.0097,-1.387,0.008063699738731056,0.9328662426198924,0.007436629182765815,0.016419486082885647
0.121,-0.0089,0.613,0.008083314881359773,0.9328662426198924,0.0074831618964718545,0.016419486082885647
0.122,-0.0143,0.613,0.008096252012368257,0.930744979713364,0.0075138524616535736,0.016160623187910755
0.123,-0.0193,0.613,0.008098810127544057,0.930744979713364,0.007519921040575262,0.016160623187910755
0.124,-0.0141,0.613,0.008101131327249936,0.9307449797133657,0.007525427588420094,0.016160623187910957
0.125,-0.005,0.613,0.008131705276322206,0.9328662426198957,0.007597957717105476,0.016419486082886053
0.126,0.004,-0.387,0.008263156925451166,0.9477055689063029,0.007909798526570182,0.01823036532381102
0.127,0.0004,-1.387,0.008079679736361959,0.9477055689063029,0.007474538295580185,0.01823036532381102
0.128,0.0148,-0.387,0.007939565475963849,0.9349826928761333,0.007142147301099546,0.016677761678388105
0.129,0.001,0.613,0.007915339238974719,0.9497889527122132,0.007084675756215673,0.01848460573959446
0.13,-0.008,-0.387,0.007926191581365517,0.9497889527122118,0.007110420608092082,0.018484605739594283
0.131,-0.0065,-0.387,0.0079058483794838,0.9349826928761317,0.007062160730152666,0.0166777616783879
0.132,-0.0021,-1.387,0.007897997481277369,0.9349826928761316,0.00704353616006974,0.016677761678387887
0.133,0.0127,0.613,0.00792840765586098,0.9284928942615305,0.007115677768949922,0.015885795698117624
0.134,0.0108,0.613,0.007940803403646725,0.9284928942615304,0.00714508401869301,0.015885795698117613
0.135,-0.0018,0.613,0.007875395634241325,0.9284928942615304,0.006989918131526006,0.015885795698117613
0.136,0.0061,0.613,0.007905931484434909,0.9198109936570024,0.0070623578788031076,0.014826322156457237
0.137,-0.0015,1.613,0.007931063570116926,0.9176595527177561,0.00712197835518776,0.01456377656242135
0.138,0.0021,-0.387,0.007922787770342945,0.9198109936570017,0.007102345797379722,0.014826322156457156
0.139,-0.0041,-1.387,0.007931707754924194,0.9262353330156672,0.00712350654530994,0.015610299983801045
0.14,0.0028,-0.387,0.0080885553630753,0.9327408393602088,0.007495593813994256,0.016404182816731755
0.14100000000000001,0.005999999999999928,-0.387,0.008225241685625361,0.9327408393602105,0.00781985276205012,0.01640418281673196
0.14200000000000002,0.0034000000000000163,0.613,0.00829784288642494,0.9390767282202106,0.007992083520473236,0.017177366813628893
0.14300000000000002,0.00400000000000015,-0.387,0.008289901944670762,0.9390767282202107,0.007973245341409347,0.017177366813628907
0.14400000000000002,0.009400000000000228,-0.387,0.008422328016959532,0.9390767282202107,0.008287397760571838,0.017177366813628907
0.145,0.0176,0.613,0.008621416274800205,0.9326154192383014,0.008759691899833996,0.016388877492839495
0.146,0.0009,0.613,0.008627253921443456,0.9326154192383014,0.008773540462911468,0.016388877492839495
0.147,0.0078,-0.387,0.008787854358730602,0.934732437416805,0.009154530512833754,0.016647222393283166
0.148,0.0099,-1.387,0.008857877093851808,0.934732437416805,0.00932064441513792,0.016647222393283166
0.149,0.0041,1.613,0.008872563254852807,0.9347324374168042,0.009355484178387961,0.01664722239328307
0.15,0.0023,-0.387,0.008820418971281394,0.9368446717131333,0.009231783063144332,0.016904983504897407
0.151,-0.0223,-1.387,0.008876776657905708,0.9368446717131318,0.009365479572339458,0.016904983504897216
0.152,-0.0258,0.613,0.008870427960851988,0.9516219615128387,0.00935041865190676,0.018708292281787827
0.153,-0.0095,1.613,0.008906067051232114,0.9578329633646573,0.009434964740650167,0.01946623601196292
0.154,-0.0066,-0.387,0.008890439867796076,0.9578329633646573,0.009397892603749345,0.01946623601196292
0.155,0.0068,-0.387,0.008905548368784303,0.9722913166454603,0.00943373427792526,0.02123062418625279
0.156,-0.0052,0.613,0.008905993102651583,0.9578329633646493,0.009434789313522667,0.019466236011961947
0.157,0.0013,-0.387,0.008896107382546259,0.9452464103871387,0.009411337565444853,0.017930268201708028
0.158,-0.0005,0.613,0.008903411683123868,0.9536967898612444,0.009428665450030465,0.018961488654189996
0.159,0.0013,-0.387,0.008977872779627529,0.9600162229230219,0.009605308411615157,0.0197326645098264
0.16,-0.0034,-1.387,0.00895009006796364,0.9600162229230219,0.0095393998942873,0.0197326645098264
0.161,0.0042,0.613,0.008958969527803203,0.9536967898612444,0.009560464505970201,0.018961488654189996
0.162,0.0005,-0.387,0.009025855810530316,0.9598943666185504,0.009719137848495143,0.019717794087282664
0.163,0.0041,-1.387,0.009061798686134047,0.9535741260029476,0.009804404602446328,0.018946519683880007
0.164,-0.0061,-0.387,0.008979912887106107,0.9514990301751004,0.009610148128512817,0.01869329067030811
0.165,0.003,0.613,0.008978588386668747,0.9535741260029476,0.009607006035650083,0.018946519683880007
0.166,0.0018,0.613,0.008980351167169867,0.9535741260029476,0.009611187853847273,0.018946519683880007
0.167,0.0119,-1.387,0.009072538357959972,0.9514990301751004,0.009829882167602597,0.01869329067030811
0.168,0.0108,0.613,0.009108618034729846,0.9514990301751005,0.0099154734529436,0.01869329067030812
0.169,0.0071,-1.387,0.009023276858328903,0.9494193989307509,0.009713019838204755,0.018439508188779877
0.17,0.0081,-0.387,0.008946038209575057,0.8928661895819229,0.00952978773036159,0.011538181885894744
0.171,0.0056,-0.387,0.00900917894405795,0.892866189581923,0.009679575564000899,0.011538181885894758
0.17200000000000001,0.0029999999999997503,-0.387,0.009160225074877902,0.8906496635268066,0.010037900073533649,0.011267693796158756
0.17300000000000001,-0.006000000000000097,0.613,0.009070431806726417,0.8884276075079416,0.009824884827164468,0.010996530871436158
0.17400000000000002,-0.009500000000000149,0.613,0.00886413941190027,0.8861999799278696,0.009335500419929778,0.010724688035487507
0.17500000000000002,-0.014899999999999636,1.613,0.008770900088898088,0.8861999799278697,0.00911431014843751,0.010724688035487519
0.176,-0.0018,-0.387,0.008807842300467715,0.8861999799278697,0.00920194761236911,0.010724688035487519
0.177,-0.0036,0.613,0.008818490770603106,0.9018075310954182,0.00922720882109935,0.012629315635520628
0.178,0.0012,1.613,0.008865123690253718,0.8950772267556978,0.009337835408958155,0.011808000154030678
0.179,-0.0064,0.613,0.00874472574306605,0.9039966993847612,0.009052217133663198,0.012896465190261115
0.18,-0.0027,-0.387,0.008772054752347977,0.9171495199021099,0.009117049339518478,0.014501536011858737
0.181,-0.0038,-0.387,0.008748520213494463,0.9193021544708787,0.009061218699925218,0.014764227267421437
0.182,-0.007,0.6129999999995559,0.008752212149142962,0.9343569285508918,0.009069977024440344,0.01660139812896408
0.183,-0.0063,-1.387,0.008749803495785687,0.9343569285508919,0.009064263011587484,0.016601398128964093
0.184,0.0039,-0.387,0.008658991985136992,0.9322390576311035,0.008848832203552356,0.01634294916641809
0.185,0.0075,-0.387,0.008591993103931519,0.9322390576311035,0.008689891745317044,0.01634294916641809
0.186,0.0064,-0.38699999999977797,0.008608249660335337,0.9322390576311035,0.008728456934431575,0.01634294916641809
0.187,0.0053,0.613,0.008593371858538795,0.9301163643409351,0.008693162544547293,0.016083911718233018
0.188,0.0061,1.6129999999993339,0.008627472853016722,0.9301163643409353,0.008774059831055399,0.01608391171823303
0.189,0.0162,-1.387,0.008916393473405698,0.9449988729787229,0.009459461959748007,0.01790006060699645
0.19,0.0174,0.613000000000222,0.008950384247141119,0.938578333783235,0.009540097771213457,0.017116546522849357
0.191,0.0112,1.613,0.008946056922477866,0.9406819324327655,0.009529832122705072,0.017373253805386984
0.192,0.0011,-0.387,0.008944098537436667,0.9406819324327655,0.009525186274740916,0.017373253805386984
0.193,-0.0166,-0.387,0.009097713384655528,0.9470882109334827,0.00988960451232066,0.01815502762211067
0.194,-0.0188,0.613,0.009137331856751954,0.9470882109334827,0.009983590829648515,0.01815502762211067
0.195,-0.0032,0.613,0.009089046103705884,0.9470882109334826,0.009869043249490526,0.018155027622110655
0.196,-0.017,0.613,0.008918469811932363,0.9449988729787229,0.009464387627026954,0.01790006060699645
0.197,-0.0115,0.613,0.008926596819670413,0.95758867959536,0.009483667207681535,0.019436425466782
0.198,-0.0068,-0.38699999999977797,0.008919972082171377,0.9596506075897172,0.009467951440569599,0.019688047577462574
0.199,0.0037,0.613,0.008869060967127152,0.9533287509372466,0.009347175752844552,0.018916575965132777
0.2,0.0128,-0.3869999999995559,0.008860096626146985,0.9406819324327655,0.009325909778883049,0.017373253805386984
0.201,0.0091,1.613,0.008872917803802508,0.9406819324327657,0.009356325269634837,0.017373253805386995
0.202,0.008,1.612999999999778,0.008637092538210031,0.934231725388139,0.008796880468433133,0.016586119281127513
0.203,-0.0011,0.613,0.008255184020629901,0.934231725388139,0.007890884521993418,0.016586119281127513
0.20400000000000001,-0.007199999999999911,1.612999999999556,0.00821206868168427,0.9191749006611539,0.0077886026389874415,0.01474869817412491
0.20500000000000002,-0.003999999999999637,-0.387,0.008193283204501862,0.9191749006611539,0.0077440381283893625,0.01474869817412491
0.20600000000000002,0.009099999999999648,0.6129999999995559,0.008180334638151897,0.9342317253881389,0.00771332043531562,0.0165861192811275
0.20700000000000002,-0.003600000000000222,-1.387,0.008186400739988912,0.9406819324327654,0.007727710959281541,0.01737325380538697
0.20800000000000002,-0.011599999999999616,-1.387,0.00824371508722968,0.9406819324327655,0.00786367694035469,0.017373253805386984
0.209,0.0022,-1.387,0.008345265125632783,0.9406819324327655,0.008104582599482086,0.017373253805386984
0.21,0.004,0.613,0.008385341514610054,0.9427808373973088,0.008199655226276095,0.017629388306078384
0.211,0.0119,1.613,0.008378402285766286,0.9363450892058055,0.008183193395983054,0.016844018230990198
0.212,0.0134,0.613,0.008368659321261625,0.9363450892058055,0.008160080304912293,0.016844018230990198
0.213,0.0043,-0.387,0.008486647312725092,0.9363450892058055,0.008439981477768529,0.016844018230990198
0.214,0.0007,0.613,0.008565716053477631,0.9426567530942603,0.008627555085882317,0.017614245995425045
0.215,0.0018,0.613,0.008544613608745665,0.9447512707122134,0.008577494067321455,0.017869845097493255
0.216,-0.013,-0.387,0.008617954832673849,0.9426567530942603,0.008751480371703684,0.017614245995425045
0.217,-0.0109,0.613,0.008806442223859628,0.9405575712289412,0.00919862623127065,0.017358077703855463
0.218,-0.005,-0.387,0.008726088525961306,0.934106505443754,0.009008004338261818,0.01657083838538736
0.219,-0.0032,0.613,0.008701625806064772,0.9405575712289412,0.008949971788462768,0.017358077703855463
0.22,-0.0144,-1.387,0.008679403102717503,0.9319880654569636,0.00889725319690286,0.01631231997820481
0.221,-0.0188,-0.387,0.008698269336437926,0.9319880654569636,0.008942009285045618,0.01631231997820481
0.222,-0.0064,-0.387,0.008680300052723125,0.9319880654569636,0.008899381018179013,0.01631231997820481
0.223,-0.0017,-0.387,0.008693276081966952,0.9319880654569636,0.008930163861071027,0.01631231997820481
0.224,0.0059,0.613,0.008700762207675097,0.9319880654569636,0.008947923086733476,0.01631231997820481
0.225,0.0095,0.613,0.008648826627161673,0.9319880654569636,0.008824717074677768,0.01631231997820481
0.226,0.0059,1.613,0.008529619888600981,0.9168943971024996,0.008541924686048663,0.014470402753327715
0.227,0.0091,0.613,0.00853909665788833,0.9168943971024996,0.00856440628612945,0.014470402753327715
0.228,0.0026,-1.387,0.008550408290293516,0.9168943971024996,0.008591240704936472,0.014470402753327715
0.229,0.007,1.613,0.008576496007715049,0.9168943971024996,0.008653128212409553,0.014470402753327715
0.23,0.0048,0.613,0.008554637395174248,0.9298647992025963,0.008601273348102666,0.016053212609798733
0.231,0.007,1.613,0.008603073629345028,0.9298647992025963,0.008716177912414523,0.016053212609798733
0.232,0.0005,-1.387,0.008595752631064211,0.9298647992025963,0.008698810416113735,0.016053212609798733
0.233,-0.0017,-0.387,0.008567122445121715,0.9363450892058087,0.008630891448047583,0.016844018230990594
0.234,-0.0009,0.613,0.00863177892358401,0.9298647992025997,0.008784275058785236,0.01605321260979914
0.23500000000000001,0.005599999999999939,0.613,0.008730997114017683,0.931988065456967,0.009019648909349151,0.01631231997820523
0.23600000000000002,0.003399999999999689,-0.387,0.008719411192322446,0.9341065054437573,0.008992163798102712,0.016570838385387764
0.23700000000000002,-0.007800000000000411,1.613,0.00869612027547555,0.9341065054437581,0.008936911099404457,0.01657083838538786
0.23800000000000002,-0.022599999999999617,1.613,0.008685515445348986,0.9319880654569677,0.008911753417223847,0.016312319978205314
0.23900000000000002,-0.00879999999999975,0.613,0.008667224226472262,0.9256036549624563,0.008868361428318346,0.015533214767705
0.24,0.0002,0.613,0.008528832879652894,0.9190476292315404,0.008540057676322625,0.014733166930630308
0.241,0.0057,-0.387,0.008485307531157983,0.9190476292315388,0.008436803133706955,0.014733166930630119
0.242,0.017,-1.387,0.008616805743363504,0.9190476292315388,0.008748754404071787,0.014733166930630119
0.243,0.0094,-0.387,0.008968996828312785,0.9341065054437685,0.00958425212315396,0.016570838385389135
0.244,0.0004,-0.387,0.00907490902942435,0.9489264366791696,0.009835506076570836,0.018379350800855482
0.245,0.0015,-0.387,0.00891947260373618,0.9614648155740045,0.009466766535240726,0.01990943981010562
0.246,-0.0039,1.613,0.008949424294783683,0.9594067866283967,0.009537820490386826,0.01965829350986976
0.247,0.007,0.613,0.008805323218582569,0.965688854399992,0.009195971631547438,0.020424909587857483
0.248,0.0027,0.613,0.00873887296205733,0.965688854399992,0.009038332667553621,0.020424909587857483
0.249,-0.0009,0.613,0.008762741268587018,0.9656888543999927,0.00909495509928491,0.020424909587857577
0.25,0.0053,-0.387,0.008866032414837535,0.9780123582401702,0.009339991162892592,0.021928776869223194
0.251,-0.0092,0.613,0.008825554681945904,0.992176693732905,0.009243966433846864,0.023657285334515547
0.252,0.0046,0.613,0.008820545471943417,0.9800313169632031,0.00923208315880007,0.022175155334745157
0.253,-0.0044,-0.387,0.008797885296477107,0.9677335236884734,0.009178326758581051,0.02067442557649502
0.254,0.0036,-0.387,0.008805341407330332,0.9656888543999981,0.009196014780445632,0.02042490958785823
0.255,0.005,1.613,0.008781203422105538,0.953206039717682,0.00913875259392135,0.018901601215211578
0.256,0.0061,-1.387,0.008821087682906468,0.953206039717682,0.009233369437874837,0.018901601215211578
0.257,0.0098,-0.387,0.008849038050105998,0.9511301408304463,0.009299675681958441,0.01864827420234053
0.258,0.013,0.613,0.008865450549431613,0.9426567530942915,0.009338610812167558,0.01761424599542885
0.259,0.0083,0.613,0.008808137748070727,0.9362201519250315,0.009202648498362465,0.016828771829381084
0.26,-0.0,0.613,0.008815857376276598,0.9297389911081406,0.009220961658558149,0.01603785994066854
0.261,-0.0011,0.613,0.00880709641923141,0.9276105768201733,0.00920017816930746,0.015778124345145
0.262,-0.0141,-0.387,0.008759415925370568,0.9146082073054685,0.0090870664365923,0.014191413426969257
0.263,-0.0123,1.613,0.00867142682598813,0.9124444988668595,0.008878331193198195,0.013927370800015207
0.264,-0.0011,0.613,0.008776276261724093,0.9124444988668594,0.009127063963981039,0.013927370800015193
0.265,-0.0116,-0.387,0.008788639279833258,0.9102756473476953,0.009156392569594853,0.01366270055037586
0.266,-0.0182,-0.387,0.008792972162768128,0.9081016158977664,0.00916667140390906,0.013397398181130131
0.267,0.0007,0.613,0.00871348961363109,0.9233390295619435,0.008978116124264784,0.015256856997337984
0.268,0.0086,-1.387,0.008664416314160652,0.9233390295619452,0.008861700259333699,0.0152568569973382
0.269,-0.0034,-0.387,0.008682461918034231,0.9383290372937693,0.008904509579387916,0.01708612426317963
0.27,-0.0099,-0.387,0.00869529642111964,0.9383290372937693,0.008934956681860591,0.01708612426317963
0.271,-0.0001,-0.387,0.00857553446898912,0.9318625440186492,0.008650847168264331,0.016297002290423884
0.272,-0.0056,-0.387,0.008366825088090186,0.9404331935798419,0.00815572898059861,0.01734289959546685
0.273,-0.007,0.613,0.008424024930394063,0.9489264366791832,0.008291423323297919,0.018379350800857133
0.274,0.0006,0.613,0.008649858221823912,0.9489264366791832,0.008827164311487983,0.018379350800857133
0.275,0.0042,-0.387,0.008678800493818483,0.9468411550363256,0.008895823636694932,0.018124878787394383
0.276,-0.0044,-0.387,0.008630716476268207,0.9447512707122406,0.008781754630679778,0.017869845097496576
0.277,0.0057,0.613,0.008617666760268004,0.9319880654569912,0.008750796981781852,0.016312319978208183
0.278,0.0068,1.613,0.008569647788238637,0.9447512707122366,0.008636882282297097,0.017869845097496086
0.279,-0.0019,1.613,0.008631204287329568,0.9383290372937646,0.008782911857669691,0.01708612426317906
0.28,-0.0095,-0.387,0.008602859126480929,0.9319880654569841,0.008715669050432065,0.016312319978207316
0.281,0.0014,-0.387,0.008590208192572977,0.9298647992026169,0.008685657426413031,0.01605321260980124
0.28200000000000003,-9.999999999931167e-05,-1.387,0.008576377106812094,0.9168943971025204,0.008652846145550223,0.01447040275333025
0.28300000000000003,0.012300000000000078,0.613,0.00860801184789563,0.9102756473476875,0.008727892775486513,0.01366270055037491
0.28400000000000003,0.013699999999999574,0.613,0.00862712701326494,0.9102756473476875,0.008773239400510361,0.01366270055037491
0.28500000000000003,0.005999999999999639,0.613,0.008628300192637214,0.9081016158977602,0.008776022516641056,0.013397398181129372
0.28600000000000003,-0.0004999999999998002,-0.387,0.008623606517532698,0.9147360964124321,0.008764887780381333,0.014207020047139942
0.28700000000000003,0.0030999999999997002,-0.387,0.008663705397164916,0.9168943971025142,0.008860013761424533,0.01447040275332949
0.28800000000000003,-0.0023000000000001444,-1.387,0.008658324425126148,0.9015480667838658,0.008847248560779312,0.012597652571680487
0.289,-0.0049,0.613,0.008367496773029379,0.88816423445419,0.008157322408878368,0.010964390814235947
0.29,-0.0151,0.613,0.008346246383936084,0.88816423445419,0.008106910424090017,0.010964390814235947
0.291,-0.0187,1.613,0.008350000382384978,0.88816423445419,0.008115815979271633,0.010964390814235947
0.292,-0.0249,1.613,0.008331307855852444,0.88816423445419,0.008071471974130037,0.010964390814235947
0.293,-0.0216,1.613,0.008210110636512379,0.879084135178042,0.007783957597290234,0.009856324115832251
0.294,-0.0086,1.613,0.008165994858723578,0.894815810900759,0.007679302387964344,0.011776098938583255
0.295,0.008,-0.387,0.008212003177536458,0.8948158109007589,0.0077884472444632044,0.011776098938583241
0.296,0.0058,-1.387,0.008287900784108425,0.8970220425363645,0.007968498017706957,0.012045330775155889
0.297,0.004,0.613,0.008387846955673193,0.8903869477489692,0.008205598847176802,0.011235633947944149
0.298,0.0094,-0.387,0.008401675762369262,0.8881642344541899,0.00823840472144775,0.010964390814235933
0.299,0.014,1.613,0.008400830125514193,0.885935944640169,0.008236398629602227,0.010692467164260581
0.3,0.0096,1.613,0.008555321171238263,0.8837020361226627,0.008602895459979602,0.010419857850171767
0.301,0.0086,0.613,0.00860586681621175,0.8837020361226627,0.008722804148443331,0.010419857850171767
0.302,0.0049,0.613,0.008606942840178246,0.8971524385551591,0.008725356784237094,0.012061243319901988
0.303,0.0038,-0.387,0.00889740244526748,0.8949465283732542,0.009414409823647538,0.01179205071110978
0.304,0.0031,0.613,0.009136091328032765,0.8949465283732542,0.009980647941654949,0.01179205071110978
0.305,0.0093,-0.387,0.00958803962999304,0.8949465283732543,0.011052798236104482,0.011792050711109794
0.306,0.0115,-0.387,0.00962021120009324,0.8814624661828838,0.011129118377603466,0.010146557658891511
0.307,0.0065,-0.38699999999977797,0.009601956478419575,0.8723126094740005,0.011085812970474765,0.00902997829054563
0.308,0.0058,0.613,0.009567684580370554,0.8723126094740005,0.011004510251944289,0.00902997829054563
0.309,0.0043,0.612999999999778,0.00949689478856017,0.8700437226307719,0.010836576672363778,0.008753100485912818
0.31,0.0007,-0.387,0.009468640453449428,0.8769661684312311,0.010769549329685274,0.009597863459280586
0.311,0.0076,0.612999999999778,0.009485717288671964,0.8769661684312311,0.0108100604541495,0.009597863459280586
0.312,0.0051,-0.387,0.009494314009311302,0.8838343973034186,0.010830454327795643,0.010436010208433119
0.313,0.0142,-0.387,0.00938887656253319,0.8860679721188583,0.010580326627085537,0.010708578800043481
0.314,-0.0047,-0.387,0.009350169368180644,0.8701781613546554,0.0104885021205161,0.008769506371837715
0.315,0.0033,-0.3869999999995559,0.00938190081990358,0.8701781613546554,0.010563778175676601,0.008769506371837715
0.316,0.0055,1.613,0.009352121517160264,0.872446698576307,0.010493133174763303,0.009046341511295318
0.317,-0.0058,0.613000000000222,0.009175962660612595,0.874709352422178,0.0100752341161801,0.009322458688032649
0.318,-0.0075,1.613,0.009175756356081232,0.8747093524221781,0.010074744702981538,0.009322458688032663
0.319,-0.0057,0.613,0.009138915670427215,0.8654881053907988,0.009987348087482915,0.00819716738421777
0.32,-0.0009,0.613,0.009164206362334715,0.8677689035285161,0.010047344823078223,0.008475498753217717
0.321,0.0005,-1.387,0.009116039458669754,0.8700437226307719,0.009933079187555049,0.008753100485912818
0.322,-0.0117,-1.387,0.00921824401947279,0.8859359446401691,0.010175537560523317,0.010692467164260595
0.323,-0.0197,-0.387,0.009319252012661278,0.8949465283732544,0.010415157333778518,0.011792050711109808
0.324,-0.0092,-0.387,0.009358775852108885,0.8949465283732544,0.010508919155468584,0.011792050711109808
0.325,-0.0026,-0.38699999999977797,0.009436351251522907,0.908230421206793,0.010692950131938755,0.01341311660767695
0.326,0.0035,0.613,0.009474686853343102,0.908230421206793,0.01078389311502144,0.01341311660767695
0.327,0.0003,1.612999999999778,0.009470129011708696,0.908230421206793,0.0107730806145005,0.01341311660767695
0.328,-0.0106,0.613,0.009495872191082423,0.90605148233825,0.0108341507794417,0.013147215374148345
0.329,-0.0,-1.386999999999778,0.009717210836954008,0.8927351674988566,0.011359229186230668,0.01152219294099603
0.33,0.0011,-0.387,0.009988745854127968,0.8792171915579694,0.012003387704702124,0.009872561310946961
0.331,-0.005,0.613,0.010121593497869747,0.8814624661828838,0.012318540211608088,0.010146557658891511
0.332,0.0074,0.613,0.010128984731984059,0.8814624661828838,0.012336074327341311,0.010146557658891511
0.333,0.006,-0.387,0.010175216701383924,0.8814624661828838,0.012445749746830782,0.010146557658891511
0.334,0.0017,-0.387,0.010165864748553818,0.9083592082512435,0.01242356424699156,0.013428832805352928
0.335,-0.0048,-1.386999999999556,0.010073291145807553,0.9083592082512435,0.01220395325384884,0.013428832805352928
0.336,0.009,0.613,0.010056725904583584,0.9061805790551337,0.01216465577628587,0.013162969361907919
0.337,0.0072,-0.387,0.010069465614398542,0.9061805790551337,0.012194878002080425,0.013162969361907919
0.338,-0.004,0.613,0.010071200090994714,0.921449760200172,0.01219899267534114,0.015026304841416904
0.339,0.0065,0.613,0.010076057995970392,0.921449760200172,0.012210517011703264,0.015026304841416904
0.34,-0.0025,0.613,0.010084984165876578,0.921449760200172,0.01223169243298865,0.015026304841416904
0.341,0.0011,-0.387,0.009972967531824634,0.9279888155881499,0.011965957023294393,0.01582428174608235
0.342,0.0094,-0.387,0.00979621108167822,0.9215766998911765,0.011546640302226175,0.015041795602038568
0.343,0.004,1.613,0.00947569840671639,0.9063096573832007,0.01078629280817731,0.013178721105635253
0.34400000000000003,0.008700000000000143,-0.387,0.00922906958051797,0.8929971924412339,0.010201218879408306,0.011554168484871641
0.34500000000000003,0.01130000000000012,0.613,0.00921328490839971,0.8794832439278178,0.010163773134428233,0.009905028331636355
0.34600000000000003,0.013499999999999722,-1.387,0.009180735403364875,0.8885592647604711,0.010086556423455056,0.011012597327616266
0.34700000000000003,0.008499999999999395,-0.387,0.00917962644440256,0.8952079060564951,0.010083925656456215,0.011823947268371663
0.34800000000000003,-0.0024000000000007657,-0.387,0.009216877404050153,0.8952079060564951,0.01017229555890184,0.011823947268371663
0.34900000000000003,-0.016199999999999694,-0.387,0.009195528401271502,0.8952079060564951,0.010121649634321406,0.011823947268371663
0.35000000000000003,-0.010699999999999921,-0.387,0.009129938474699388,0.8885592647604711,0.009966051618393035,0.011012597327616266
0.35100000000000003,-0.009300000000000759,1.613,0.009085039673987723,0.8818604985581808,0.009859538855329985,0.010195130522088248
0.352,-0.023,-0.387,0.009055981542978386,0.8818604985581808,0.009790604679490217,0.010195130522088248
0.353,-0.0212,-0.387,0.009124556965636342,0.9390767282202074,0.009953285143773038,0.0171773668136285
0.354,-0.0293,-0.387,0.00911670969418117,0.9411792129254118,0.009934669177378659,0.017433938158818513
0.355,-0.0093,0.613,0.009122040205107944,0.9411792129254118,0.009947314669871758,0.017433938158818513
0.356,-0.0014,-0.387,0.009074623182806245,0.9411792129254118,0.009834827966852448,0.017433938158818513
0.357,0.0055,-0.387,0.009024395588844592,0.9432770113816122,0.00971567378611562,0.017689937629593512
0.358,-0.0058,-0.387,0.009004204182964355,0.9432770113816129,0.009667774011592849,0.017689937629593592
0.359,0.0039,-1.387,0.009018596420221296,0.9558894965209923,0.009701916503877668,0.019229070004915645
0.36,0.0057,0.613,0.009079119953127721,0.9621945285870742,0.00984549558879799,0.01999848847186401
0.361,0.0042,-1.387,0.009200486772760188,0.9621945285870742,0.010133412305911336,0.01999848847186401
0.362,-0.0001,0.613,0.009169223986434383,0.968458513374036,0.010059248058763725,0.020762897839058082
0.363,0.0089,-0.387,0.009157757935271392,0.9767080847256868,0.010032047314613891,0.021769613185759366
0.364,0.0078,0.613,0.009240648840255121,0.9767080847256868,0.010228688186589785,0.021769613185759366
0.365,0.0089,0.613,0.009259962821999512,0.9787297339545009,0.01027450646076943,0.02201631998027502
0.366,0.0023,0.613,0.009301845447079935,0.9807472158944829,0.010373863994844738,0.02226251823035332
0.367,-0.0003,0.613,0.009291458412284938,0.9684585133740375,0.010349222985318625,0.020762897839058273
0.368,-0.0025,-0.387,0.009285119971035953,0.968458513374036,0.010334186394580315,0.020762897839058082
0.369,-0.0076,0.613,0.009260536816981954,0.9539420702591906,0.010275868140604865,0.01899142082039983
0.37,0.0032,0.613,0.009243003200555159,0.9602598891415456,0.010234273400823309,0.01976239969377767
0.371,0.0137,1.613,0.009260668153658004,0.9949901875950288,0.01027617970866539,0.02400062286420224
0.372,0.0148,-1.387,0.009264158102171918,0.9888942775275058,0.010284458862078683,0.02325672406564731
0.373,0.0111,0.613,0.009203924753111242,0.9888942775275058,0.010141568176017954,0.02325672406564731
0.374,0.0121,1.613,0.00902321275563307,0.9908910643884,0.009712867768324383,0.023500396844664057
0.375,0.0095,-0.387,0.008983657851088771,0.998955400469234,0.009619032251363376,0.024484507478716316
0.376,0.0033,-0.387,0.009012057377284709,1.00093211632197,0.009686404028712986,0.024725730943571708
0.377,-0.009,-0.387,0.009010002635826833,0.9989554004692347,0.00968152959584196,0.0244845074787164
0.378,-0.0217,0.613,0.009041862950188087,0.9848885588788203,0.009757111349939746,0.022767896432513108
0.379,-0.0232,0.613,0.009048835358367256,0.9910091092891843,0.009773651891081054,0.02351480215230414
0.38,-0.0189,0.613,0.009063256176706091,0.9969747653619593,0.009807862185845131,0.02424280573765436
0.381,-0.0041,-0.387,0.009063666384937089,1.0108734349486048,0.009808835316784538,0.025938894343374035
0.382,0.0097,-1.387,0.009049898570386255,1.0089161967808142,0.009776174133280632,0.02570004778799877
0.383,0.0115,-2.387,0.009033469855574862,1.0069551542986077,0.009737200535313644,0.025460736982840945
0.384,0.0002,0.613,0.009159600093471961,1.0089161967808136,0.010036417439357353,0.025700047787998687
0.385,0.0016,-0.387,0.009276689659188748,1.0226525856041782,0.010314187290058674,0.027376332875704467
0.386,0.0051,-0.387,0.009399480949429192,1.0167225430564522,0.01060548325779682,0.026652675295823942
0.387,-0.0036,1.613,0.009368140804592931,1.0167225430564506,0.010531135494195216,0.026652675295823755
0.388,0.0039,-1.387,0.009465166462977376,1.0167225430564506,0.010761308033299449,0.026652675295823755
0.389,0.0065,0.613,0.009543042439144183,1.0167225430564506,0.010946052063569366,0.026652675295823755
0.39,-0.0019,-1.387,0.009638555860464313,1.0167225430564506,0.011172637144978214,0.026652675295823755
0.391,-0.0008,-1.387,0.009787788526845927,1.0401274448281614,0.01152665959955666,0.029508832639914398
0.392,0.0017,-0.387,0.009853475463579526,1.042026060539221,0.011682487751261069,0.02974052535367333
0.393,0.0024,0.613,0.009809485805318903,1.0420260605392213,0.011578131733432714,0.029740525353673358
0.394,-0.0067,0.613,0.00980722897352143,1.0285484393681377,0.011572777884628129,0.0280958183147748
0.395,0.002,-1.387,0.009770684400407964,1.030468389367067,0.011486083732544382,0.028330114503804606
0.396,-0.0056,1.613,0.009705368843595174,1.0285484393681363,0.011331136599951497,0.02809581831477464
0.397,0.0092,0.613,0.009695887486985086,1.0226525856041626,0.011308644117432601,0.02737633287570257
0.398,0.007,-0.387,0.00981571742387672,1.0304683893670639,0.011592914910275467,0.028330114503804224
0.399,0.0087,-1.387,0.009837616446458796,1.0382253571005722,0.011644865638727575,0.02927671622749582
0.4,0.0032,-1.387,0.00972099114768281,1.0401274448281512,0.011368197161646033,0.029508832639913152
0.401,0.0046,0.613,0.009708292690154881,1.0401274448281514,0.011338072798043887,0.02950883263991318
0.402,0.0122,-3.387,0.00966762929760233,1.026624898767063,0.01124160763132142,0.027861083955792936
0.403,-0.0002,0.613,0.00939084845794852,1.0285484393681275,0.010585004525511086,0.028095818314773553
0.404,0.0044,0.613,0.009465685290960217,1.0304683893670583,0.010762538841274961,0.028330114503803547
0.405,0.0001,-0.387,0.010163489944971352,1.0304683893670583,0.012417930535460493,0.028330114503803547
0.406,-0.0064,0.613,0.010462208558689746,1.0285484393681275,0.013126576299293638,0.028095818314773553
0.40700000000000003,0.002399999999999439,-0.387,0.010489635639808223,1.0285484393681283,0.013191641159521058,0.028095818314773664
0.40800000000000003,-0.0077000000000002,1.613,0.010483636487417236,1.0363197782385916,0.013177409458739032,0.02904417378341822
0.40900000000000003,-0.011300000000000199,-1.387,0.010469410925839105,1.0382253571005713,0.01314366236871004,0.02927671622749571
0.41000000000000003,-0.014899999999999195,-0.387,0.010462188020269554,1.0304683893670574,0.013126527576302179,0.02833011450380344
0.41100000000000003,-0.00040000000000009993,-1.387,0.010448415727222205,1.0304683893670572,0.013093855768527009,0.028330114503803412
0.41200000000000003,-0.0022000000000009217,-1.387,0.010440086409903744,1.024583583804169,0.013074096251837117,0.027611977303701848
0.41300000000000003,-0.01879999999999938,-0.387,0.010496716187311282,1.0362068951513053,0.013208438237986323,0.0290303983844902
0.41400000000000003,-0.0076000000000001,0.613,0.010526367314764244,1.0362068951513053,0.013278779170547782,0.0290303983844902
0.41500000000000004,-0.009399999999999296,0.613,0.010530185272194062,1.0362068951513053,0.013287836454677005,0.0290303983844902
0.41600000000000004,0.0033000000000000776,0.613,0.010496304445170449,1.042026060539203,0.013207461468175224,0.029740525353671134
0.417,0.0047,0.613,0.010520498772787363,1.042026060539203,0.013264857314925774,0.029740525353671134
0.418,0.0033,-0.387,0.010567771319865521,1.0401274448281432,0.013377001281502026,0.029508832639912178
0.419,-0.0004,-1.387,0.010567538468027993,1.0534569379908127,0.013376448890520387,0.03113546325605006
0.42,0.0058,2.613,0.010568997684960155,1.051578960821702,0.013379910569337848,0.030906289113987514
0.421,0.0026,0.613,0.01058361781499574,1.0573135259357056,0.013414593688302019,0.03160609210505684
0.422,0.0051,-1.387,0.010502676803705679,1.0440332721759094,0.01322257852039171,0.029985470293549157
0.423,0.0077,0.613,0.010400822088041143,1.0363197782385827,0.012980950079888342,0.029044173783417133
0.424,0.0037,-1.387,0.010379671035873117,1.0363197782385827,0.012930773750623454,0.029044173783417133
0.425,-0.0076,0.613,0.010319238125559828,1.0305819010122774,0.012787409648344935,0.028343966607191746
0.426,-0.0029,-0.387,0.010335179396627505,1.0324980697571342,0.012825226890704245,0.02857780136054904
0.427,0.0076,-0.387,0.010333499741313442,1.0344106889482225,0.012821242269162942,0.028811202953187995
0.428,0.0112,-1.387,0.010297650877961672,1.0363197782385827,0.012736198539091224,0.029044173783417133
0.429,-0.0051,1.613,0.010138775054965103,1.0421383133021298,0.012359299766227471,0.029754223832577597
0.43,0.0014,1.613,0.009923230299010105,1.0402399024715787,0.01184796611907834,0.02952255612088767
0.431,-0.0004,-0.387,0.009753743084901938,1.0402399024715787,0.011445894099505903,0.02952255612088767
0.432,0.005,-0.38699999999977797,0.0097653509415332,1.0421383133021298,0.011473431246677723,0.029754223832577597
0.433,0.0163,0.613,0.009775779511327718,1.0421383133021298,0.011498170789070923,0.029754223832577597
0.434,0.0148,1.612999999999778,0.009709329700368585,1.0246977473432526,0.011340532882087013,0.027625908959290978
0.435,0.0159,0.613,0.009723707731554659,1.0227669646856061,0.01137464167351933,0.02739029083445248
0.436,0.0047,0.612999999999778,0.00974338057627304,1.0227669646856061,0.011421311273042082,0.02739029083445248
0.437,-0.0153,-0.387,0.009793068023395092,1.0246977473432528,0.011539184071393772,0.027625908959291005
0.438,-0.0128,0.613,0.009809931506176506,1.0109891466747205,0.01157918906300701,0.025953014928009097
0.439,-0.015,0.613,0.009802641641439083,1.0030215670922575,0.011561895424352268,0.024980711725840397
0.44,-0.0172,-2.386999999999334,0.009787083392249206,1.0030215670922575,0.011524986819147435,0.024980711725840397
0.441,-0.0114,0.613,0.009831328872620693,1.00891619678078,0.01162994971999825,0.025700047787994597
0.442,0.0013,-0.387,0.009839585024807373,1.0009321163219422,0.011649535668124563,0.024725730943568322
0.443,0.0034,-0.387,0.00983999002572484,1.0147765863484333,0.011650496445830846,0.026415205444546532
0.444,0.002,0.612999999999778,0.00985251206385011,1.026510949556364,0.01168020229228471,0.02784717845522021
0.445,0.0005,-0.387,0.009865549031633593,1.026510949556364,0.011711129698776034,0.02784717845522021
0.446,0.0128,0.6129999999995559,0.00988772278710941,1.0186647824074593,0.011763732172022055,0.026889691508943277
0.447,0.0175,-1.387,0.009872507635130218,1.0068389789629262,0.011727637491272444,0.02544655982279791
0.448,0.007,-1.386999999999556,0.009829651774925821,1.004873882734037,0.011625971165859254,0.025206754329028642
0.449,0.0059,0.613,0.009866164309774498,1.0068389789629264,0.011712589314039724,0.025446559822797938
0.45,0.0095,-0.387,0.009827947529193382,1.0068389789629262,0.01162192820883093,0.02544655982279791
0.451,-0.0028,-0.387,0.009869467225258085,1.0008152418280634,0.011720424771752277,0.024711468463542344
0.452,-0.0014,0.613,0.009860106989538023,1.0068389789629262,0.011698219622535314,0.02544655982279791
0.453,-0.0243,0.613,0.00978844834705159,0.9516219615128128,0.01152822488130397,0.018708292281784656
0.454,-0.0472,-0.387,0.009796149438342696,0.9579550818891438,0.011546494066650011,0.019481138433855724
0.455,-0.0265,-0.387,0.009814926415974567,0.9558894965209669,0.011591038413889648,0.01922907000491254
0.456,-0.0077,-0.38700000000022206,0.009818664859907346,0.9703768073667902,0.011599907069321978,0.020996991941608527
0.457,0.0042,-1.387,0.009798879080836615,0.9765883111931597,0.011552969557299946,0.021754996928964453
0.458,0.002,0.612999999999778,0.009844757384390645,0.984769780304503,0.011661805980516825,0.02275340159289934
0.459,0.0001,-0.387,0.009814772043050934,0.9704973474897919,0.011590672197278567,0.021011701747311918
0.46,0.0019,0.613,0.0097495038623508,0.9621945285870475,0.01143583745433935,0.019998488471860743
0.461,0.0004,0.613,0.00964391201636089,0.9642466075651909,0.011185343474655137,0.02024890868303046
0.462,0.0109,1.612999999999556,0.009662537820866622,0.9558894965209671,0.011229529196116118,0.019229070004912568
0.463,0.0119,-0.387,0.009671979809140425,0.9495425995053434,0.011251928285711187,0.018454542655890686
0.464,0.0083,0.613,0.009529787270344621,0.9516219615128129,0.010914607022024157,0.01870829228178467
0.465,0.0028,-1.387,0.00950650975392997,0.9641252859414184,0.010859386112973777,0.02023410350887872
0.466,0.0075,0.613,0.009474038416975143,0.962072948187139,0.010782354838984503,0.019983651718624897
0.467,0.01,-0.387,0.009475906128055331,0.9600162229230113,0.010786785582447606,0.0197326645098251
0.468,-0.0024,1.613,0.009502485000402239,0.9579550818891438,0.010849838249509906,0.019481138433855724
0.46900000000000003,-0.007799999999999922,-0.387,0.009522632248602152,0.9662943286385922,0.010897633269418587,0.02049879708843764
0.47000000000000003,-0.0063999999999994174,-1.387,0.009560499882093352,0.9579550818891439,0.010987466098132842,0.019481138433855738
0.47100000000000003,0.0040999999999996395,-0.387,0.00970228030920909,0.9283669002526544,0.011323809715356301,0.01587042034139651
0.47200000000000003,-0.0023999999999993727,-0.387,0.009873887668773985,0.9283669002526544,0.011730911324742108,0.01587042034139651
0.47300000000000003,0.00889999999999976,0.613,0.009977389489585977,0.9283669002526544,0.011976447168506366,0.01587042034139651
0.47400000000000003,0.004600000000000361,-1.387,0.009957051195680548,0.9348575735204079,0.011928198933686747,0.016662493057727833
0.47500000000000003,0.011099999999999234,0.613,0.009995360301739692,0.92623533301564,0.012019079061266074,0.015610299983797725
0.47600000000000003,-0.0026999999999997005,0.613,0.01003007895135188,0.9240988490245321,0.012101441601944166,0.01534957962268472
0.47700000000000004,0.0026999999999991788,0.613,0.010074509671347905,0.9240988490245321,0.012206843944025604,0.01534957962268472
0.47800000000000004,-0.012099999999999899,-1.387,0.010061420030616932,0.9240988490245322,0.012175791582277416,0.015349579622684734
0.47900000000000004,-0.0102999999999997,-0.387,0.010009081203876656,0.9175320710932791,0.012051628955142106,0.014548219668334023
0.48,-0.0049,0.613,0.010001769238965886,0.9175320710932791,0.012034282888571916,0.014548219668334023
0.481,0.0063,0.613,0.01008768118473067,0.9175320710932791,0.012238090531058735,0.014548219668334023
0.482,0.0107,-1.387,0.01020463233256826,0.9746822422771109,0.012515532015065691,0.021522394682391647
0.483,0.0016,-1.387,0.01020463233256826,0.9746822422771114,0.012515532015065691,0.021522394682391716
0.484,0.0053,-0.387,0.010076616249917255,0.9868934505651896,0.012211841349312037,0.023012558263183606
0.485,0.0064,-0.387,0.00996753717964576,0.9808664815835478,0.011953074678870726,0.022277072513769824
0.486,0.0111,0.613,0.009841931002904506,0.9930016435294641,0.011655100997381703,0.02375795597363766
0.487,0.0068,-0.387,0.009837753966555821,1.0266248987670603,0.011645191875626527,0.027861083955792613
0.488,-0.0009,-0.387,0.009733494045091974,1.0266248987670603,0.011397857600861238,0.027861083955792613
0.489,-0.0034,0.613,0.0096491625978288,1.0266248987670605,0.011197799351671233,0.027861083955792638
0.49,-0.0095,1.613,0.009555839815117855,1.03249806975714,0.010976411089942167,0.028577801360549743
0.491,-0.0041,-0.387,0.009415714060699354,1.0148918530613886,0.010643992828366389,0.026429271723138418
0.492,-0.0019,1.613,0.009363616427672868,1.012942379433426,0.010520402381522801,0.02619137269352803
0.493,-0.0055,1.613,0.009364678172134511,1.0208325301900023,0.0105229211422577,0.027154227066906178
0.494,-0.0084,0.613,0.009358985911072277,1.0344106889482432,0.010509417475250905,0.028811202953190514
0.495,-0.0069,-0.387,0.009362040828014638,1.0324980697571564,0.01051666460967992,0.028577801360551748
0.496,0.0012,0.613,0.009362040828014638,1.0324980697571564,0.01051666460967992,0.028577801360551748
0.497,0.0001,-0.387,0.009281608453065174,1.0383380207504698,0.010325856072262463,0.029290464847943183
0.498,0.011,0.613,0.009172116296887724,1.0324980697571593,0.010066109444215864,0.028577801360552102
0.499,0.0005,-1.387,0.009194546343926491,1.0382253571005946,0.010119319914158608,0.029276716227498556
0.5,0.0096,0.613,0.009216717603921041,1.0382253571005946,0.010171916467411203,0.029276716227498556
0.501,-0.0016,-1.387,0.009299337516804937,1.0401274448281739,0.01036791446882343,0.029508832639915918
0.502,0.0028,-0.387,0.009297008801360553,1.053456937990843,0.010362390091502936,0.031135463256053743
0.503,0.0039,-1.387,0.009303256498173741,1.064765105344447,0.010377211410553892,0.032515426545378034
0.504,0.0075,-0.387,0.009132340006827716,1.0629071079831214,0.009971748737659441,0.032288690588072495
0.505,-0.0027,1.613,0.007941922350475476,1.0647651053444471,0.00714773847976016,0.03251542654537806
0.506,-0.0015,-1.387,0.007520078447139756,1.0777899369893136,0.006147004406390666,0.03410487857217502
0.507,0.0098,-1.387,0.007496544588738997,1.0852087075384618,0.006091175381025447,0.03501020926720422
0.508,-0.0007,-0.387,0.00750078202595609,1.0777899369893122,0.006101227790870361,0.03410487857217486
0.509,0.0005,-0.387,0.007527923047031346,1.0777899369893138,0.00616561403507414,0.03410487857217505
0.51,0.0042,0.613,0.0075464768484731475,1.0777899369893131,0.006209628944727974,0.034104878572174965
0.511,-0.006,-0.387,0.007547649398641749,1.0777899369893131,0.0062124105682080715,0.034104878572174965
0.512,-0.0048,0.613,0.00754851997257415,1.0777899369893102,0.006214475817914542,0.03410487857217461
0.513,0.009,0.613,0.007535025154987132,1.072273994929025,0.006182462261083577,0.03343175468647199
0.514,0.0037,1.613,0.007521662296750939,1.0722739949290256,0.006150761749475324,0.03343175468647207
0.515,0.0052,-0.387,0.007478287642896057,1.077898465294758,0.006047864697532763,0.03411812254643565
0.516,0.0038,-0.387,0.007531837355673272,1.0778984652947554,0.006174899891763508,0.03411812254643532
0.517,-0.0085,-0.387,0.007535919875465228,1.0760631450461728,0.006184584793284451,0.033894153932600625
0.518,-0.007,-1.387,0.007481724929822035,1.0834937391459751,0.0060560189226372945,0.034800927484402444
0.519,-0.0085,-0.387,0.007510631939369677,1.0705383057379447,0.0061245945952612055,0.033219944293994524
0.52,-0.0175,-1.387,0.007517108520102981,1.0705383057379447,0.006139958892261814,0.033219944293994524
0.521,-0.0185,0.613,0.007499814447288463,1.0630171557460386,0.006098932418260486,0.03230211998544073
0.522,-0.0152,-1.387,0.007492793809740829,1.0630171557460382,0.006082277463299331,0.03230211998544068
0.523,-0.0043,-1.387,0.007499007343967373,1.0648749610956796,0.0060970177389495905,0.032528832511091295
0.524,0.0095,-0.387,0.007451356674045931,1.0648749610956796,0.0059839767571262265,0.032528832511091295
0.525,0.0113,-0.387,0.007447373097535452,1.05918133550624,0.005974526577293385,0.031834025470224514
0.526,0.0099,-0.387,0.007370014959483129,1.0573135259357331,0.005791011006748866,0.031606092105060206
0.527,0.0056,-0.387,0.007367253758458264,1.0573135259357331,0.0057844606502611825,0.031606092105060206
0.528,0.0045,0.613,0.0073666234136816,1.0554424109199534,0.005782965292639585,0.03137775536833367
0.529,0.0034,1.613,0.007309325680165445,1.0478129089330082,0.005647038724060427,0.030446708601108763
0.53,-0.0132,1.613,0.007236943560418757,1.0478129089330075,0.005475327688389551,0.030446708601108683
0.531,-0.0154,-3.387,0.0072203301789826166,1.0478129089330075,0.005435916008510895,0.030446708601108683
0.532,0.005,-0.387,0.007229727099712588,1.0535679728476888,0.005458208185036084,0.03114901311090567
0.533,0.0024,1.613,0.00715070430885541,1.0459247978552362,0.0052707435831817005,0.030216297793413963
0.534,0.0003,-1.387,0.007148943491768288,1.0459247978552333,0.005266566422762597,0.030216297793413612
0.535,-0.0019,1.613,0.007150451052699713,1.0459247978552333,0.005270142787336858,0.030216297793413612
0.536,-0.0037,2.613,0.007124353519056515,1.0478129089329988,0.005208231992985824,0.030446708601107625
0.537,-0.0055,-0.387,0.007038362923050966,1.053567972847683,0.00500423776969224,0.031149013110904962
0.538,-0.0008,0.613,0.0070792531514326735,1.0535679728476837,0.00510124105570837,0.031149013110905045
0.539,0.0068,-1.387,0.007109270040095907,1.0611560978726216,0.005172449678197172,0.03207501054636747
0.54,-0.0055,-1.387,0.007122269040400615,1.059291770332479,0.00520328701499829,0.03184750210187552
0.541,0.0057,-0.387,0.007089172841227057,1.059291770332479,0.005124773389578785,0.03184750210187552
0.542,-0.0019,-1.387,0.00713665369356798,1.0592917703324776,0.005237411515659209,0.03184750210187536
0.543,-0.0009,1.613,0.007134532098004352,1.0592917703324776,0.005232378485778622,0.03184750210187536
0.544,-0.0031,-0.387,0.007162518708684496,1.0536789960038726,0.0052987707097370135,0.031162561537897225
0.545,0.0005,-0.387,0.00715440630249622,1.0536789960038726,0.005279525768123717,0.031162561537897225
0.546,0.0037,-1.387,0.007194904410567971,1.0612663272061356,0.0053755988329088865,0.03208846210123923
0.547,0.0102,0.613,0.007195076655706289,1.059402193646715,0.005376007447511405,0.03186097732868872
0.548,0.0095,1.613,0.00726437809102032,1.0669488265822984,0.005540410220915884,0.03278191138311723
0.549,0.0087,0.613,0.007321987583072819,1.0726012212509766,0.005677076369675091,0.033471686913991584
0.55,0.0156,0.613,0.007398309069759626,1.0781154891306737,0.00585813270746675,0.03414460649534682
0.551,0.0019,1.613,0.007731380965699369,1.083709642472196,0.0066482742563026805,0.034827274694778025
0.552,0.0037,1.613,0.00857440068562709,1.0781154891306737,0.00864815751070799,0.03414460649534682
0.553,-0.0166,-0.387,0.008712680719849698,1.0909809469554128,0.008976197197471307,0.03571460974550492
0.554,-0.014,0.613,0.008718283659821538,1.085424269737869,0.008989488969372066,0.035036514849041335
0.555,-0.0071,1.613,0.008726681608304917,1.0982041085573497,0.00900941129876278,0.03659606980281059
0.556,-0.0049,-1.387,0.008786771998559819,1.085424269737869,0.009151962845755965,0.035036514849041335
0.557,0.0049,-0.38699999999977797,0.009052160266257365,1.079838999134706,0.009781539521055403,0.034354930631873656
0.558,0.0067,0.613,0.009006312925531917,1.0853164939899462,0.009672776550500339,0.03502336271121366
0.559,0.0053,-0.38699999999977797,0.009007137296758016,1.0871361927029923,0.009674732194207735,0.03524542499090162
0.56,-0.0023,0.613,0.009061131887622476,1.0889528506059782,0.009802822766166784,0.03546711619310889
0.561,-0.0012,0.6129999999995559,0.009127895979364786,1.0871361927029923,0.009961206236819729,0.03524542499090162
0.562,-0.0099,-1.387,0.009112354371218698,1.0871361927029923,0.009924337108917767,0.03524542499090162
0.5630000000000001,-0.01099999999999899,-0.38700000000022206,0.009163387171467493,1.1090561182421619,0.010045401468659823,0.03792036705736614
0.5640000000000001,-0.0018999999999987454,-1.387,0.0091422480466916,1.1144949774198691,0.009995253434571468,0.03858408433058535
0.5650000000000001,0.009399999999999834,-1.386999999999778,0.00916627322929679,1.1036964461916086,0.010052248021104116,0.037266313182736856
0.5660000000000001,0.007899999999999602,-0.387,0.009220941371419234,1.1036964461916086,0.01018193644878348,0.037266313182736856
0.5670000000000001,0.004299999999998746,-1.386999999999778,0.009213796039614395,1.1109422289110527,0.010164985683474109,0.03815053375027794
0.5680000000000001,-0.007000000000000155,-0.387,0.009177572245460218,1.1109422289110527,0.010079052510586795,0.03815053375027794
0.5690000000000001,-0.008399999999998634,-0.387,0.009151694529678803,1.1036964461916088,0.010017663186908873,0.037266313182736883
0.5700000000000001,0.0038999999999998446,-0.387,0.0091337148082183,1.1109422289110527,0.00997501015873201,0.03815053375027794
0.5710000000000001,0.0025000000000001553,-0.38699999999977797,0.00905506285425159,1.1036964461916088,0.009788425287766278,0.037266313182736883
0.5720000000000001,0.0038999999999998775,0.613,0.009028976964313366,1.1019040956353043,0.00972654211560491,0.03704758826543082
0.5730000000000001,0.0028000000000001223,0.613,0.00891280796819556,1.094598485900646,0.009450956118592889,0.03615606686105881
0.5740000000000001,0.003899999999999889,0.613,0.008961641708006705,1.0872437880687638,0.009566803679675644,0.03525855511625466
0.5750000000000001,0.002899999999999478,-0.38699999999977797,0.008914200053543053,1.0890602664922835,0.009454258542141642,0.035480224416144186
0.5760000000000001,-0.0018000000000000776,0.613,0.008842777230331928,1.0890602664922835,0.009284823231500837,0.035480224416144186
0.577,-0.0025,-0.387,0.008787330090140193,1.1017979319133344,0.009153286798185112,0.03703463284706855
0.578,-0.0079,-0.387,0.008778251688494956,1.1035904548910473,0.009131750239789262,0.037253378805380336
0.579,-0.001,-0.38699999999977797,0.008781072559775704,1.1090561182421617,0.009138442151145362,0.037920367057366115
0.58,-0.0003,0.613,0.00884970752411928,1.0964027794082405,0.009301263865291254,0.03637624920588882
0.581,0.0073,-1.386999999999778,0.008751685470090455,1.085424269737869,0.009068727591487996,0.035036514849041335
0.582,0.0008,-0.387,0.00876944666031787,1.047812908932997,0.009110862201242036,0.03044670860110741
0.583,0.0001,-1.386999999999778,0.008950412555302904,1.047812908932997,0.009540164926248361,0.03044670860110741
0.584,0.0055,-0.387,0.00909609199102582,1.0421383133021467,0.009885758104114298,0.029754223832579654
0.585,0.0019,0.6129999999995559,0.009119881664736124,1.0363197782385996,0.00994219399636731,0.029044173783419194
0.586,0.0011,-1.387,0.009173766730623813,1.02469774734327,0.010070024743838503,0.02762590895929309
0.587,0.0102,-0.38700000000022206,0.009201196446326809,0.9910091092891704,0.010135095854051942,0.023514802152302446
0.588,0.0066,-1.387,0.00920565401337369,0.9930016435294775,0.01014567047464707,0.0237579559736393
0.589,0.0055,-0.3869999999995559,0.00920557137923672,0.9910091092891704,0.010145474442902067,0.023514802152302446
0.59,0.0066,1.613,0.009182927019059796,0.9848885588788063,0.010091755561060923,0.0227678964325114
0.591,0.0092,-0.3869999999995559,0.00918279887115493,0.9767080847256772,0.010091451557675272,0.021769613185758187
0.592,0.0008,1.613,0.00917187895223236,0.9908910643883905,0.010065546394988707,0.02350039684466289
0.593,0.0084,-1.387,0.009288725615626365,0.9827605562103549,0.01034274001209038,0.02250821106792301
0.594,0.0077,0.613,0.009384593652764105,0.9704973474898102,0.010570166343375856,0.021011701747314156
0.595,0.0103,-1.387,0.009404131521260857,0.9704973474898102,0.010616515740797755,0.021011701747314156
0.596,0.0013,-0.387,0.009410851523737131,0.9704973474898103,0.010632457503610866,0.021011701747314166
0.597,-0.01,-1.387,0.009403617285039686,0.9642466075652092,0.010615295825790764,0.0202489086830327
0.598,-0.0143,-1.387,0.009403849359201357,0.9642466075652092,0.01061584637190343,0.0202489086830327
0.599,-0.0106,1.613,0.009356632519912457,0.9496657840970989,0.010503834560094433,0.018469575172576854
0.6,-0.0244,-1.387,0.009319260702603895,0.9475821294888528,0.010415177948801287,0.01821530171012278
0.601,-0.0371,0.613,0.009193210594938923,0.9475821294888528,0.010116151136526034,0.01821530171012278
0.602,-0.0157,1.613,0.009242424083892524,0.9348575735204269,0.010232899570901455,0.01666249305773015
0.603,0.005,0.613,0.009294678108405802,0.9219574140980548,0.01035686102296375,0.01508825508683287
0.604,-0.0084,1.613,0.009146797490173301,0.9240988490245514,0.010006046012278542,0.015349579622687078
0.605,-0.0106,-0.387,0.009068372004552044,0.9240988490245513,0.0098199983888303,0.015349579622687064
0.606,-0.0218,0.613,0.00904421959073887,0.9176595527177357,0.0097627019735785,0.014563776562418857
0.607,-0.0036,1.613,0.009125549980938953,0.911046361833673,0.009955640859337117,0.013756752722044577
0.608,-0.0014,0.613,0.009266207710063522,0.9110463618336738,0.010289321116666117,0.013756752722044673
0.609,0.0099,0.613,0.00946472945024804,0.9110463618336738,0.010760271314443766,0.013756752722044673
0.61,0.0118,-0.387,0.009647232157953076,0.9132133829333116,0.011193219797611186,0.014021199601117272
0.611,0.0028,-0.387,0.009655006940199617,0.9132133829333116,0.011211663798924508,0.014021199601117272
0.612,0.0108,-2.387,0.00971659141558182,0.913213382933315,0.011357759742040485,0.014021199601117692
0.613,0.0065,-1.387,0.009709498553204222,0.9065677589043007,0.01134093344917989,0.013210217864827036
0.614,0.0076,0.613,0.009674365443674253,0.9087454598747076,0.01125758769134851,0.01347596803462175
0.615,0.0113,-0.387,0.009746500537760187,0.8998730578259482,0.011428712711685851,0.012393247136304703
0.616,0.0011,-1.387,0.00975664177754575,0.9064387173303078,0.011452770625334414,0.013194470606289147
0.617,-0.0024,-0.387,0.00976895896374118,0.915247474138708,0.011481990504574895,0.014269424720432463
0.618,-0.0013,-0.387,0.009813627030410721,0.9064387173303109,0.011587955900671127,0.013194470606289527
0.619,0.0063,-1.387,0.009881062157948026,0.9064387173303109,0.011747931259648618,0.013194470606289527
0.62,0.0128,-0.387,0.010046079483286485,0.9064387173303109,0.012139399427984506,0.013194470606289527
0.621,0.0172,-0.387,0.010086166300283729,0.9064387173303109,0.012234496793016575,0.013194470606289527
0.622,0.0048,-0.387,0.010101464269650631,0.9064387173303117,0.012270787940234217,0.013194470606289622
0.623,0.0103,-0.387,0.010119544176109916,0.9195566092598917,0.012313678635806841,0.014795279006987244
0.624,0.0023,0.613,0.010192507000111263,0.9174045717541529,0.01248676726762073,0.01453266061248479
0.625,0.0008,-0.387,0.010187936340482848,0.9174045717541529,0.012475924359161557,0.01453266061248479
0.626,-0.0002,1.613,0.010194270525976601,0.9174045717541537,0.012490950854034464,0.014532660612484885
0.627,-0.0039,0.613,0.010196817489281872,0.9174045717541537,0.012496992977538092,0.014532660612484885
0.628,-0.005,-1.387,0.010205071239893641,0.9195566092598926,0.012516573228443644,0.014795279006987351
0.629,-0.0115,-0.387,0.010194406281055408,0.9195566092598925,0.012491272903806715,0.01479527900698734
0.63,-0.0014,0.613,0.01019584609297317,0.9195566092598932,0.012494688548394571,0.014795279006987433
0.631,0.0164,1.613,0.010197233796068827,0.9174045717541544,0.012497980575991895,0.014532660612484967
0.632,0.0186,-0.387,0.010171395614632081,0.9174045717541576,0.012436685039057047,0.014532660612485359
0.633,0.0164,-1.387,0.010194394715253305,0.9195566092598964,0.012491245466424881,0.014795279006987813
0.634,0.0066,0.613,0.010194431853661234,0.9129571601941794,0.012491333569322544,0.013989932114279114
0.635,-0.0101,0.613,0.010183193993002724,0.915119656497418,0.01246467415814267,0.014253826821392526
0.636,-0.008,0.613,0.010227644978329373,0.9281148609229825,0.012570124575369214,0.01583966336623533
0.637,-0.0062,0.613,0.010886401506446226,0.9215766998911942,0.014132882976114609,0.015041795602040723
0.638,-0.0007,-0.387,0.011132499927517598,0.9237190174184309,0.014716698632619563,0.015303227843819534
0.639,-0.0021,0.613,0.011324991435798144,0.9171495199021398,0.01517334340014468,0.01450153601186238
0.64,0.0055,-0.387,0.011312112704015099,0.9171495199021412,0.015142791374584593,0.014501536011862557
0.641,-0.0035,1.613,0.011299260723982067,0.9039966993847945,0.01511230281180671,0.01289646519026518
0.642,-0.0148,-0.387,0.011262459969571132,0.919302154470913,0.015025000924607415,0.014764227267425623
0.643,-0.0134,0.613,0.011266985829101357,0.9061805790551538,0.015035737554454061,0.013162969361910372
0.644,-0.0068,-0.387,0.011248627095996938,0.8994829962667393,0.014992185402541445,0.012345646971268831
0.645,0.0036,-0.387,0.011245319849759756,0.8994829962667376,0.014984339671045977,0.012345646971268614
0.646,-0.0,0.613,0.011210632823772416,0.8905183153260332,0.014902052150626942,0.01125166505431949
0.647,-0.0102,0.613,0.011210046301398113,0.8927351674988736,0.014900660752244464,0.011522192940998103
0.648,-0.0012,-0.387,0.01116703051813627,0.8837020361226801,0.014798615043719564,0.01041985785017388
0.649,0.0024,-0.387,0.0110890492308645,0.8745756102278981,0.014613621185467761,0.00930613780131699
0.65,-0.0031,0.613,0.011076352129280074,0.8677689035285342,0.014583500038550398,0.008475498753219925
0.651,-0.0097,0.613,0.010902074672312296,0.8607724952897651,0.014170064196456354,0.007621709962806385
0.652,-0.0105,0.613,0.010282877092275607,0.8584731092406098,0.012701150905092497,0.007341110265561243
0.653,0.0018,0.613,0.010200089183102107,0.8444068154219891,0.012504754368558921,0.005624566065288209
0.654,-0.0073,0.613,0.010187901252010695,0.8515376980585465,0.012475841119296316,0.006494765095000394
0.655,-0.0026,-1.387,0.010192150847555453,0.8373549079432887,0.012485922372162723,0.004764004567034772
0.656,-0.0131,0.613,0.010237286287927921,0.8468825376039967,0.012592996512004725,0.005926684491634933
0.657,-0.0168,-0.387,0.010008061437079588,0.8468825376039968,0.012049209777402075,0.005926684491634947
0.658,-0.0204,0.613,0.010026639735535928,0.8326204556341722,0.012093282800962382,0.004186247784937345
0.659,-0.0194,0.613,0.010031717499805607,0.8398514180640521,0.012105328706286661,0.005068659796335214
0.66,-0.0045,0.613,0.01000870789264874,0.8470206524683694,0.0120507433544192,0.005943538985964969
0.661,0.011,0.613,0.009957668062174897,0.8564407605607136,0.011929662316977896,0.007093097790890037
0.662,0.0092,0.613,0.009991616029898641,0.8657583767955611,0.012010196580372862,0.008230149264045295
0.663,0.0073,0.613,0.00997841515639125,0.8446838321820854,0.011978880342748886,0.005658371097306823
0.664,0.012,-0.387,0.01001031248243061,0.8446838321820854,0.012054549899105042,0.005658371097306823
0.665,0.0104,1.613,0.009981917382556259,0.8518123957970704,0.011987188622252884,0.006528287131150885
0.666,0.0093,-1.387,0.0099337299394036,0.8541297132120352,0.011872874261205823,0.0068110750367741816
0.667,0.0103,-0.387,0.009957842314597714,0.8470206524683626,0.011930075693431845,0.005943538985964129
0.668,0.0135,-0.387,0.009955008570964449,0.8493510434832344,0.011923353245183623,0.006227922294924396
0.669,0.02,-0.387,0.010053662730579596,0.8906496635267972,0.012157389053751279,0.011267693796157606
0.67,0.0098,-0.387,0.010157773513647285,0.8906496635267971,0.012404369529697848,0.011267693796157592
0.671,0.0061,-0.387,0.010107164304247289,0.9061805790551014,0.012284310048282135,0.013162969361903977
0.672,0.0072,1.613,0.009999512294001225,0.9061805790551014,0.01202892877130248,0.013162969361903977
0.673,0.0125,-0.387,0.009991137984206871,0.9061805790551014,0.012009062519625274,0.013162969361903977
0.674,-0.0024,0.613,0.009964868482139238,0.9083592082512113,0.011946743767115988,0.013428832805349
0.675,-0.0046,-0.387,0.009976920934679088,0.9083592082512113,0.011975335622607846,0.013428832805349
0.676,-0.0029,0.613,0.009976861844921511,0.9235923721702256,0.011975195444847004,0.01528777301477202
0.677,-0.0048,0.613,0.01001139377539611,0.9105326246614649,0.01205711503446747,0.013694060119800538
0.678,0.0064,-0.387,0.010025430602989088,0.9083592082512113,0.01209041439364566,0.013428832805349
0.679,0.002,-0.387,0.010089258442518024,0.8994829962666865,0.012241832236456899,0.012345646971262383
0.68,-0.0017,-0.387,0.010080217560642788,0.9016778082724586,0.012220384685658333,0.012613485242506965
0.681,-0.0007,-1.387,0.010083089181873544,0.8994829962666865,0.012227196990372719,0.012345646971262383
0.682,0.0069,0.613,0.009974941396115268,0.8838343973033856,0.011970639592453805,0.010436010208429096
0.683,0.0003,0.613,0.009936293401555375,0.8860679721188254,0.011878955524679794,0.010708578800039458
0.684,0.0027,0.613000000000222,0.009883293823809128,0.8860679721188254,0.011753225407673328,0.010708578800039458
0.685,-0.0097,1.613,0.009868663636111663,0.8838343973033856,0.011718518429066143,0.010436010208429096
0.686,-0.0373,0.613,0.010152925809174805,0.8838343973033856,0.012392869391839095,0.010436010208429096
0.687,-0.0254,0.613,0.01026488916146715,0.8815951636088474,0.012658478402000494,0.010162751049977041
0.6880000000000001,-0.021799999999997467,0.612999999999778,0.010252800329870096,0.8815951636088474,0.012629800245007504,0.010162751049977041
0.6890000000000001,0.001000000000000311,-0.387,0.010286820091436735,0.8815951636088475,0.012710504823877637,0.010162751049977055
0.6900000000000001,0.003799999999999711,0.613000000000222,0.010288494416756637,0.879350227804816,0.01271447680115236,0.009888796049172624
0.6910000000000001,0.001200000000000233,1.613,0.010388459904493436,0.8815951636088474,0.012951623454092372,0.010162751049977041
0.6920000000000001,0.0033000000000002333,0.613,0.010467230039803462,0.8656232516414132,0.013138488684916709,0.008213659611358204
0.6930000000000001,0.0054000000000002,0.613,0.010423234642999294,0.8748430741705193,0.013034119053626097,0.009338777079680482
0.6940000000000001,0.007199999999999789,0.612999999999778,0.0103517030113918,0.8725807670731668,0.012864425618430554,0.009062702217512004
0.6950000000000001,0.005299999999999478,-0.387,0.010334903375530365,0.8884276075079236,0.0128245720899244,0.010996530871433964
0.6960000000000001,0.0006000000000001554,0.612999999999778,0.010329603016931858,0.9039966993847435,0.012811998127355166,0.012896465190258947
0.6970000000000001,0.0020000000000004,-0.387,0.010337003091830877,0.9039966993847436,0.012829553215951625,0.01289646519025896
0.6980000000000001,0.0056000000000004,-0.38700000000022206,0.01028927422388452,0.9018075310954005,0.012716326726106493,0.01262931563551846
0.6990000000000001,0.0092000000000006,-1.387,0.010393197413530156,0.9039966993847436,0.012962862176943295,0.01289646519025896
0.7000000000000001,0.014599999999999278,0.612999999999778,0.010437609120400858,0.912829021854795,0.01306821941446781,0.013974295079667213
0.7010000000000001,0.008100000000000078,-0.387,0.01043313914929747,0.9258563779002175,0.01305761536791228,0.01556405516523143
0.7020000000000001,0.008799999999999001,0.6129999999995559,0.010392211458361795,0.9258563779002175,0.01296052321003162,0.01556405516523143
0.7030000000000001,-0.0002000000000009659,-1.387,0.010403912453891353,0.9258563779002175,0.012988281309238885,0.01556405516523143
0.704,-0.0089,0.6129999999995559,0.010402602063962891,0.9258563779002176,0.012985172690528403,0.015564055165231443
0.705,-0.0143,-1.387,0.010402602063962891,0.9258563779002176,0.012985172690528403,0.015564055165231443
0.706,-0.0034,0.613,0.0104357431378957,0.9171495199020926,0.013063792771677771,0.014501536011856622
0.707,0.0071,0.613,0.01035541900197978,0.9171495199020926,0.01287324100812401,0.014501536011856622
0.708,0.0035,-1.387,0.0102258423807834,0.9193021544708614,0.012565848299783475,0.014764227267419322
0.709,0.0072,-1.387,0.010024238983267833,0.9193021544708615,0.012087587531746912,0.014764227267419336
0.71,0.0061,-1.387,0.00984113746828949,0.9193021544708614,0.011653218506912207,0.014764227267419322
0.711,0.0087,-1.387,0.009831036267468795,0.9193021544708614,0.011629255577109775,0.014764227267419322
0.712,0.0095,-1.387,0.009773694651751512,0.9171495199020926,0.011493224907431761,0.014501536011856622
0.713,0.0103,-1.387,0.009743699727014948,0.9149918210008822,0.011422068389642421,0.014238226743433318
0.714,-0.0009,-1.386999999999556,0.009720992973262968,0.912829021854795,0.01136820149244293,0.013974295079667213
0.715,-0.0056,0.613,0.00965926603128067,0.9215766998911448,0.011221767577911691,0.015041795602034695
0.716,-0.007,0.613,0.009658423741857146,0.9063096573831684,0.011219769427128679,0.01317872110563131
0.717,-0.0004,0.613,0.00964532569929788,0.912829021854795,0.01118869713384708,0.013974295079667213
0.718,-0.0141,2.612999999999112,0.00959163979392043,0.9149918210008822,0.01106133885191845,0.014238226743433318
0.719,-0.0158,-1.387,0.009499317283959566,0.9149918210008822,0.01084232352248911,0.014238226743433318
0.72,-0.0078,1.612999999999556,0.009305913402898868,0.9149918210008822,0.010383514346467167,0.014238226743433318
0.721,0.0089,-0.387,0.009303830773057648,0.9237190174183824,0.010378573754395446,0.015303227843813614
0.722,0.0025,-0.387,0.009319057846117137,0.9323645283805327,0.010414696715348112,0.01635826066851053
0.723,-0.0073,0.613,0.009291308972508702,0.9172770546928534,0.010348868471540392,0.014517099393955442
0.724,-0.0054,0.613,0.009225802650186984,0.9172770546928534,0.010193468788742803,0.014517099393955442
0.725,-0.0007,1.613,0.009291490909775456,0.9238456453053936,0.010349300078636325,0.015318680554232205
0.726,-0.0083,0.613,0.009291884282770654,0.9259827135038038,0.010350233271594018,0.015579472207589597
0.727,0.0066,-0.387,0.009287405852314847,0.9259827135038038,0.01033960915704145,0.015579472207589597
0.728,0.0124,-0.387,0.00928235811163751,0.9259827135038038,0.010327634476242697,0.015579472207589597
0.729,0.0107,0.613,0.00938121265066227,0.9259827135038038,0.010562145641929931,0.015579472207589597
0.73,0.0028,-0.387,0.009949727739525693,0.9259827135038038,0.011910825606607611,0.015579472207589597
0.731,0.0072,-0.387,0.010085978884228073,0.9346072845584604,0.012234052188670493,0.01663194968421643
0.732,0.0164,0.613,0.010092113259228604,0.9259827135038037,0.01224860467605579,0.015579472207589583
0.733,0.0128,-1.387,0.010086967889453432,0.9238456453053935,0.01223639839118742,0.01531868055423219
0.734,-0.0038,-0.387,0.010120115164409792,0.9238456453053936,0.012315033182933546,0.015318680554232205
0.735,-0.0259,0.613,0.010117789595254808,0.9238456453053918,0.012309516269509014,0.015318680554231988
0.736,-0.0171,-0.387,0.010076451997113626,0.9086167275774087,0.012211451694807283,0.013460258517874446
0.737,-0.0037,0.613,0.009361266191395478,0.9086167275774086,0.010514826950647411,0.013460258517874434
0.738,0.0084,-0.387,0.009034006990845373,0.9086167275774087,0.009738474773397824,0.013460258517874446
0.739,-0.0028,-0.387,0.008782239499181409,0.9064387173302747,0.009141210464295349,0.01319447060628511
0.74,0.0154,0.613,0.008789853897579764,0.9064387173302746,0.009159273989369885,0.013194470606285097
0.741,0.0133,-0.387,0.008838556678003276,0.9195566092598534,0.009274810877427866,0.01479527900698257
0.742,0.0113,-1.387,0.00887674584201652,0.9042554610933913,0.009365406468259804,0.012928042513750095
0.743,0.0056,-0.387,0.008897527696348287,0.9020669207764428,0.009414706954940177,0.012660969592015122
0.744,-0.0034,1.613,0.008952925342739532,0.9020669207764429,0.009546125974842602,0.012660969592015136
0.745,0.0014,1.613,0.00892700424477042,0.8998730578259179,0.009484633736240318,0.012393247136301003
0.746,-0.0039,0.613,0.008955547696271755,0.8998730578259179,0.00955234694547028,0.012393247136301003
0.747,-0.0024,-0.387,0.008984970841739054,0.9065677589042718,0.009622147039727894,0.013210217864823499
0.748,-0.0147,0.613,0.009129268395595488,0.9153752739322737,0.00996446199961267,0.014285020441470998
0.749,-0.0099,-1.387,0.00923623347719931,0.9434010141028717,0.010218213685900531,0.01770506998462183
0.75,0.0006,1.613,0.009466341448681302,0.9348575735204028,0.010764095434564094,0.016662493057727212
0.751,-0.003,0.613,0.00956655338449406,0.9413034920004287,0.011001826732641745,0.017449104237971014
0.752,-0.0116,0.613,0.009553680305810388,0.9413034920004287,0.010971288117845965,0.017449104237971014
0.753,0.0007,0.613,0.00952375070030848,0.9413034920004321,0.010900286555914114,0.01744910423797142
0.754,-0.0073,0.613,0.009527523651281136,0.9327408393601815,0.010909237071888464,0.016404182816728424
0.755,-0.0087,-0.387,0.009488111087919622,0.930619290608256,0.010815739228817085,0.016145285039341366
0.756,-0.0022,0.613,0.009386135588134812,0.9240988490245353,0.010573824253925702,0.015349579622685112
0.757,0.004,0.613,0.00939598515642158,0.9240988490245353,0.010597190239577281,0.015349579622685112
0.758,0.0029,0.613,0.009371107172430542,0.9369695257192691,0.01053817256488836,0.01692021974429896
0.759,-0.0036,0.613,0.009382005011909654,0.9304935845253577,0.010564025348836692,0.01612994481893075
0.76,0.0007,0.613,0.009433778077384688,0.9218305268328745,0.010686845828862503,0.01507277072386262
0.761,0.0029,-0.387,0.009637083660050503,0.9282408891421238,0.011169144665638635,0.015855042897718698
0.762,0.0051,-0.387,0.009792144487719373,0.9195566092598583,0.01153699318132435,0.014795279006983166
0.763,0.003,-0.387,0.010084605483287675,0.9129571601941379,0.012230794089865259,0.013989932114274047
0.764,-0.0049,-1.387,0.010301513389375544,0.9194293906679921,0.012745361517980036,0.014779754211407968
0.765,-0.0103,-0.387,0.010359789528715814,0.91066108612494,0.012883609144272798,0.013709736586034657
0.766,-0.0078,1.613,0.010346349473974774,0.9172770546928453,0.012851725500534072,0.014517099393954453
0.767,-0.0016,0.613,0.010402729915227437,0.9302421213985688,0.012985475990198597,0.016099258159215122
0.768,0.0024,-0.387,0.010505848796518932,0.9302421213985654,0.013230103392183395,0.016099258159214716
0.769,0.006,-0.387,0.010426189264663717,0.8997430560952593,0.013041128259045737,0.012377382707499435
0.77,0.0096,-1.387,0.010396134418375726,0.919556609259864,0.012969829590243266,0.01479527900698387
0.771,0.0081,-1.387,0.01040918492394814,0.9130852805511256,0.01300078911223171,0.014005566954450146
0.772,-0.0002,-0.387,0.010453431597359467,0.9218305268328876,0.01310575484331335,0.015072770723864218
0.773,0.0059,-0.387,0.010520160558255318,0.9304935845253692,0.013264054973577114,0.01612994481893216
0.774,0.0113,-1.387,0.010496428429001559,0.9848885588787835,0.013207755593190087,0.02276789643250861
0.775,0.0047,0.613,0.01049683655353264,0.9910091092891476,0.0132087237809989,0.023514802152299667
0.776,0.0004,0.613,0.010672361429759011,0.9768278435721487,0.013625118857411562,0.021784227650377855
0.777,-0.0037,0.613,0.01078436168698482,0.982998584567423,0.013890815416602595,0.022537258249866906
0.778,-0.015,-0.387,0.010885274594905904,0.9850073231299736,0.014130209620479608,0.022782389524236182
0.779,-0.0332,-0.387,0.010915195349108666,1.0111048451587101,0.01420119018460498,0.02596713389667516
0.78,-0.0166,-1.387,0.011018957330118673,1.0228813309771279,0.014447343202571896,0.027404247232416985
0.781,0.0036,-0.387,0.011017805027389997,1.02481189816457,0.014444609611795061,0.027639839062900032
0.782,0.0061,-0.387,0.011002006423286482,1.026738835331456,0.014407130816171742,0.027874987913106046
0.783,0.0082,0.613,0.010895293322521786,1.0248118981645684,0.01415397690031402,0.02763983906289984
0.784,0.0016,0.613,0.010827400937662353,1.03058190101226,0.013992916796531796,0.028343966607189634
0.785,0.0033,-0.387,0.01085569709669598,1.032498069757117,0.01406004335748602,0.028577801360546953
0.786,0.0014,0.613,0.010621925409605508,1.0324980697571156,0.013505470230292272,0.028577801360546762
0.787,-0.0066,0.613,0.01049049451513465,1.0324980697571156,0.01319367865679703,0.028577801360546762
0.788,-0.0052,-0.387,0.010495424332570858,1.0324980697571142,0.01320537359002919,0.0285778013605466
0.789,0.0038,-0.387,0.010512527427812994,1.032498069757114,0.013245947010750807,0.02857780136054657
0.79,-0.01,1.613,0.010587780404236146,1.0344106889482025,0.013424468537395193,0.028811202953185556
0.791,-0.0083,-0.387,0.010526947040063786,1.0344106889482025,0.013280154444329999,0.028811202953185556
0.792,-0.0069,-0.387,0.010444436466199853,1.047812908932953,0.013084415826263032,0.030446708601102043
0.793,-0.0113,0.613,0.01044123638673351,1.0401274448281161,0.013076824324918255,0.02950883263990887
0.794,-0.0023,-0.387,0.010445217446927653,1.0420260605391714,0.013086268535330946,0.02974052535366726
0.795,0.0089,-0.387,0.010468666161114606,1.0535679728476328,0.013141895574332887,0.03114901311089884
0.796,0.0073,-1.387,0.010566181417577248,1.0402399024715463,0.01337322957974073,0.029522556120883715
0.797,0.0163,-1.387,0.01057425816594018,1.0402399024715463,0.013392389930820604,0.029522556120883715
0.798,0.0151,-2.387,0.01095182822358061,1.0421383133020976,0.014288093812699765,0.029754223832573666
0.799,0.0227,-0.387,0.011309186536045956,1.0421383133020976,0.015135849669446822,0.029754223832573666
0.8,0.0201,-1.387,0.011391891757190421,1.047812908932948,0.015332050046388044,0.03044670860110142
0.801,0.0064,-0.387,0.011486329759885618,1.0421383133020974,0.015556083928045998,0.02975422383257364
0.802,0.0045,0.613,0.011482828198593625,1.0402399024715463,0.015547777225810454,0.029522556120883715
0.803,0.0027,-0.387,0.011452581738691426,1.0383380207504123,0.015476023994855625,0.029290464847936164
0.804,-0.0021,-0.387,0.01145709702292278,1.0383380207504123,0.015486735537076652,0.029290464847936164
0.805,-0.0035,0.613,0.011456463276113844,1.0441453091498456,0.015485232108864046,0.029999142439197917
0.806,0.0055,0.613,0.011423521310842672,1.0460366322351025,0.015407084370257567,0.030229945216013403
0.807,0.0019,1.612999999999778,0.011429513920084908,1.0460366322351025,0.015421300548824268,0.030229945216013403
0.808,-0.0057,0.613,0.011434888641847555,1.0460366322351022,0.015434050922031584,0.030229945216013375
0.809,-0.0122,-0.3869999999995559,0.01144755886057509,1.0574241558314637,0.015464108295143834,0.03161959254151786
0.81,-0.0206,1.613,0.011557535252936934,1.0631271921174936,0.015725003669552415,0.032315547992681
0.811,-0.0194,-0.38699999999977797,0.011558316998107415,1.0612663272060872,0.015726858192096432,0.032088462101233325
0.812,-0.0259,0.613,0.011563038999022963,1.0612663272060874,0.015738060125260106,0.03208846210123335
0.8130000000000001,-0.023399999999998623,1.612999999999556,0.011568402462742924,1.0687997978589674,0.015750783791178717,0.033007789930146594
0.8140000000000001,-0.01099999999999899,-0.387,0.011574043019305829,1.0687997978589674,0.015764164800363942,0.033007789930146594
0.8150000000000001,-0.0018999999999983568,-1.3869999999993339,0.011628739903736553,1.0631271921174938,0.015893921412997544,0.03231554799268103
0.8160000000000001,0.0129000000000002,1.613,0.011615486496991513,1.0964027794081936,0.0158624805515483,0.0363762492058831
0.8170000000000001,0.014699999999999,0.6129999999995559,0.011589195731178477,1.116267111426356,0.015800111355369247,0.0388003421729258
0.8180000000000001,0.005700000000000888,-1.387,0.011613041868469122,1.116267111426356,0.015856681195341553,0.0388003421729258
0.8190000000000001,0.013699999999999523,-2.386999999999778,0.011630542113123341,1.148003437332191,0.01589819676775897,0.042673203558738784
0.8200000000000001,0.009400000000000411,-1.387,0.011626254874490894,1.1549712908849283,0.015888026214750547,0.04352350775105345
0.8210000000000001,0.01309999999999989,-1.387,0.011628767699952592,1.1704723291946157,0.0158939873535511,0.045415137326818504
0.8220000000000001,0.012099999999998867,-1.387,0.01173318821233084,1.1704723291946157,0.016141702595775312,0.045415137326818504
0.8230000000000001,0.0019000000000003996,-3.386999999999556,0.011922966365033335,1.17215983669822,0.01659191050986092,0.04562106799025983
0.8240000000000001,0.0055000000000015314,-1.387,0.011974773209894995,1.1840038435261326,0.016714811124227676,0.04706642107975197
0.8250000000000001,0.019299999999999814,-0.38700000000022206,0.011928524148838812,1.2073433392855442,0.016605095158453875,0.04991459676836726
0.8260000000000001,0.017599999999999845,-1.387,0.012027690496490535,1.2351454803517787,0.016840346023150397,0.05330735996653408
0.8270000000000001,0.016199999999999843,0.6129999999993339,0.012697930237666312,1.2874175646261052,0.018430345880958363,0.05968625011729285
0.8280000000000001,0.014800000000000412,-2.387,0.01292700594223498,1.296687007363743,0.018973778798040367,0.060817422860890175
0.8290000000000001,0.018499999999998202,1.612999999999778,0.013128889355157373,1.3028599255897817,0.019452703842498763,0.061570719153168633
0.8300000000000001,0.0022999999999992896,0.613,0.01285087174032203,1.3437203420479373,0.018793166753156912,0.06655701560029244
0.8310000000000001,-0.0041000000000002,0.612999999999778,0.01276389795121078,1.4048931381279646,0.01858684011535219,0.07402208135817183
0.8320000000000001,-0.005899999999999789,-0.387,0.013170959143287694,1.4233124431560287,0.01955250538071832,0.07626983415124435
0.833,-0.004,1.612999999999778,0.01348112308196889,1.4233124431560287,0.020288302720242124,0.07626983415124435
0.834,-0.0087,0.613,0.01353508441883757,1.4275545145900825,0.02041631440423719,0.07678750449221432
0.835,-0.013,0.612999999999778,0.01358715147005032,1.4261692335653569,0.020539832302294867,0.07661845526436488
0.836,-0.0039,-0.387,0.013592700244878322,1.426169233565357,0.02055299557902336,0.07661845526436491
0.837,-0.0049,0.612999999999778,0.013748551580911716,1.4261692335653569,0.020922719406049145,0.07661845526436488
0.838,-0.0103,-0.387,0.01398390539102391,1.43040283278947,0.021481045780364826,0.07713509172085718
0.839,-0.0129,0.613,0.014417801563578244,1.4304028327894698,0.022510371274335913,0.07713509172085715
0.84,-0.0104,0.613,0.014808178160024306,1.43040283278947,0.02343645591943906,0.07713509172085718
0.841,0.0019,1.612999999999556,0.014815860620359528,1.4262512527523876,0.023454680906843106,0.07662846426614062
0.842,0.011,-0.387,0.014801708099221985,1.4276364541912914,0.02342110708957461,0.07679750378193777
0.843,0.0063,0.6129999999993339,0.015010883646259347,1.4276364541912914,0.023917331156298648,0.07679750378193777
0.844,0.0078,-2.387,0.01534752954955454,1.4360010636117273,0.024715951270098513,0.07781825750522424
0.845,0.0144,-0.38699999999977797,0.015501421123101504,1.4360010636117273,0.02508102598146712,0.07781825750522424
0.846,0.0057,0.613,0.015600928690687046,1.4360010636117273,0.025317086317182626,0.07781825750522424
0.847,-0.0286,0.613,0.015595477602265859,1.4360010636117273,0.025304154780476998,0.07781825750522424
0.848,-0.0318,0.613,0.015510337163173517,1.4360010636117273,0.025102177371896225,0.07781825750522424
0.849,-0.0169,1.613,0.01544166296860728,1.4233946269577318,0.024939262592471412,0.07627986324135073
0.85,-0.0147,-1.387,0.015295998091513396,1.424782605666657,0.024593703951826515,0.0764492416741938
0.851,-0.001,-0.387,0.01526061853567824,1.4205322566300724,0.02450977355305827,0.07593056119716386
0.852,0.0081,-0.387,0.015306791270390589,1.4261692335653569,0.024619308450971742,0.07661845526436488
0.853,0.0033,0.613,0.01530047758614847,1.4261692335653569,0.024604330590915872,0.07661845526436488
0.854,-0.0072,-1.387,0.015368680399424689,1.4275545145900823,0.02476612711945513,0.07678750449221429
0.855,-0.0007,0.613,0.01568296479528506,1.4289384526580051,0.025511699358804332,0.07695638983576407
0.856,-0.0043,0.613,0.015692964921820766,1.4275545145900823,0.025535422511570444,0.07678750449221429
0.857,-0.0053,0.613,0.015855337889782883,1.4261692335653569,0.025920617509883618,0.07661845526436488
0.858,-0.0061,1.613,0.016087358549062285,1.4163517444660942,0.02647103669961353,0.07542040308431767
0.859,-0.0163,-1.387,0.01619881544690006,1.42478260566666,0.026735444255338137,0.07644924167419416
0.86,-0.0015,-0.387,0.0166077834268464,1.4304028327894736,0.027705632965458436,0.07713509172085761
0.861,0.0044,-0.387,0.016481275070258254,1.4262512527523912,0.02740551905601791,0.07662846426614106
0.862,0.0062,-1.387,0.01646733685665276,1.4318657152888457,0.027372453637348533,0.07731361084624756
0.863,0.0047,-0.387,0.01627223590090992,1.430484609236153,0.026909618516075172,0.07714507110043524
0.864,0.0123,0.613,0.016211290991650914,1.4206969411332129,0.026765039806245245,0.07595065804942543
0.865,0.0087,2.613,0.01617436935222876,1.4206969411332129,0.026677451145315834,0.07595065804942543
0.866,-0.0,2.613,0.01620118051307071,1.4206969411332189,0.026741054866950695,0.07595065804942616
0.867,-0.0076,0.613,0.016149873822485703,1.4581790758550686,0.026619340761201538,0.08052469452273457
0.868,-0.0068,2.613,0.016084890566808233,1.4663694713883253,0.026465181941693432,0.08152418849974384
0.869,0.0051,-1.387,0.016216787683957276,1.4608876192157305,0.026778079528375416,0.08085522468632163
0.87,0.0099,-2.387,0.016498674455099435,1.4429480429641508,0.027446795360187654,0.07866601436787653
0.871,0.0176,-1.387,0.016476577448190644,1.4429480429641508,0.02739437495643582,0.07866601436787653
0.872,0.0212,0.613,0.016424505650092965,1.437376869179479,0.027270845797413002,0.07798615041990951
0.873,0.0126,1.613,0.01641677560310993,1.431784017724157,0.027252507920905843,0.07730364109283197
0.874,-0.0041,2.613,0.016477762837639073,1.3935081992886675,0.027397187038350184,0.07263274945688677
0.875,-0.0161,2.613,0.016558081556573487,1.3935081992886675,0.027587725951278574,0.07263274945688677
0.876,-0.0407,3.613,0.01651081612269056,1.3992540484581828,0.02747559885923051,0.07333392946881845
0.877,-0.0245,1.613,0.016556905345027045,1.3949259158976406,0.027584935641965798,0.0728057568783258
0.878,-0.0274,-1.387,0.0165456027799786,1.394925915897644,0.027558122733515503,0.07280575687832622
0.879,-0.0195,-3.387,0.01650497408399066,1.3862291110330194,0.027461739876941792,0.07174446453339342
0.88,0.0073,-4.387,0.016504095386727494,1.3819448325461539,0.027459655356377493,0.07122164356265212
0.881,0.0327,-2.387,0.01656530825609903,1.3819448325461536,0.02760486974403231,0.0712216435626521
0.882,0.0294,-0.387,0.016658944535008886,1.3805137850970164,0.027827001708172722,0.07104700934621903
0.883,0.0146,-1.387,0.01665505824289101,1.3805137850970166,0.027817782314670355,0.07104700934621906
0.884,0.012,-0.387,0.01666751580681634,1.3703692539336405,0.027847335209930133,0.06980904742408642
0.885,0.0051,-0.387,0.01664478919438878,1.3747746991454217,0.027793421202287304,0.07034665466629353
0.886,0.0207,0.613,0.01663428219005289,1.3791660721951258,0.027768495590787836,0.07088254464818244
0.887,0.0264,-1.387,0.016686756932841065,1.3805985166051196,0.02789298064956,0.07105734933916176
0.888,0.0355,-0.387,0.01669865254706885,1.3791660721951258,0.027921200439836143,0.07088254464818244
0.889,0.034,-0.387,0.016695514258262215,1.3791660721951253,0.027913755523562518,0.07088254464818239
0.89,0.0111,-1.387,0.01665329832549945,1.3791660721951253,0.02781360728858577,0.07088254464818239
0.891,-0.0052,0.613,0.016620868515004498,1.3777321384565293,0.02773667452720511,0.07070755821079514
0.892,-0.0259,-0.387,0.016620653205710947,1.3675669733580724,0.02773616375214195,0.06946707827915348
0.893,-0.0339,1.613,0.01659909528300453,1.3675669733580724,0.027685022209896624,0.06946707827915348
0.894,-0.0219,-0.387,0.01661429744380414,1.366120864807225,0.027721086071862414,0.0692906061196827
0.895,-0.0197,-0.387,0.017224122183441146,1.3483863857722778,0.029167764312113653,0.06712642431565953
0.896,-0.006,-1.387,0.01790812756154455,1.349851493570369,0.03079042018748209,0.06730521499968883
0.897,-0.0007,-1.387,0.01798727171858834,1.3498514935703665,0.030978172704551887,0.06730521499968853
0.898,0.0039,-1.387,0.017808676471752976,1.3543236821299005,0.030554493833204664,0.06785096709568365
0.899,0.0082,0.613,0.01752317804262002,1.3543236821298994,0.02987721011838127,0.06785096709568351
0.9,0.0172,0.613,0.017535165395912603,1.3439814795084164,0.029905647539888485,0.0665888828425838
0.901,0.0135,-1.387,0.01760771203656145,1.3483863857722689,0.030077748866070307,0.06712642431565845
0.902,-0.0009,0.613,0.017784168750196828,1.348386385772269,0.03049635452663189,0.06712642431565848
0.903,-0.0147,0.613,0.01834439884633184,1.3498514935703598,0.031825380125191254,0.06730521499968772
0.904,-0.0313,0.613,0.0198312003536248,1.3498514935703598,0.03535249742360357,0.06730521499968772
0.905,-0.0066,-0.387,0.02021006283214289,1.3498514935703576,0.03625126729647889,0.06730521499968745
0.906,0.0233,-0.387,0.020271688889508258,1.3483863857722669,0.03639746188392055,0.06712642431565821
0.907,0.0273,-0.387,0.020299766277593303,1.34691968430856,0.036464069457778414,0.06694743915272032
0.908,-0.0198,1.613,0.020307085045040165,1.3646732238537858,0.03648143166190469,0.06911394695737981
0.909,-0.0386,-1.387,0.020382118537970482,1.3544100520843856,0.03665943251109449,0.06786150703224128
0.91,0.0025,-1.387,0.02037435991972928,1.3484731360117475,0.036641026855412755,0.06713701065932291
0.911,0.0182,-1.387,0.02037389137050611,1.3587811513491075,0.03663991532299764,0.06839492295461762
0.912,-0.0057,-0.387,0.02037003889221139,1.3602350630018822,0.03663077614552949,0.06857234734568046
0.913,-0.0187,-0.387,0.0203647399634845,1.3645875034947705,0.03661820557502361,0.06910348629254441
0.914,0.0013,-0.387,0.020386860264219507,1.383543507078051,0.036670681238375996,0.07141673372152679
0.915,-0.0095,-1.387,0.020387465512836343,1.3921730658707439,0.036672117060747585,0.0724698198640118
0.916,0.0004,3.613,0.020447346566994276,1.3661208648071959,0.03681417200280381,0.06929060611967915
0.917,-0.0025,1.613,0.02053907083733163,1.341036837132114,0.03703176813719311,0.06622954093930086
0.918,-0.0214,-0.387,0.020544206009651126,1.341036837132114,0.0370439502307877,0.06622954093930086
0.919,-0.0333,-0.387,0.020590503896625634,1.3154745834979256,0.03715378202556779,0.06311011667677134
0.92,-0.0039,-1.387,0.02058847598241412,1.3154745834979253,0.03714897123457784,0.06311011667677131
0.921,0.0001,-0.387,0.020582226381481064,1.295522982638786,0.03713414539841139,0.06067537407985629
0.922,0.011,-0.387,0.020543125326674645,1.2908470929051021,0.03704138654249323,0.06010476383191408
0.923,0.0143,-0.387,0.020463622825767382,1.2893149374390354,0.036852783931558566,0.059917791157156494
0.924,0.0172,-1.387,0.02046120096030903,1.2799921087824313,0.03684703857583308,0.058780103599439734
0.925,0.0147,-1.387,0.020465261458427215,1.2531852934937586,0.03685667123566196,0.055508802437605066
0.926,0.0215,0.613,0.020411200562079186,1.2257923809164344,0.036728423368181676,0.05216597839173262
0.927,0.015,0.613,0.020050800909780987,1.1690825991692233,0.035873452585782346,0.04524554517654828
0.928,0.0092,1.613,0.01991938537566734,1.1639993537824156,0.035561697451436086,0.04462522432303826
0.929,-0.0184,-1.387,0.020236324351088325,1.158792869464659,0.036313567110745064,0.043989864321697554
0.93,-0.0144,0.613,0.020743508353201465,1.1111527988519507,0.037516752242423006,0.038176230114612505
0.931,-0.0181,-0.387,0.020819320178828055,1.0268527592538117,0.03769659951879456,0.027888890327680473
0.932,0.0047,-0.387,0.02061637840056851,1.0091480558100951,0.03721516372984849,0.02572834211180041
0.933,0.0076,-0.387,0.020431858761664527,1.0170676423852871,0.03677743051052993,0.02669478861003935
0.934,-0.0004,-1.387,0.02055270462721634,1.0170676423852871,0.03706411137595726,0.02669478861003935
0.935,0.0116,-1.387,0.020819334467498347,1.0170676423852871,0.03769663341559646,0.02669478861003935
0.936,0.0138,0.612999999999778,0.021070147048555907,1.0170676423852871,0.03829163240434395,0.02669478861003935
0.937,0.008,-0.387,0.02119058216879773,1.0170676423852871,0.0385773388647273,0.02669478861003935
0.9380000000000001,0.009799999999999478,-0.38699999999977797,0.021027892377875813,1.0111048451587124,0.03819139227197697,0.02596713389667543
0.9390000000000001,0.005099999999999512,0.613,0.020740879549098316,1.0111048451587124,0.03751051596920101,0.02596713389667543
0.9400000000000001,0.000700000000000111,-0.387,0.020566841938169236,1.0111048451587124,0.03709764911032894,0.02596713389667543
0.9410000000000001,0.001699999999999034,-0.387,0.020556153774855247,1.0383380207504385,0.03707229373805623,0.029290464847939363
0.9420000000000001,-0.006999999999998168,-0.387,0.02055635452761033,1.0383380207504382,0.03707276998085777,0.029290464847939335
0.9430000000000001,0.009500000000004062,-0.387,0.020397390342407593,1.0402399024715723,0.0366956615876349,0.029522556120886886
0.9440000000000001,0.04610000000000056,0.613,0.0202069772702653,1.028662162877559,0.036243947463521775,0.0281096962724692
0.9450000000000001,0.0510999999999963,0.613,0.020355645013860717,1.030581901012271,0.036596629760102195,0.028343966607190962
0.9460000000000001,0.01779999999999951,0.6129999999995559,0.020491428389929452,1.0383380207504382,0.036918746661530985,0.029290464847939335
0.9470000000000001,0.013399999999998713,-1.387,0.020483096769200876,1.0324980697571278,0.036898981680495234,0.028577801360548254
0.9480000000000001,0.0017999999999977906,0.612999999999778,0.020484610008434604,1.026624898767048,0.036902571515622345,0.02786108395579112
0.9490000000000001,-0.0181000000000004,-0.387,0.020490267326125335,1.0187796092023929,0.03691599228698403,0.026903704103264193
0.9500000000000001,-0.02170000000000037,1.612999999999556,0.02049587463251345,1.0304683893670437,0.03692929441726975,0.02833011450380176
0.9510000000000001,-0.025000000000002298,-0.387,0.020430570011355554,1.0363197782385762,0.03677437322716977,0.02904417378341635
0.9520000000000001,-0.045700000000003294,0.613,0.020402431839418235,1.0304683893670437,0.03670762145667519,0.02833011450380176
0.9530000000000001,-0.07539999999999603,0.613,0.020553484007976023,1.0420260605391967,0.0370659602894444,0.02974052535367035
0.9540000000000001,-0.03959999999999736,-1.386999999999778,0.020678973897531937,1.0478129089329737,0.03736365810455786,0.030446708601104565
0.9550000000000001,-0.015799999999999523,-0.387,0.020513545844989142,1.0459247978552053,0.036971215574129766,0.030216297793410198
0.9560000000000001,-0.011499999999999566,-0.3870000000004441,0.020629155891420753,1.053567972847658,0.03724547558304085,0.031149013110901902
0.9570000000000001,-0.00760000000000121,-2.387,0.020608570530515593,1.0535679728476581,0.037196641234819854,0.03114901311090193
0.9580000000000001,-0.018499999999999645,-0.387,0.02059049972320551,1.0554424109199194,0.03715377212502475,0.03137775536832952
0.9590000000000001,-0.015299999999998367,-0.387,0.02052495475204712,1.1053800710546164,0.036998280756161656,0.03747177003806046
0.96,-0.0006,1.612999999999778,0.020188024691853972,1.1107316190507475,0.036198986541141606,0.03812483251448059
0.961,0.0019,0.613,0.020430947494034547,1.1160575064186793,0.03677526872376457,0.03877476356174967
0.962,0.0041,1.6129999999991118,0.020552753379846665,1.121358098783732,0.03706422703110351,0.03942160779801878
0.963,0.0106,-2.387,0.020716438960363272,1.1231194037438736,0.03745253592083012,0.03963654414537711
0.964,0.0124,1.612999999999556,0.02068850201788302,1.1231194037438739,0.03738626152401016,0.03963654414537714
0.965,0.0179,-0.387,0.02102185468725821,1.1302406760101433,0.03817706914752805,0.040505570398123844
0.966,0.0194,0.613,0.02111851114885868,1.1302406760101433,0.038406365846544076,0.040505570398123844
0.967,0.0089,0.613,0.02113684653752274,1.0925771046288197,0.03844986261878496,0.03590939276598904
0.968,0.0154,0.6129999999995559,0.021137761518067566,1.0797306658805415,0.03845203321364348,0.03434171046019726
0.969,0.0042,-1.387,0.021031497045467362,1.0797306658805417,0.03819994357176704,0.03434171046019729
0.97,0.0085,-0.38699999999977797,0.020776797387594654,1.08713619270297,0.03759572332799141,0.03524542499089889
0.971,0.0122,0.613,0.020778869720505126,1.08713619270297,0.03760063949280611,0.03524542499089889
0.972,0.0111,-0.38699999999977797,0.0207886887256342,1.08713619270297,0.03762393297392923,0.03524542499089889
0.973,0.0122,0.613,0.020759919744872186,1.094491613547852,0.037555684744958746,0.03614302496674581
0.974,0.0058,0.613,0.02071230240974852,1.094491613547852,0.03744272284278475,0.03614302496674581
0.975,-0.0062,0.613,0.02065955634454492,1.094491613547852,0.0373175941298461,0.03614302496674581
0.976,-0.0141,-0.387,0.020642115832392022,1.08713619270297,0.03727622025996104,0.03524542499089889
0.977,0.0087,-1.387,0.020581727875536308,1.0853164939899238,0.03713296280010726,0.035023362711210926
0.978,0.045,0.613,0.020631073718702563,1.0962960829468966,0.03725002521643028,0.036363228776039196
0.979,0.0496,-0.387,0.020634310093058446,1.0834937391459407,0.03725770281960649,0.03480092748439824
0.98,0.0192,0.613,0.02056953809806101,1.0834937391459407,0.03710404517069538,0.03480092748439824
0.981,0.0151,-1.387,0.020532297321547748,1.089060266492261,0.03701569942554921,0.035480224416141445
0.982,-0.0103,-1.387,0.02048177011748906,1.089060266492261,0.036895834484195825,0.035480224416141445
0.983,-0.0266,-1.387,0.02047920616845387,1.0908737201941952,0.036889752065695496,0.035701524601866125
0.984,-0.0353,-0.387,0.020469224072745623,1.0982041085573278,0.03686607168719557,0.036596069802807905
0.985,-0.0328,-0.387,0.02047946673708888,1.0908737201941952,0.036890370208827225,0.035701524601866125
0.986,-0.0306,0.613,0.020446950263843224,1.0962960829468966,0.03681323185868058,0.036363228776039196
0.987,0.0031,0.613,0.02040896102326346,1.0962960829468982,0.036723110543262764,0.03636322877603939
0.988,0.0078,-0.387,0.020399973389302255,1.108950639208513,0.036701789311705715,0.03790749519319244
0.989,0.0209,-0.387,0.02037787274392456,1.1107316190507492,0.036649360276467736,0.0381248325144808
0.99,0.0089,2.613,0.020372716054939902,1.1321948160474475,0.03663712713920556,0.040744038881066764
0.991,0.0053,0.613,0.020405536683009165,1.1321948160474475,0.036714987031356616,0.040744038881066764
0.992,-0.0045,0.613,0.020428306201646856,1.1321948160474475,0.03676900282476925,0.040744038881066764
0.993,-0.0194,0.613,0.02050255043091622,1.139259361219641,0.03694513131541092,0.04160614258793252
0.994,-0.0329,0.613,0.02058083242812131,1.1409930330570444,0.03713083854340468,0.04181770679781215
0.995,-0.0307,-1.387,0.02006862068354146,1.1409930330570444,0.03591572617238826,0.04181770679781215
0.996,-0.0014,0.613,0.01941768825796838,1.151441839974057,0.034371528774770274,0.043092800233542006
0.997,0.0026,0.613,0.019583121773492116,1.1514418399740596,0.03476398426494752,0.04309280023354233
0.998,0.0062,-0.387,0.019981766444162403,1.156580277765981,0.03570968314065091,0.043719856351089825
0.999,0.0095,1.613,0.020811627222818693,1.1548700054807504,0.037678349632657475,0.04351114764572963
1.0,-0.0053,-1.387,0.021103930556891772,1.1548700054807504,0.038371776523157396,0.04351114764572963
1.0010000000000001,0.00820000000000371,0.613,0.021135732904870246,1.1427240746754512,0.038447220764459805,0.04202895003564173
1.002,0.0249,1.613,0.020995273216788807,1.154870005480757,0.03811401031697805,0.04351114764573044
1.0030000000000001,0.027099999999997824,-1.387,0.020531011588806918,1.1531571966566376,0.03701264930072148,0.043302129400332595
1.004,0.0173,-0.387,0.01909797123796192,1.1514418399740678,0.03361306880124307,0.04309280023354333
1.0050000000000001,0.02279999999999969,-1.387,0.018702411413199376,1.1461783149052898,0.032674688060012086,0.04245047940999831
1.006,0.0214,-0.387,0.018647463061536758,1.1582880247483294,0.03254433489537121,0.043928256887569676
1.0070000000000001,0.025899999999996714,0.613,0.018612364069828708,1.1582880247483283,0.03246107007474583,0.04392825688756954
1.008,0.0111,3.613,0.018599199668841663,1.1373173595570276,0.03242984036034422,0.04136915538050856
1.0090000000000001,-0.010900000000004574,1.613,0.01854565185229624,1.1390539871787921,0.0323028096645162,0.041581080291975124
1.01,-0.0315,1.613,0.01850092303741782,1.1512386392161102,0.032196700156339554,0.04306800314860676
1.0110000000000001,-0.02879999999999951,1.613,0.01856807594604883,1.1616959873356085,0.03235600601156591,0.0443441388881431
1.012,-0.0266,0.613,0.0185893492044863,1.166889518452967,0.03240647224896233,0.044977918178793055
1.0130000000000001,-0.015300000000004884,-0.387,0.018596176766987212,1.1548700054807761,0.03242266917483631,0.04351114764573277
1.014,-0.0373,-1.387,0.018595048618932856,1.133836124681849,0.032419992885837294,0.040944331783630064
1.0150000000000001,-0.022299999999997003,-1.387,0.018556825125957126,1.1214624108356515,0.032329315856913704,0.03943433725256096
1.016,-0.0088,-2.387,0.018490455067990633,1.1232235522261096,0.032171867146778575,0.03964925363911118
1.0170000000000001,0.003199999999998579,-0.387,0.01840264708902304,1.1214624108356515,0.031963561572674666,0.03943433725256096
1.018,-0.0032,-0.387,0.018390347061817348,1.1196984994002552,0.03193438239945259,0.0392190828306594
1.0190000000000001,0.0066999999999996,-1.387,0.01832705948332257,1.119698499400258,0.031784246209928556,0.039219082830659724
1.02,0.0049,-1.387,0.018322607436673664,1.114285039061122,0.03177368468529217,0.03855846503976369
1.0210000000000001,0.006399999999998335,-0.387,0.018304239705840365,1.1142850390611228,0.03173011118819997,0.038558465039763776
1.022,-0.0011,-1.387,0.018309741124415062,1.1125097477853032,0.031743162122386835,0.03834182190813309
1.0230000000000001,0.0026000000000013764,-0.387,0.018296301673729514,1.119698499400259,0.03171127991164005,0.03921908283065986
1.024,0.0088,-1.387,0.018281348140362592,1.119698499400259,0.031675805864867734,0.03921908283065986
1.025,0.012,-0.387,0.018320441729119816,1.125085912649756,0.03176854700918745,0.039876522031571215
1.026,0.0146,-0.387,0.018326900129411794,1.1304476512102084,0.0317838681769951,0.040530828087452196
1.027,0.0207,1.613,0.018302008807828292,1.1304476512102084,0.03172481886173219,0.040530828087452196
1.028,0.0099,-0.387,0.018281379735624364,1.1304476512102086,0.031675880817841486,0.040530828087452224
1.029,0.0085,-1.387,0.017723206822555834,1.1357840786920763,0.030351735444345246,0.04118204537057562
1.03,0.0074,-1.387,0.017022057612346198,1.1357840786920765,0.02868840950879301,0.04118204537057565
1.031,0.011,-0.387,0.016922201650653015,1.1357840786920763,0.028451522682871717,0.04118204537057562
1.032,0.0034,0.613,0.01689953572692302,1.128697781856834,0.028397752646131494,0.04031728725512619
1.033,0.0041,-1.387,0.01687381834197634,1.1445547052938834,0.028336743672929335,0.042252346362451856
1.034,0.0065,-0.387,0.01666441021079264,1.1375230471372864,0.027839967850263533,0.041394255938446145
1.035,-0.0011,1.613,0.01632509103397746,1.1392593612196589,0.02703500596909964,0.041606142587934686
1.036,-0.0059,0.613,0.015992594505310966,1.140993033057062,0.026246229355564397,0.04181770679781429
1.037,-0.0052,1.613,0.015863225760884718,1.1618973592406292,0.02593932979022128,0.04436871279368768
1.038,0.0024,0.613,0.01617216299249836,1.1670899942566941,0.026672217030651948,0.0450023827309075
1.039,-0.0022,-2.387,0.01620490619442614,1.1739445665515735,0.02674989324590892,0.04583886293456652
1.04,0.0116,-0.387,0.01608094027782769,1.1807593471905413,0.026455810729377156,0.04667048726523902
1.041,0.0098,-0.387,0.016056426671573372,1.1499273924485203,0.026397657462621665,0.04290798850202987
1.042,0.0188,-1.387,0.016059643361486117,1.1706721914477456,0.026405288368683583,0.0454395270058546
1.043,0.0203,0.613,0.01605594601904825,1.1758260760473083,0.026396517217721745,0.04606846813507689
1.044,0.0065,0.613,0.015959723554996634,1.2193252739446911,0.02616825008469318,0.05137678152807862
1.045,-0.0063,1.613,0.01566737185678967,1.2291083487790688,0.025474708460671396,0.05257063405130387
1.046,-0.031,0.613,0.015389128246702804,1.2241788071007709,0.024814635246125816,0.05196907003685928
1.047,-0.0419,1.613,0.015438274371962301,1.2241788071007709,0.02493122387460274,0.05196907003685928
1.048,-0.0582,-0.387,0.015477330330398505,1.233923401639176,0.025023875749066615,0.05315822671555518
1.049,-0.0394,-0.387,0.01550048173897433,1.2355242492443916,0.025078797494349936,0.053353582059875955
1.05,-0.0246,-0.387,0.015583881600357402,1.2241788071007684,0.02527664575608933,0.05196907003685898
1.051,-0.0058,1.613,0.015614258126332407,1.2176070635113732,0.02534870754087134,0.05116710411111351
1.052,-0.0127,-0.387,0.015637272351333727,1.2159826280645052,0.025403303847583124,0.05096887028484807
1.053,0.0028,-0.387,0.015439233855301772,1.206093090269785,0.024933500042784967,0.049762025826470865
1.054,0.0086,0.613,0.015389765971182792,1.2060930902697848,0.024816148110508824,0.04976202582647084
1.055,0.0067,1.613,0.015438738096110877,1.2060930902697848,0.024932323960564527,0.04976202582647084
1.056,-0.0013,-0.387,0.015271516811435631,1.1994222574867652,0.024535627371983133,0.048947967804341
1.057,0.003,0.613,0.015127648250762103,1.1994222574867655,0.024194330106302262,0.048947967804341026
1.058,0.012,0.6130000000004441,0.014905824734140214,1.2093663469407343,0.02366810144777996,0.050161469334972376
1.059,0.0083,1.613,0.014864521765789911,1.1587928694646572,0.02357011902482064,0.04398986432169734
1.06,0.0158,-2.387,0.014825504715492566,1.1484109477726192,0.023477559451561027,0.04272293305337949
1.061,0.0091,-1.387,0.014486816932443764,1.148410947772619,0.022674095416521572,0.042722933053379465
1.062,0.0065,-0.3869999999995559,0.014197799717693645,1.136195971761803,0.021988464138449945,0.041232309688176906
1.063,0.0104,0.613,0.014106564480936367,1.136195971761803,0.021772028131213688,0.041232309688176906
1.064,0.0034,-0.387,0.014336588291303413,1.1379343107604571,0.022317710225704904,0.04144444344314639
1.065,-0.0086,0.613,0.013853539619718348,1.1431334671333275,0.02117178098285335,0.042078909197469615
1.066,-0.0072,-0.387,0.013700425182346383,1.1360930124943076,0.02080854986017672,0.04121974531722301
1.067,-0.0058,-0.387,0.013684407488285536,1.1201163075308382,0.02077055132067729,0.03927006897758815
1.068,-0.0021,0.613,0.013705909995813621,1.1201163075308382,0.02082156140231195,0.03927006897758815
1.069,-0.0011,0.613,0.013707387464899495,1.1201163075308382,0.0208250663804446,0.03927006897758815
1.07,0.0022,-0.387,0.013691978027102128,1.1129302546676716,0.02078851079831255,0.03839313739033558
1.071,0.013,-0.387,0.013687693809942548,1.1129302546676716,0.02077834741309967,0.03839313739033558
1.072,0.0086,-1.387,0.013703762241340633,1.1129302546676716,0.0208164663160363,0.03839313739033558
1.073,0.0097,0.613,0.013744330909894251,1.10569749982207,0.020912706770412452,0.037510506646068115
1.074,0.0133,-1.387,0.013794279826649864,1.1129302546676716,0.02103119984932145,0.03839313739033558
1.075,0.0079,-1.387,0.013769326753158976,1.1074837111537603,0.020972004040918948,0.03772848237879566
1.076,0.0104,-0.387,0.013742660931610383,1.1074837111537603,0.02090874510554723,0.03772848237879566
1.077,0.0002,-1.387,0.013843984376126156,1.1074837111537603,0.021149113219335998,0.03772848237879566
1.078,0.0038,-1.386999999999556,0.013839532780899349,1.0948121993084696,0.021138552765601597,0.03618214683034217
1.079,0.0048,-0.387,0.013861442562342667,1.0948121993084696,0.02119052901714163,0.03618214683034217
1.08,-0.0054,0.613,0.013939342569606793,1.0874589468631801,0.02137533005602947,0.035284811469595175
1.081,0.0123,-0.387,0.014038082509196153,1.1290086547039928,0.021609569359165443,0.040355223828163395
1.082,-0.0044,-2.386999999999112,0.014027137322733096,1.1290086547039928,0.021583604254665056,0.040355223828163395
1.083,-0.0024,-0.387,0.014102925213131908,1.1272565515615294,0.02176339474984859,0.04014141040109745
1.084,0.0113,0.613,0.014098398805443463,1.1272565515615294,0.021752656819614278,0.04014141040109745
1.085,-0.0014,0.613,0.014083468919543351,1.1343518517991948,0.021717238871378886,0.041007267223740936
1.086,-0.0229,-2.386999999999556,0.01408404408284636,1.1219838256249532,0.021718603322803978,0.03949796677317624
1.087,-0.0316,-1.387,0.014083627953472734,1.127360317843301,0.0217176161452252,0.04015407325397509
1.088,-0.0129,-1.387,0.014074154112567763,1.1149147355432574,0.02169514149210276,0.03863530843990018
1.089,-0.006,-1.387,0.014082524022721726,1.1606989403368029,0.021714997306577923,0.04422246680697742
1.09,0.0005,-0.3870000000008882,0.014098124500947485,1.1450656048703522,0.021752006091102064,0.04231469268595526
1.091,0.0062,-2.387,0.014076032030070209,1.1520512272025827,0.02169959644811093,0.04316716524584266
1.092,-0.0029,-1.387,0.014100982747461821,1.1589947457779297,0.02175878666717385,0.044014499781413224
1.093,0.0083,-3.387,0.013994348813980557,1.1589947457779297,0.021505820558695585,0.044014499781413224
1.094,0.0126,1.612999999999556,0.013847289305957317,1.1572880416658247,0.021156953455655606,0.04380622650893701
1.095,0.0089,0.613,0.013832444679157192,1.1555788168812162,0.021121737766326282,0.04359764563263691
1.096,0.0124,0.613,0.013821542646856635,1.1434404152855253,0.021095875035809446,0.042116366830392236
1.097,0.0113,1.613,0.013469472930552966,1.1538670602224776,0.02026066523777613,0.043388755785551056
1.098,0.0105,0.6129999999995559,0.012810179070939584,1.1643008010106102,0.018696632133442463,0.04466201066476538
1.099,0.0187,-0.387,0.011415396281016881,1.1711716978632212,0.015387809481775082,0.045500482994087176
1.1,0.0111,-0.387,0.010742516096180134,1.183025597606441,0.013791545738393685,0.046947043340203796
1.101,0.0118,-0.387,0.01046870187479403,1.1830255976064412,0.013141980297368119,0.04694704334020382
1.102,-0.002,0.6129999999991118,0.010494649436438836,1.1780025197416564,0.013203535315358146,0.046334064876402486
1.103,-0.0241,-1.387,0.010433465799310763,1.1780025197416564,0.01305839027492358,0.046334064876402486
1.104,-0.0212,-0.387,0.01044376191965795,1.1847939597919812,0.013082815609445348,0.04716284089801912
1.105,-0.0024,-0.387,0.010416105745206572,1.1831244726576466,0.013017207274481411,0.04695910930426563
1.106,0.0045,-0.387,0.010422428626927974,1.1712715735836747,0.013032206953581801,0.04551267107226209
1.107,-0.002,1.613,0.01063926778605087,1.1712715735836747,0.013546611294284992,0.04551267107226209
1.108,-0.0001,-1.387,0.010967807207829411,1.1712715735836747,0.014326000521482717,0.04551267107226209
1.109,0.0018,0.613,0.011063172457759951,1.169582784469335,0.014552234098088274,0.045306584010731586
1.11,0.0004,1.613,0.011343804879548808,1.1592974943339238,0.015217974255420375,0.04405144492735101
1.111,-0.001,-0.387,0.011705555470003638,1.1366077155664442,0.016076149848494137,0.04128255579059512
1.112,-0.0212,0.613,0.011870443072748198,1.1764228323051682,0.01646731027783279,0.04614129175916827
1.113,-0.0298,0.613,0.011854075020354253,1.1764228323051693,0.016428480588424478,0.0461412917591684
1.114,-0.0055,1.613,0.01182466884138675,1.18155163308789,0.01635872074354422,0.046767171848938784
1.115,-0.0087,-0.387,0.01182654069599972,1.183223339446441,0.01636316131664906,0.04697117426004525
1.116,-0.0058,-1.387,0.011798041409102029,1.188322789604967,0.016295552878457277,0.047593472621438176
1.117,-0.0083,-0.387,0.011776264762850375,1.188322789604967,0.016243892461569848,0.047593472621438176
1.118,0.0038,-0.387,0.011790395089386597,1.18998498379293,0.016277413626912804,0.04779631423912842
1.119,0.0016,-0.387,0.01180804014833433,1.1950555815259818,0.016319272740143977,0.04841509166855092
1.12,0.0035,-1.387,0.01198397224082944,1.215030129199279,0.016736633849708086,0.05085263452125936
1.121,-0.0092,-0.387,0.01218570110928376,1.2264602046451707,0.017215192270603048,0.052247474552921114
1.122,-0.0106,-0.387,0.01216510833634199,1.2280707809146842,0.017166340338916862,0.05244401710991442
1.123,-0.012,-1.387,0.012134810063781287,1.2215199762159157,0.01709446419355605,0.05164460640814827
1.124,-0.0029,0.613,0.012102316151706548,1.2264602046451707,0.0170173793649426,0.052247474552921114
1.125,0.0084,-0.387,0.012052422876238074,1.2264602046451707,0.016899018283038858,0.052247474552921114
1.1260000000000001,0.022199999999999602,-0.387,0.012061793227208514,1.2312856133540502,0.016921247428515182,0.052836330966698646
1.127,0.0204,-0.387,0.012418175303623718,1.242566167400721,0.017766687374871443,0.05421292453671537
1.1280000000000001,0.012600000000000977,-0.387,0.012739010834742813,1.2898591888882907,0.018527800775822875,0.05998420749117851
1.129,0.017,-0.387,0.012740333932254808,1.2851626923762718,0.018530939540546444,0.05941108254773132
1.1300000000000001,0.01819999999999807,-3.387,0.012731730033941692,1.286699792194728,0.018510528639410606,0.05959865859389062
1.131,0.0095,-0.387,0.01272148612251223,1.2851626923762718,0.018486227159334734,0.05941108254773132
1.1320000000000001,0.014999999999997113,-0.387,0.012699773386099953,1.285162692376272,0.018434718354817144,0.05941108254773135
